4.011380e+002,6.000000e+000
4.049951e+002,6.000000e+000
4.088522e+002,6.000000e+000
4.127093e+002,-1.048812e+000
4.165664e+002,-1.037412e-001
4.204235e+002,2.089081e-001
4.242806e+002,-6.884945e-001
4.281377e+002,-2.294951e+000
4.319948e+002,6.000000e+000
4.358519e+002,6.000000e+000
4.397090e+002,6.000000e+000
4.435661e+002,5.418688e-001
4.474232e+002,2.511724e-001
4.512803e+002,6.000000e+000
4.551374e+002,6.000000e+000
4.589945e+002,6.000000e+000
4.628516e+002,6.000000e+000
4.667087e+002,3.488653e-001
4.705658e+002,6.000000e+000
4.744229e+002,6.000000e+000
4.782800e+002,6.000000e+000
4.821371e+002,-3.312297e-001
4.859941e+002,6.000000e+000
4.898513e+002,6.000000e+000
4.937083e+002,6.000000e+000
4.975654e+002,6.000000e+000
5.014225e+002,-6.728842e-001
5.052796e+002,6.000000e+000
5.091367e+002,1.471976e+000
5.129938e+002,5.421681e-002
5.168509e+002,6.000000e+000
5.207080e+002,1.316248e-001
5.245651e+002,-1.857677e-001
5.284222e+002,-2.494611e-001
5.322793e+002,1.631853e-001
5.361364e+002,6.000000e+000
5.399935e+002,-1.291283e+000
5.438506e+002,-2.005568e-002
5.477077e+002,2.133759e-001
5.515648e+002,6.038102e-001
5.554219e+002,2.502984e-001
5.592790e+002,-1.847232e-001
5.631361e+002,-4.323334e-001
5.669932e+002,-8.412209e-003
5.708503e+002,6.000000e+000
5.747074e+002,6.000000e+000
5.785645e+002,7.432770e-001
5.824216e+002,6.000000e+000
5.862787e+002,7.392039e-001
5.901357e+002,6.751078e-001
5.939929e+002,-3.473774e-002
5.978499e+002,6.000000e+000
6.017070e+002,-3.902631e-001
6.055641e+002,-2.911106e-002
6.094212e+002,-1.947715e-001
6.132783e+002,-7.506052e-001
6.171354e+002,6.000000e+000
6.209925e+002,6.000000e+000
6.248496e+002,-1.769700e-001
6.287067e+002,6.000000e+000
6.325638e+002,6.000000e+000
6.364209e+002,2.819144e-001
6.402780e+002,-6.742074e-001
6.441351e+002,-3.457202e-001
6.479922e+002,-6.147431e-001
6.518493e+002,-9.960853e-001
6.557064e+002,-1.936825e+000
6.595635e+002,2.335171e-001
6.634205e+002,6.000000e+000
6.672777e+002,6.000000e+000
6.711348e+002,6.000000e+000
6.749918e+002,-2.450706e-001
6.788490e+002,-1.264209e-001
6.827061e+002,6.000000e+000
6.865631e+002,6.000000e+000
6.904203e+002,6.000000e+000
6.942773e+002,2.781670e-001
6.981344e+002,6.000000e+000
7.019916e+002,1.290419e+000
7.058486e+002,6.000000e+000
7.097057e+002,6.000000e+000
7.135629e+002,-1.765460e+000
7.174199e+002,-1.746934e-001
7.212770e+002,2.205081e-001
7.251342e+002,-2.928386e-001
7.289912e+002,7.927669e-001
7.328483e+002,4.778612e-001
7.367054e+002,7.662310e-002
7.405625e+002,-1.006362e+000
7.444196e+002,-2.219293e-001
7.482767e+002,-7.176348e-001
7.521338e+002,6.000000e+000
7.559908e+002,3.789284e-001
7.598480e+002,-1.022487e-001
7.637051e+002,6.000000e+000
7.675621e+002,6.000000e+000
7.714193e+002,6.000000e+000
7.752764e+002,6.000000e+000
7.791334e+002,6.000000e+000
7.829905e+002,6.000000e+000
7.868477e+002,6.000000e+000
7.907047e+002,9.131327e-001
7.945618e+002,5.308644e-001
7.984189e+002,6.229957e-001
8.022760e+002,3.958315e-001
8.061331e+002,8.026879e-001
8.099902e+002,2.689757e+000
8.138473e+002,6.000000e+000
8.177044e+002,6.000000e+000
8.215615e+002,9.529058e-001
8.254186e+002,6.822147e-001
8.292757e+002,9.335902e-001
8.331328e+002,9.324987e-001
8.369899e+002,1.133046e+000
8.408470e+002,1.237383e+000
8.447041e+002,8.722857e-001
8.485612e+002,1.117451e+000
8.524183e+002,6.000000e+000
8.562754e+002,6.000000e+000
8.601324e+002,6.000000e+000
8.639896e+002,6.000000e+000
8.678467e+002,6.000000e+000
8.717037e+002,6.000000e+000
8.755609e+002,6.000000e+000
8.794180e+002,6.000000e+000
8.832750e+002,6.000000e+000
8.871321e+002,6.000000e+000
8.909893e+002,1.625326e+000
8.948463e+002,1.452928e+000
8.987034e+002,1.365285e+000
9.025605e+002,1.860634e+000
9.064176e+002,2.762483e+000
9.102747e+002,1.267468e+000
9.141318e+002,1.532341e+000
9.179889e+002,2.964627e+000
9.218461e+002,1.945948e+000
9.257031e+002,2.517291e+000
9.295602e+002,6.000000e+000
9.334174e+002,1.668806e+000
9.372744e+002,1.681423e+000
9.411315e+002,1.719423e+000
9.449886e+002,1.865564e+000
9.488457e+002,6.000000e+000
9.527028e+002,6.000000e+000
9.565599e+002,2.378141e+000
9.604170e+002,1.936964e+000
9.642740e+002,2.393833e+000
9.681312e+002,2.191181e+000
9.719883e+002,1.950918e+000
9.758453e+002,1.812003e+000
9.797025e+002,1.599812e+000
9.835596e+002,3.141299e+000
9.874166e+002,6.000000e+000
9.912738e+002,1.885501e+000
9.951309e+002,1.725446e+000
9.989879e+002,1.934865e+000
1.002845e+003,6.000000e+000
1.006702e+003,6.000000e+000
1.010559e+003,6.000000e+000
1.014416e+003,2.644919e+000
1.018273e+003,2.715408e+000
1.022130e+003,2.220492e+000
1.025988e+003,2.272838e+000
1.029845e+003,6.000000e+000
1.033702e+003,6.000000e+000
1.037559e+003,2.336999e+000
1.041416e+003,2.296971e+000
1.045273e+003,2.998546e+000
1.049130e+003,6.000000e+000
1.052987e+003,6.000000e+000
1.056844e+003,2.163223e+000
1.060702e+003,2.490085e+000
1.064559e+003,6.000000e+000
1.068416e+003,2.451338e+000
1.072273e+003,2.212873e+000
1.076130e+003,2.059344e+000
1.079987e+003,2.075031e+000
1.083844e+003,1.883278e+000
1.087701e+003,1.725561e+000
1.091558e+003,1.790593e+000
1.095415e+003,1.810913e+000
1.099272e+003,2.012361e+000
1.103130e+003,6.000000e+000
1.106987e+003,2.347148e+000
1.110844e+003,1.783591e+000
1.114701e+003,1.785665e+000
1.118558e+003,1.714534e+000
1.122415e+003,1.861375e+000
1.126272e+003,2.057080e+000
1.130129e+003,1.973729e+000
1.133986e+003,2.067480e+000
1.137843e+003,2.577857e+000
1.141701e+003,2.430543e+000
1.145558e+003,1.967201e+000
1.149415e+003,1.828574e+000
1.153272e+003,1.840718e+000
1.157129e+003,1.831063e+000
1.160986e+003,1.820871e+000
1.164843e+003,1.831720e+000
1.168700e+003,1.743554e+000
1.172557e+003,1.683812e+000
1.176414e+003,1.780914e+000
1.180271e+003,1.879969e+000
1.184129e+003,1.927773e+000
1.187986e+003,1.878225e+000
1.191843e+003,1.792349e+000
1.195700e+003,1.875809e+000
1.199557e+003,2.026340e+000
1.203414e+003,1.956017e+000
1.207271e+003,1.919326e+000
1.211128e+003,1.842104e+000
1.214985e+003,1.725638e+000
1.218842e+003,1.688159e+000
1.222699e+003,1.700648e+000
1.226557e+003,1.697966e+000
1.230414e+003,1.706272e+000
1.234271e+003,1.707949e+000
1.238128e+003,1.717530e+000
1.241985e+003,1.703180e+000
1.245842e+003,1.577189e+000
1.249699e+003,1.534485e+000
1.253556e+003,1.514734e+000
1.257413e+003,1.386289e+000
1.261271e+003,1.302746e+000
1.265128e+003,1.300872e+000
1.268985e+003,1.304610e+000
1.272842e+003,1.285783e+000
1.276699e+003,1.257933e+000
1.280556e+003,1.205343e+000
1.284413e+003,1.186159e+000
1.288270e+003,1.181733e+000
1.292127e+003,1.145019e+000
1.295984e+003,1.124726e+000
1.299841e+003,1.108731e+000
1.303698e+003,1.106228e+000
1.307556e+003,1.104609e+000
1.311413e+003,1.075702e+000
1.315270e+003,1.071813e+000
1.319127e+003,1.081230e+000
1.322984e+003,1.071248e+000
1.326841e+003,1.048224e+000
1.330698e+003,1.011815e+000
1.334555e+003,9.976462e-001
1.338412e+003,9.921175e-001
1.342270e+003,9.804584e-001
1.346127e+003,9.679982e-001
1.349984e+003,9.644483e-001
1.353841e+003,9.606356e-001
1.357698e+003,9.668790e-001
1.361555e+003,9.647238e-001
1.365412e+003,9.496390e-001
1.369269e+003,9.529880e-001
1.373126e+003,9.794145e-001
1.376983e+003,1.002636e+000
1.380840e+003,1.014059e+000
1.384698e+003,1.023036e+000
1.388555e+003,1.030563e+000
1.392412e+003,1.042171e+000
1.396269e+003,1.062090e+000
1.400126e+003,1.092286e+000
1.403983e+003,1.110309e+000
1.407840e+003,1.137799e+000
1.411697e+003,1.179593e+000
1.415554e+003,1.204124e+000
1.419411e+003,1.216714e+000
1.423269e+003,1.239893e+000
1.427126e+003,1.252193e+000
1.430983e+003,1.227498e+000
1.434840e+003,1.221758e+000
1.438697e+003,1.222336e+000
1.442554e+003,1.232136e+000
1.446411e+003,1.203607e+000
1.450268e+003,1.193759e+000
1.454125e+003,1.198021e+000
1.457982e+003,1.178838e+000
1.461839e+003,1.164686e+000
1.465697e+003,1.152810e+000
1.469554e+003,1.137539e+000
1.473411e+003,1.154912e+000
1.477268e+003,1.170745e+000
1.481125e+003,1.168408e+000
1.484982e+003,1.169106e+000
1.488839e+003,1.188799e+000
1.492696e+003,1.200440e+000
1.496553e+003,1.226051e+000
1.500411e+003,1.244280e+000
1.504268e+003,1.236348e+000
1.508125e+003,1.250303e+000
1.511982e+003,1.256221e+000
1.515839e+003,1.240791e+000
1.519696e+003,1.225787e+000
1.523553e+003,1.228929e+000
1.527410e+003,1.234894e+000
1.531267e+003,1.211147e+000
1.535124e+003,1.179619e+000
1.538981e+003,1.161623e+000
1.542839e+003,1.153042e+000
1.546696e+003,1.132265e+000
1.550553e+003,1.101127e+000
1.554410e+003,1.079471e+000
1.558267e+003,1.080459e+000
1.562124e+003,1.066849e+000
1.565981e+003,1.057663e+000
1.569838e+003,1.065017e+000
1.573695e+003,1.060878e+000
1.577552e+003,1.045555e+000
1.581410e+003,1.038295e+000
1.585267e+003,1.034585e+000
1.589124e+003,1.026525e+000
1.592981e+003,1.028822e+000
1.596838e+003,1.047942e+000
1.600695e+003,1.075830e+000
1.604552e+003,1.108853e+000
1.608409e+003,1.160318e+000
1.612266e+003,1.214316e+000
1.616123e+003,1.241073e+000
1.619980e+003,1.275023e+000
1.623838e+003,1.335297e+000
1.627695e+003,1.379672e+000
1.631552e+003,1.403375e+000
1.635409e+003,1.394594e+000
1.639266e+003,1.368092e+000
1.643123e+003,1.401263e+000
1.646980e+003,1.379756e+000
1.650837e+003,1.362077e+000
1.654694e+003,1.376613e+000
1.658551e+003,1.362649e+000
1.662409e+003,1.319524e+000
1.666266e+003,1.260601e+000
1.670123e+003,1.191523e+000
1.673980e+003,1.165200e+000
1.677837e+003,1.118488e+000
1.681694e+003,1.066177e+000
1.685551e+003,1.045220e+000
1.689408e+003,1.015224e+000
1.693265e+003,9.850890e-001
1.697122e+003,9.573854e-001
1.700979e+003,9.345389e-001
1.704837e+003,9.113294e-001
1.708694e+003,8.943039e-001
1.712551e+003,8.812256e-001
1.716408e+003,8.582012e-001
1.720265e+003,8.434808e-001
1.724122e+003,8.441260e-001
1.727979e+003,8.496758e-001
1.731836e+003,8.382146e-001
1.735693e+003,8.252596e-001
1.739550e+003,8.239816e-001
1.743408e+003,8.193830e-001
1.747265e+003,8.115728e-001
1.751122e+003,8.084726e-001
1.754979e+003,8.103580e-001
1.758836e+003,8.071466e-001
1.762693e+003,8.028266e-001
1.766550e+003,8.006107e-001
1.770407e+003,7.980238e-001
1.774264e+003,7.987297e-001
1.778121e+003,8.018745e-001
1.781979e+003,8.015195e-001
1.785836e+003,8.027402e-001
1.789693e+003,8.032365e-001
1.793550e+003,7.904394e-001
1.797407e+003,7.791222e-001
1.801264e+003,7.779781e-001
1.805121e+003,7.863267e-001
1.808978e+003,7.850111e-001
1.812835e+003,7.790188e-001
1.816692e+003,7.843854e-001
1.820549e+003,7.774879e-001
1.824407e+003,7.683283e-001
1.828264e+003,7.663805e-001
1.832121e+003,7.638891e-001
1.835978e+003,7.568721e-001
1.839835e+003,7.552920e-001
1.843692e+003,7.573596e-001
1.847549e+003,7.530178e-001
1.851406e+003,7.505673e-001
1.855263e+003,7.479543e-001
1.859120e+003,7.438066e-001
1.862978e+003,7.388499e-001
1.866835e+003,7.352036e-001
1.870692e+003,7.330737e-001
1.874549e+003,7.276408e-001
1.878406e+003,7.261277e-001
1.882263e+003,7.209676e-001
1.886120e+003,7.186210e-001
1.889977e+003,7.250814e-001
1.893834e+003,7.286133e-001
1.897691e+003,7.287909e-001
1.901548e+003,7.277873e-001
1.905406e+003,7.186560e-001
1.909263e+003,7.093597e-001
1.913120e+003,7.031083e-001
1.916977e+003,7.057164e-001
1.920834e+003,7.039437e-001
1.924691e+003,6.968130e-001
1.928548e+003,6.976882e-001
1.932405e+003,6.970652e-001
1.936262e+003,6.876065e-001
1.940119e+003,6.875810e-001
1.943977e+003,6.918592e-001
1.947834e+003,6.854849e-001
1.951691e+003,6.839192e-001
1.955548e+003,6.887011e-001
1.959405e+003,6.880935e-001
1.963262e+003,6.804245e-001
1.967119e+003,6.745194e-001
1.970976e+003,6.768056e-001
1.974833e+003,6.785632e-001
1.978690e+003,6.745572e-001
1.982547e+003,6.640555e-001
1.986405e+003,6.577066e-001
1.990262e+003,6.630329e-001
1.994119e+003,6.658743e-001
1.997976e+003,6.632885e-001
2.001833e+003,6.581124e-001
2.005690e+003,6.504810e-001
2.009547e+003,6.490515e-001
2.013404e+003,6.537183e-001
2.017261e+003,6.551641e-001
2.021118e+003,6.521950e-001
2.024976e+003,6.519790e-001
2.028833e+003,6.480082e-001
2.032690e+003,6.428387e-001
2.036547e+003,6.457713e-001
2.040404e+003,6.419427e-001
2.044261e+003,6.402992e-001
2.048118e+003,6.386389e-001
2.051975e+003,6.344650e-001
2.055832e+003,6.291876e-001
2.059689e+003,6.254620e-001
2.063546e+003,6.268210e-001
2.067404e+003,6.292511e-001
2.071261e+003,6.273467e-001
2.075118e+003,6.240053e-001
2.078975e+003,6.225458e-001
2.082832e+003,6.212506e-001
2.086689e+003,6.183843e-001
2.090546e+003,6.185732e-001
2.094403e+003,6.246724e-001
2.098260e+003,6.251656e-001
2.102117e+003,6.195197e-001
2.105975e+003,6.178861e-001
2.109832e+003,6.212054e-001
2.113689e+003,6.231570e-001
2.117546e+003,6.182752e-001
2.121403e+003,6.126418e-001
2.125260e+003,6.099573e-001
2.129117e+003,6.075167e-001
2.132974e+003,6.127737e-001
2.136831e+003,6.169373e-001
2.140688e+003,6.168540e-001
2.144545e+003,6.149737e-001
2.148403e+003,6.125957e-001
2.152260e+003,6.116800e-001
2.156117e+003,6.092503e-001
2.159974e+003,6.089255e-001
2.163831e+003,6.124122e-001
2.167688e+003,6.146166e-001
2.171545e+003,6.174198e-001
2.175402e+003,6.184331e-001
2.179259e+003,6.179785e-001
2.183116e+003,6.199117e-001
2.186974e+003,6.205893e-001
2.190831e+003,6.214027e-001
2.194688e+003,6.216123e-001
2.198545e+003,6.247667e-001
2.202402e+003,6.237062e-001
2.206259e+003,6.225746e-001
2.210116e+003,6.247818e-001
2.213973e+003,6.269196e-001
2.217830e+003,6.305562e-001
2.221688e+003,6.315503e-001
2.225544e+003,6.281401e-001
2.229402e+003,6.283754e-001
2.233259e+003,6.306672e-001
2.237116e+003,6.364948e-001
2.240973e+003,6.400519e-001
2.244830e+003,6.344793e-001
2.248687e+003,6.364695e-001
2.252544e+003,6.458400e-001
2.256401e+003,6.466022e-001
2.260258e+003,6.420259e-001
2.264115e+003,6.466756e-001
2.267973e+003,6.524973e-001
2.271830e+003,6.498483e-001
2.275687e+003,6.470349e-001
2.279544e+003,6.443837e-001
2.283401e+003,6.505758e-001
2.287258e+003,6.584052e-001
2.291115e+003,6.552971e-001
2.294972e+003,6.505315e-001
2.298829e+003,6.509214e-001
2.302687e+003,6.559135e-001
2.306543e+003,6.595992e-001
2.310401e+003,6.557509e-001
2.314258e+003,6.497197e-001
2.318115e+003,6.479174e-001
2.321972e+003,6.508767e-001
2.325829e+003,6.646014e-001
2.329686e+003,6.702510e-001
2.333543e+003,6.692845e-001
2.337400e+003,6.630728e-001
2.341257e+003,6.636072e-001
2.345115e+003,6.721790e-001
2.348972e+003,6.694753e-001
2.352829e+003,6.681341e-001
2.356686e+003,6.647843e-001
2.360543e+003,6.602547e-001
2.364400e+003,6.625642e-001
2.368257e+003,6.619742e-001
2.372114e+003,6.602293e-001
2.375971e+003,6.617054e-001
2.379828e+003,6.605750e-001
2.383686e+003,6.605784e-001
2.387542e+003,6.626467e-001
2.391400e+003,6.583039e-001
2.395257e+003,6.595229e-001
2.399114e+003,6.654453e-001
2.402971e+003,6.631361e-001
2.406828e+003,6.619978e-001
2.410685e+003,6.642393e-001
2.414542e+003,6.647809e-001
2.418399e+003,6.621518e-001
2.422256e+003,6.580102e-001
2.426114e+003,6.551083e-001
2.429971e+003,6.531105e-001
2.433828e+003,6.501305e-001
2.437685e+003,6.475564e-001
2.441542e+003,6.457862e-001
2.445399e+003,6.451706e-001
2.449256e+003,6.447927e-001
2.453113e+003,6.432945e-001
2.456970e+003,6.458396e-001
2.460827e+003,6.529593e-001
2.464684e+003,6.522367e-001
2.468542e+003,6.486919e-001
2.472399e+003,6.475813e-001
2.476256e+003,6.476233e-001
2.480113e+003,6.454225e-001
2.483970e+003,6.467776e-001
2.487827e+003,6.471173e-001
2.491684e+003,6.477832e-001
2.495541e+003,6.477600e-001
2.499398e+003,6.429427e-001
2.503255e+003,6.447370e-001
2.507113e+003,6.504890e-001
2.510969e+003,6.488175e-001
2.514827e+003,6.430374e-001
2.518684e+003,6.461923e-001
2.522541e+003,6.504251e-001
2.526398e+003,6.558970e-001
2.530255e+003,6.572254e-001
2.534112e+003,6.552404e-001
2.537969e+003,6.577963e-001
2.541826e+003,6.604107e-001
2.545683e+003,6.583569e-001
2.549541e+003,6.571888e-001
2.553398e+003,6.585488e-001
2.557255e+003,6.641710e-001
2.561112e+003,6.679192e-001
2.564969e+003,6.685060e-001
2.568826e+003,6.736724e-001
2.572683e+003,6.764529e-001
2.576540e+003,6.788318e-001
2.580397e+003,6.858998e-001
2.584254e+003,6.895157e-001
2.588112e+003,6.939042e-001
2.591969e+003,6.961795e-001
2.595826e+003,6.906441e-001
2.599683e+003,6.912073e-001
2.603540e+003,6.992105e-001
2.607397e+003,7.091540e-001
2.611254e+003,7.152053e-001
2.615111e+003,7.170972e-001
2.618968e+003,7.241215e-001
2.622825e+003,7.287859e-001
2.626682e+003,7.296290e-001
2.630540e+003,7.309158e-001
2.634397e+003,7.379279e-001
2.638254e+003,7.463963e-001
2.642111e+003,7.496836e-001
2.645968e+003,7.500879e-001
2.649825e+003,7.583320e-001
2.653682e+003,7.652481e-001
2.657539e+003,7.683875e-001
2.661396e+003,7.648953e-001
2.665253e+003,7.708695e-001
2.669111e+003,7.784931e-001
2.672968e+003,7.801585e-001
2.676825e+003,7.903978e-001
2.680682e+003,8.039648e-001
2.684539e+003,8.138670e-001
2.688396e+003,8.124883e-001
2.692253e+003,8.107390e-001
2.696110e+003,8.175470e-001
2.699967e+003,8.249588e-001
2.703824e+003,8.311146e-001
2.707681e+003,8.432065e-001
2.711539e+003,8.484652e-001
2.715396e+003,8.610098e-001
2.719253e+003,8.675612e-001
2.723110e+003,8.683823e-001
2.726967e+003,8.805020e-001
2.730824e+003,8.912445e-001
2.734681e+003,8.989768e-001
2.738538e+003,9.050772e-001
2.742395e+003,9.049826e-001
2.746252e+003,9.014951e-001
2.750110e+003,9.112529e-001
2.753967e+003,9.238224e-001
2.757824e+003,9.363074e-001
2.761681e+003,9.504790e-001
2.765538e+003,9.636602e-001
2.769395e+003,9.718240e-001
2.773252e+003,9.668291e-001
2.777109e+003,9.641633e-001
2.780966e+003,9.706780e-001
2.784823e+003,9.865906e-001
2.788680e+003,1.003135e+000
2.792538e+003,1.003280e+000
2.796395e+003,1.011740e+000
2.800252e+003,1.022983e+000
2.804109e+003,1.018658e+000
2.807966e+003,1.026489e+000
2.811823e+003,1.032012e+000
2.815680e+003,1.040498e+000
2.819537e+003,1.061849e+000
2.823394e+003,1.069013e+000
2.827251e+003,1.059581e+000
2.831109e+003,1.068613e+000
2.834966e+003,1.084686e+000
2.838823e+003,1.095508e+000
2.842680e+003,1.096455e+000
2.846537e+003,1.114865e+000
2.850394e+003,1.136937e+000
2.854251e+003,1.164359e+000
2.858108e+003,1.159724e+000
2.861965e+003,1.156933e+000
2.865823e+003,1.189533e+000
2.869679e+003,1.187090e+000
2.873537e+003,1.171343e+000
2.877394e+003,1.171242e+000
2.881251e+003,1.168590e+000
2.885108e+003,1.182208e+000
2.888965e+003,1.216202e+000
2.892822e+003,1.225587e+000
2.896679e+003,1.232596e+000
2.900536e+003,1.238459e+000
2.904393e+003,1.244978e+000
2.908250e+003,1.248184e+000
2.912108e+003,1.253368e+000
2.915965e+003,1.241840e+000
2.919822e+003,1.246745e+000
2.923679e+003,1.285757e+000
2.927536e+003,1.332081e+000
2.931393e+003,1.331687e+000
2.935250e+003,1.317744e+000
2.939107e+003,1.314948e+000
2.942964e+003,1.324992e+000
2.946822e+003,1.349824e+000
2.950678e+003,1.379248e+000
2.954536e+003,1.397772e+000
2.958393e+003,1.402336e+000
2.962250e+003,1.399140e+000
2.966107e+003,1.401109e+000
2.969964e+003,1.421313e+000
2.973821e+003,1.446184e+000
2.977678e+003,1.435454e+000
2.981535e+003,1.434831e+000
2.985392e+003,1.465072e+000
2.989250e+003,1.496281e+000
2.993107e+003,1.488638e+000
2.996964e+003,1.465752e+000
3.000821e+003,1.480560e+000
3.004678e+003,1.490929e+000
3.008535e+003,1.515702e+000
3.012392e+003,1.511456e+000
3.016249e+003,1.499768e+000
3.020106e+003,1.550809e+000
3.023963e+003,1.592017e+000
3.027821e+003,1.584867e+000
3.031677e+003,1.548010e+000
3.035535e+003,1.528294e+000
3.039392e+003,1.517947e+000
3.043249e+003,1.536399e+000
3.047106e+003,1.555632e+000
3.050963e+003,1.559794e+000
3.054820e+003,1.586981e+000
3.058677e+003,1.606170e+000
3.062534e+003,1.652007e+000
3.066391e+003,1.653709e+000
3.070249e+003,1.629846e+000
3.074106e+003,1.648413e+000
3.077963e+003,1.654194e+000
3.081820e+003,1.666004e+000
3.085677e+003,1.693327e+000
3.089534e+003,1.688077e+000
3.093391e+003,1.693396e+000
3.097248e+003,1.706717e+000
3.101105e+003,1.741571e+000
3.104962e+003,1.777200e+000
3.108820e+003,1.755730e+000
3.112677e+003,1.729753e+000
3.116534e+003,1.732017e+000
3.120391e+003,1.818661e+000
3.124248e+003,1.856089e+000
3.128105e+003,1.747755e+000
3.131962e+003,1.705144e+000
3.135819e+003,1.686088e+000
3.139676e+003,1.748130e+000
3.143533e+003,1.755216e+000
3.147390e+003,1.765409e+000
3.151248e+003,1.844879e+000
3.155105e+003,1.833828e+000
3.158962e+003,1.797986e+000
3.162819e+003,1.885771e+000
3.166676e+003,1.887111e+000
3.170533e+003,1.838619e+000
3.174390e+003,1.842574e+000
3.178247e+003,1.793553e+000
3.182104e+003,1.845083e+000
3.185961e+003,1.918064e+000
3.189819e+003,1.871360e+000
3.193676e+003,1.846515e+000
3.197533e+003,1.841924e+000
3.201390e+003,1.869199e+000
3.205247e+003,1.883004e+000
3.209104e+003,1.804019e+000
3.212961e+003,1.849925e+000
3.216818e+003,1.881569e+000
3.220675e+003,1.881995e+000
3.224532e+003,1.905818e+000
3.228389e+003,1.876325e+000
3.232247e+003,1.892137e+000
3.236104e+003,1.881381e+000
3.239961e+003,1.906418e+000
3.243818e+003,1.900497e+000
3.247675e+003,1.792848e+000
3.251532e+003,1.802589e+000
3.255389e+003,1.894984e+000
3.259246e+003,1.962150e+000
3.263103e+003,1.922339e+000
3.266960e+003,1.851690e+000
3.270818e+003,1.823478e+000
3.274675e+003,1.876632e+000
3.278532e+003,1.867691e+000
3.282389e+003,1.854462e+000
3.286246e+003,1.768243e+000
3.290103e+003,1.794291e+000
3.293960e+003,1.976981e+000
3.297817e+003,1.952318e+000
3.301674e+003,1.844050e+000
3.305531e+003,1.757157e+000
3.309388e+003,1.809515e+000
3.313246e+003,1.889841e+000
3.317103e+003,1.989130e+000
3.320960e+003,1.976569e+000
3.324817e+003,1.834485e+000
3.328674e+003,1.900862e+000
3.332531e+003,1.939748e+000
3.336388e+003,1.888187e+000
3.340245e+003,1.968516e+000
3.344102e+003,2.049160e+000
3.347959e+003,1.985918e+000
3.351817e+003,1.961471e+000
3.355674e+003,1.995909e+000
3.359531e+003,1.962525e+000
3.363388e+003,1.920035e+000
3.367245e+003,1.832656e+000
3.371102e+003,1.801757e+000
3.374959e+003,1.888113e+000
3.378816e+003,1.938379e+000
3.382673e+003,1.898972e+000
3.386530e+003,1.967074e+000
3.390387e+003,1.984667e+000
3.394245e+003,1.979642e+000
3.398102e+003,1.937899e+000
3.401959e+003,1.950045e+000
3.405816e+003,1.954661e+000
3.409673e+003,1.937542e+000
3.413530e+003,1.921620e+000
3.417387e+003,1.972190e+000
3.421244e+003,1.961033e+000
3.425101e+003,1.917076e+000
3.428958e+003,2.039879e+000
3.432815e+003,2.047080e+000
3.436673e+003,1.935606e+000
3.440530e+003,1.875054e+000
3.444387e+003,1.923887e+000
3.448244e+003,1.893721e+000
3.452101e+003,1.845298e+000
3.455958e+003,1.893229e+000
3.459815e+003,1.892534e+000
3.463672e+003,1.873428e+000
3.467529e+003,1.951157e+000
3.471386e+003,2.221584e+000
3.475244e+003,2.138430e+000
3.479101e+003,2.047558e+000
3.482958e+003,2.079531e+000
3.486815e+003,2.066557e+000
3.490672e+003,1.989198e+000
3.494529e+003,1.956210e+000
3.498386e+003,1.904234e+000
3.502243e+003,1.769876e+000
3.506100e+003,1.819250e+000
3.509958e+003,1.939695e+000
3.513814e+003,1.867059e+000
3.517672e+003,1.871847e+000
3.521529e+003,1.953026e+000
3.525386e+003,1.883558e+000
3.529243e+003,1.814070e+000
3.533100e+003,1.879215e+000
3.536957e+003,2.041934e+000
3.540814e+003,2.161187e+000
3.544671e+003,2.139684e+000
3.548528e+003,2.023008e+000
3.552385e+003,1.931937e+000
3.556243e+003,1.987162e+000
3.560100e+003,2.069584e+000
3.563957e+003,1.978418e+000
3.567814e+003,1.901042e+000
3.571671e+003,2.088432e+000
3.575528e+003,2.061929e+000
3.579385e+003,1.971658e+000
3.583242e+003,1.921871e+000
3.587099e+003,1.864218e+000
3.590957e+003,1.775117e+000
3.594813e+003,1.744378e+000
3.598671e+003,1.819230e+000
3.602528e+003,1.925331e+000
3.606385e+003,2.012147e+000
3.610242e+003,1.900326e+000
3.614099e+003,1.935398e+000
3.617956e+003,1.870980e+000
3.621813e+003,1.744279e+000
3.625670e+003,1.665328e+000
3.629527e+003,1.649931e+000
3.633385e+003,1.703391e+000
3.637242e+003,1.649110e+000
3.641099e+003,1.556711e+000
3.644956e+003,1.431912e+000
3.648813e+003,1.317008e+000
3.652670e+003,1.214405e+000
3.656527e+003,1.106625e+000
3.660384e+003,1.019159e+000
3.664241e+003,9.495091e-001
3.668098e+003,8.845065e-001
3.671956e+003,8.171610e-001
3.675813e+003,7.569410e-001
3.679670e+003,7.057491e-001
3.683527e+003,6.566373e-001
3.687384e+003,6.137142e-001
3.691241e+003,5.811881e-001
3.695098e+003,5.572291e-001
3.698955e+003,5.286099e-001
3.702812e+003,5.024383e-001
3.706669e+003,4.838266e-001
3.710526e+003,4.750980e-001
3.714384e+003,4.657619e-001
3.718241e+003,4.526418e-001
3.722098e+003,4.429830e-001
3.725955e+003,4.322851e-001
3.729812e+003,4.246460e-001
3.733669e+003,4.165963e-001
3.737526e+003,4.123872e-001
3.741383e+003,4.118395e-001
3.745240e+003,4.068935e-001
3.749097e+003,4.007621e-001
3.752955e+003,3.955775e-001
3.756812e+003,3.907051e-001
3.760669e+003,3.856829e-001
3.764526e+003,3.867046e-001
3.768383e+003,3.862657e-001
3.772240e+003,3.841224e-001
3.776097e+003,3.836696e-001
3.779954e+003,3.827859e-001
3.783811e+003,3.790893e-001
3.787668e+003,3.757991e-001
3.791525e+003,3.750133e-001
3.795383e+003,3.740920e-001
3.799240e+003,3.736393e-001
3.803097e+003,3.732419e-001
3.806954e+003,3.732131e-001
3.810811e+003,3.727824e-001
3.814668e+003,3.729484e-001
3.818525e+003,3.692365e-001
3.822382e+003,3.646281e-001
3.826239e+003,3.675460e-001
3.830096e+003,3.746061e-001
3.833954e+003,3.741284e-001
3.837811e+003,3.665566e-001
3.841668e+003,3.600509e-001
3.845525e+003,3.593940e-001
3.849382e+003,3.628028e-001
3.853239e+003,3.652689e-001
3.857096e+003,3.648487e-001
3.860953e+003,3.642502e-001
3.864810e+003,3.654621e-001
3.868667e+003,3.660378e-001
3.872524e+003,3.694058e-001
3.876382e+003,3.678400e-001
3.880239e+003,3.609398e-001
3.884096e+003,3.608557e-001
3.887953e+003,3.623079e-001
3.891810e+003,3.565466e-001
3.895667e+003,3.519830e-001
3.899524e+003,3.531154e-001
3.903381e+003,3.556688e-001
3.907238e+003,3.595758e-001
3.911095e+003,3.626009e-001
3.914953e+003,3.609130e-001
3.918810e+003,3.594267e-001
3.922667e+003,3.573343e-001
3.926524e+003,3.547563e-001
3.930381e+003,3.578026e-001
3.934238e+003,3.616625e-001
3.938095e+003,3.613903e-001
3.941952e+003,3.614868e-001
3.945809e+003,3.604359e-001
3.949667e+003,3.563592e-001
3.953523e+003,3.525736e-001
3.957381e+003,3.489110e-001
3.961238e+003,3.485384e-001
3.965095e+003,3.508551e-001
3.968952e+003,3.519817e-001
3.972809e+003,3.563561e-001
3.976666e+003,3.574641e-001
3.980523e+003,3.535196e-001
3.984380e+003,3.540421e-001
3.988237e+003,3.533658e-001
3.992094e+003,3.524549e-001
3.995952e+003,3.512080e-001
3.999809e+003,3.495936e-001
4.003666e+003,3.511486e-001
4.007523e+003,3.492419e-001
4.011380e+003,3.468353e-001
4.015237e+003,3.474757e-001
4.019094e+003,3.483227e-001
4.022951e+003,3.487196e-001
4.026808e+003,3.490202e-001
4.030666e+003,3.519873e-001
4.034522e+003,3.514236e-001
4.038380e+003,3.504024e-001
4.042237e+003,3.462832e-001
4.046094e+003,3.452887e-001
4.049951e+003,3.516172e-001
4.053808e+003,3.528479e-001
4.057665e+003,3.479303e-001
4.061522e+003,3.448659e-001
4.065379e+003,3.424912e-001
4.069236e+003,3.408733e-001
4.073094e+003,3.395903e-001
4.076951e+003,3.437090e-001
4.080808e+003,3.445234e-001
4.084665e+003,3.410892e-001
4.088522e+003,3.393331e-001
4.092379e+003,3.428045e-001
4.096236e+003,3.469490e-001
4.100093e+003,3.487834e-001
4.103950e+003,3.475854e-001
4.107808e+003,3.427843e-001
4.111665e+003,3.362296e-001
4.115521e+003,3.377115e-001
4.119379e+003,3.423790e-001
4.123236e+003,3.379690e-001
4.127093e+003,3.319308e-001
4.130950e+003,3.361040e-001
4.134807e+003,3.375458e-001
4.138664e+003,3.356748e-001
4.142521e+003,3.339710e-001
4.146378e+003,3.338080e-001
4.150235e+003,3.330078e-001
4.154093e+003,3.304842e-001
4.157950e+003,3.327262e-001
4.161807e+003,3.299885e-001
4.165664e+003,3.287102e-001
4.169521e+003,3.306765e-001
4.173378e+003,3.302684e-001
4.177235e+003,3.326774e-001
4.181092e+003,3.350798e-001
4.184949e+003,3.335009e-001
4.188807e+003,3.283486e-001
4.192664e+003,3.262365e-001
4.196521e+003,3.248999e-001
4.200378e+003,3.216954e-001
4.204235e+003,3.236296e-001
4.208092e+003,3.268070e-001
4.211949e+003,3.279225e-001
4.215806e+003,3.279871e-001
4.219663e+003,3.261974e-001
4.223521e+003,3.270133e-001
4.227377e+003,3.273154e-001
4.231234e+003,3.212671e-001
4.235092e+003,3.172787e-001
4.238949e+003,3.206203e-001
4.242806e+003,3.204008e-001
4.246663e+003,3.207267e-001
4.250520e+003,3.249618e-001
4.254377e+003,3.308183e-001
4.258234e+003,3.320199e-001
4.262091e+003,3.300857e-001
4.265948e+003,3.285190e-001
4.269806e+003,3.257419e-001
4.273663e+003,3.215444e-001
4.277520e+003,3.177764e-001
4.281377e+003,3.215699e-001
4.285234e+003,3.230462e-001
4.289091e+003,3.211032e-001
4.292948e+003,3.217987e-001
4.296805e+003,3.269905e-001
4.300662e+003,3.320779e-001
4.304520e+003,3.316333e-001
4.308376e+003,3.290161e-001
4.312233e+003,3.218310e-001
4.316091e+003,3.178523e-001
4.319948e+003,3.169129e-001
4.323805e+003,3.178280e-001
4.327662e+003,3.194749e-001
4.331519e+003,3.255624e-001
4.335376e+003,3.274687e-001
4.339233e+003,3.276329e-001
4.343090e+003,3.319243e-001
4.346947e+003,3.329422e-001
4.350805e+003,3.309094e-001
4.354662e+003,3.252279e-001
4.358519e+003,3.247414e-001
4.362376e+003,3.263551e-001
4.366233e+003,3.253897e-001
4.370090e+003,3.260513e-001
4.373947e+003,3.237969e-001
4.377804e+003,3.232088e-001
4.381661e+003,3.218493e-001
4.385519e+003,3.215321e-001
4.389375e+003,3.263109e-001
4.393232e+003,3.319884e-001
4.397090e+003,3.310055e-001
4.400947e+003,3.198841e-001
4.404804e+003,3.174362e-001
4.408661e+003,3.288255e-001
4.412518e+003,3.363902e-001
4.416375e+003,3.357407e-001
4.420232e+003,3.339955e-001
4.424089e+003,3.334443e-001
4.427946e+003,3.354625e-001
4.431804e+003,3.374213e-001
4.435661e+003,3.389547e-001
4.439518e+003,3.386753e-001
4.443375e+003,3.331589e-001
4.447232e+003,3.294667e-001
4.451089e+003,3.298070e-001
4.454946e+003,3.334077e-001
4.458803e+003,3.358015e-001
4.462660e+003,3.313511e-001
4.466518e+003,3.258159e-001
4.470375e+003,3.296209e-001
4.474231e+003,3.338593e-001
4.478089e+003,3.344901e-001
4.481946e+003,3.364928e-001
4.485803e+003,3.378008e-001
4.489660e+003,3.301152e-001
4.493517e+003,3.243109e-001
4.497375e+003,3.223844e-001
4.501231e+003,3.291706e-001
4.505088e+003,3.326406e-001
4.508946e+003,3.277551e-001
4.512803e+003,3.274964e-001
4.516660e+003,3.285719e-001
4.520517e+003,3.302500e-001
4.524374e+003,3.334676e-001
4.528231e+003,3.373470e-001
4.532088e+003,3.392951e-001
4.535945e+003,3.339705e-001
4.539802e+003,3.309913e-001
4.543660e+003,3.291914e-001
4.547517e+003,3.260989e-001
4.551374e+003,3.295937e-001
4.555231e+003,3.321756e-001
4.559088e+003,3.325791e-001
4.562945e+003,3.314112e-001
4.566802e+003,3.269970e-001
4.570659e+003,3.209010e-001
4.574516e+003,3.208849e-001
4.578374e+003,3.151703e-001
4.582230e+003,3.109131e-001
4.586087e+003,3.106337e-001
4.589945e+003,3.105123e-001
4.593802e+003,3.128793e-001
4.597659e+003,3.135164e-001
4.601516e+003,3.151335e-001
4.605373e+003,3.140036e-001
4.609230e+003,3.178060e-001
4.613087e+003,3.243328e-001
4.616944e+003,3.251090e-001
4.620801e+003,3.186213e-001
4.624659e+003,3.131631e-001
4.628516e+003,3.168229e-001
4.632373e+003,3.204743e-001
4.636230e+003,3.177601e-001
4.640087e+003,3.175675e-001
4.643944e+003,3.165551e-001
4.647801e+003,3.153122e-001
4.651658e+003,3.105064e-001
4.655515e+003,3.080035e-001
4.659373e+003,3.151004e-001
4.663229e+003,3.185076e-001
4.667086e+003,3.186846e-001
4.670944e+003,3.169592e-001
4.674801e+003,3.148840e-001
4.678658e+003,3.196981e-001
4.682515e+003,3.199471e-001
4.686372e+003,3.170731e-001
4.690229e+003,3.195128e-001
4.694086e+003,3.181100e-001
4.697943e+003,3.196856e-001
4.701800e+003,3.234502e-001
4.705658e+003,3.243819e-001
4.709515e+003,3.165027e-001
4.713372e+003,3.089771e-001
4.717229e+003,3.111300e-001
4.721086e+003,3.138974e-001
4.724943e+003,3.155556e-001
4.728800e+003,3.177010e-001
4.732657e+003,3.163542e-001
4.736514e+003,3.164924e-001
4.740372e+003,3.110121e-001
4.744229e+003,3.172787e-001
4.748085e+003,3.246273e-001
4.751943e+003,3.210973e-001
4.755800e+003,3.173837e-001
4.759657e+003,3.167960e-001
4.763514e+003,3.170089e-001
4.767371e+003,3.183521e-001
4.771228e+003,3.184215e-001
4.775085e+003,3.172139e-001
4.778942e+003,3.145358e-001
4.782799e+003,3.146009e-001
4.786657e+003,3.204974e-001
4.790514e+003,3.141581e-001
4.794371e+003,3.112545e-001
4.798228e+003,3.139913e-001
4.802085e+003,3.109992e-001
4.805942e+003,3.142260e-001
4.809799e+003,3.192201e-001
4.813656e+003,3.218099e-001
4.817513e+003,3.156050e-001
4.821371e+003,3.164583e-001
4.825228e+003,3.256827e-001
4.829084e+003,3.245970e-001
4.832942e+003,3.161749e-001
4.836799e+003,3.128516e-001
4.840656e+003,3.116240e-001
4.844513e+003,3.156465e-001
4.848370e+003,3.196384e-001
4.852227e+003,3.202775e-001
4.856084e+003,3.215523e-001
4.859941e+003,3.186989e-001
4.863798e+003,3.155577e-001
4.867656e+003,3.222648e-001
4.871513e+003,3.292558e-001
4.875370e+003,3.253748e-001
4.879227e+003,3.166917e-001
4.883084e+003,3.139214e-001
4.886941e+003,3.204587e-001
4.890798e+003,3.237705e-001
4.894655e+003,3.177941e-001
4.898512e+003,3.151535e-001
4.902370e+003,3.194356e-001
4.906227e+003,3.205325e-001
4.910083e+003,3.258675e-001
4.913941e+003,3.292550e-001
4.917798e+003,3.237338e-001
4.921655e+003,3.198542e-001
4.925512e+003,3.145717e-001
4.929369e+003,3.163841e-001
4.933226e+003,3.276595e-001
4.937083e+003,3.377295e-001
4.940940e+003,3.336638e-001
4.944797e+003,3.256750e-001
4.948655e+003,3.273924e-001
4.952512e+003,3.315669e-001
4.956369e+003,3.234564e-001
4.960226e+003,3.219684e-001
4.964083e+003,3.243911e-001
4.967940e+003,3.204964e-001
4.971797e+003,3.212124e-001
4.975654e+003,3.220407e-001
4.979511e+003,3.288652e-001
4.983369e+003,3.332910e-001
4.987226e+003,3.290881e-001
4.991083e+003,3.245008e-001
4.994940e+003,3.282121e-001
4.998797e+003,3.338832e-001
5.002654e+003,3.276578e-001
5.006511e+003,3.229170e-001
5.010368e+003,3.227458e-001
5.014225e+003,3.312683e-001
5.018083e+003,3.315336e-001
5.021939e+003,3.218096e-001
5.025796e+003,3.258340e-001
5.029654e+003,3.290510e-001
5.033511e+003,3.275867e-001
5.037368e+003,3.300599e-001
5.041225e+003,3.296112e-001
5.045082e+003,3.317188e-001
5.048939e+003,3.371979e-001
5.052796e+003,3.336883e-001
5.056653e+003,3.355066e-001
5.060510e+003,3.395379e-001
5.064368e+003,3.331472e-001
5.068225e+003,3.340338e-001
5.072082e+003,3.323382e-001
5.075939e+003,3.323083e-001
5.079796e+003,3.315356e-001
5.083653e+003,3.275532e-001
5.087510e+003,3.335222e-001
5.091367e+003,3.349251e-001
5.095224e+003,3.314452e-001
5.099082e+003,3.294910e-001
5.102938e+003,3.261766e-001
5.106795e+003,3.221155e-001
5.110653e+003,3.260064e-001
5.114510e+003,3.377486e-001
5.118367e+003,3.432358e-001
5.122224e+003,3.413090e-001
5.126081e+003,3.408746e-001
5.129938e+003,3.346694e-001
5.133795e+003,3.359016e-001
5.137652e+003,3.388020e-001
5.141509e+003,3.333327e-001
5.145367e+003,3.365090e-001
5.149224e+003,3.389700e-001
5.153081e+003,3.398578e-001
5.156938e+003,3.447089e-001
5.160795e+003,3.478493e-001
5.164652e+003,3.474214e-001
5.168509e+003,3.444736e-001
5.172366e+003,3.377798e-001
5.176223e+003,3.289521e-001
5.180081e+003,3.256212e-001
5.183938e+003,3.342672e-001
5.187794e+003,3.427746e-001
5.191652e+003,3.493591e-001
5.195509e+003,3.458560e-001
5.199366e+003,3.376438e-001
5.203223e+003,3.356748e-001
5.207080e+003,3.367798e-001
5.210937e+003,3.334084e-001
5.214794e+003,3.412843e-001
5.218651e+003,3.424895e-001
5.222508e+003,3.397684e-001
5.226366e+003,3.410581e-001
5.230223e+003,3.435133e-001
5.234080e+003,3.435095e-001
5.237937e+003,3.429313e-001
5.241794e+003,3.370569e-001
5.245651e+003,3.408006e-001
5.249508e+003,3.347974e-001
5.253365e+003,3.272767e-001
5.257222e+003,3.261238e-001
5.261080e+003,3.257401e-001
5.264937e+003,3.263038e-001
5.268793e+003,3.259772e-001
5.272651e+003,3.235915e-001
5.276508e+003,3.230371e-001
5.280365e+003,3.282811e-001
5.284222e+003,3.305597e-001
5.288079e+003,3.307647e-001
5.291936e+003,3.275001e-001
5.295793e+003,3.266777e-001
5.299650e+003,3.307039e-001
5.303507e+003,3.276334e-001
5.307365e+003,3.176491e-001
5.311222e+003,3.149489e-001
5.315079e+003,3.174098e-001
5.318936e+003,3.164334e-001
5.322793e+003,3.160680e-001
5.326650e+003,3.063952e-001
5.330507e+003,3.130115e-001
5.334364e+003,3.289481e-001
5.338221e+003,3.224405e-001
5.342079e+003,3.121878e-001
5.345936e+003,3.201168e-001
5.349792e+003,3.205212e-001
5.353650e+003,3.154548e-001
5.357507e+003,3.248517e-001
5.361364e+003,3.302029e-001
5.365221e+003,3.222448e-001
5.369078e+003,3.201649e-001
5.372935e+003,3.308908e-001
5.376792e+003,3.341637e-001
5.380649e+003,3.328888e-001
5.384506e+003,3.300124e-001
5.388364e+003,3.267708e-001
5.392221e+003,3.238482e-001
5.396078e+003,3.211603e-001
5.399935e+003,3.138282e-001
5.403792e+003,3.154483e-001
5.407649e+003,3.172295e-001
5.411506e+003,3.241487e-001
5.415363e+003,3.263764e-001
5.419220e+003,3.177436e-001
5.423078e+003,3.166029e-001
5.426935e+003,3.173487e-001
5.430792e+003,3.206339e-001
5.434649e+003,3.144711e-001
5.438506e+003,3.076636e-001
5.442363e+003,3.097960e-001
5.446220e+003,3.127153e-001
5.450077e+003,3.151661e-001
5.453934e+003,3.124439e-001
5.457792e+003,3.194039e-001
5.461648e+003,3.229276e-001
5.465505e+003,3.273600e-001
5.469363e+003,3.266872e-001
5.473220e+003,3.192100e-001
5.477077e+003,3.125928e-001
5.480934e+003,3.088271e-001
5.484791e+003,3.150438e-001
5.488648e+003,3.221465e-001
5.492505e+003,3.303275e-001
5.496362e+003,3.262051e-001
5.500219e+003,3.235904e-001
5.504077e+003,3.366173e-001
5.507934e+003,3.282363e-001
5.511791e+003,3.143098e-001
5.515648e+003,3.180518e-001
5.519505e+003,3.212945e-001
5.523362e+003,3.108458e-001
5.527219e+003,3.122486e-001
5.531076e+003,3.159034e-001
5.534933e+003,3.185902e-001
5.538791e+003,3.138645e-001
5.542647e+003,3.073522e-001
5.546504e+003,3.110442e-001
5.550362e+003,3.064837e-001
5.554219e+003,3.088757e-001
5.558076e+003,3.170893e-001
5.561933e+003,3.247219e-001
5.565790e+003,3.293390e-001
5.569647e+003,3.171498e-001
5.573504e+003,3.096322e-001
5.577361e+003,3.149489e-001
5.581218e+003,3.123190e-001
5.585076e+003,3.100924e-001
5.588933e+003,3.257808e-001
5.592790e+003,3.313520e-001
5.596647e+003,3.233874e-001
5.600504e+003,3.171395e-001
5.604361e+003,3.159881e-001
5.608218e+003,3.222554e-001
5.612075e+003,3.259282e-001
5.615932e+003,3.225840e-001
5.619790e+003,3.163336e-001
5.623646e+003,3.132669e-001
5.627503e+003,3.119201e-001
5.631361e+003,3.089137e-001
5.635218e+003,3.032357e-001
5.639075e+003,3.036624e-001
5.642932e+003,3.146344e-001
5.646789e+003,3.232144e-001
5.650646e+003,3.180126e-001
5.654503e+003,3.076159e-001
5.658360e+003,3.028223e-001
5.662217e+003,3.033285e-001
5.666075e+003,3.100627e-001
5.669932e+003,3.105818e-001
5.673789e+003,3.082353e-001
5.677646e+003,3.122156e-001
5.681503e+003,3.121798e-001
5.685360e+003,3.038430e-001
5.689217e+003,3.019169e-001
5.693074e+003,3.047902e-001
5.696931e+003,2.983448e-001
5.700789e+003,2.975988e-001
5.704646e+003,3.070227e-001
5.708502e+003,3.100806e-001
5.712360e+003,3.045800e-001
5.716217e+003,3.139469e-001
5.720074e+003,3.146747e-001
5.723931e+003,3.059263e-001
5.727788e+003,3.110089e-001
5.731645e+003,3.143140e-001
5.735502e+003,3.078198e-001
5.739359e+003,3.072694e-001
5.743216e+003,3.086931e-001
5.747074e+003,3.072869e-001
5.750931e+003,3.070309e-001
5.754788e+003,3.064992e-001
5.758645e+003,3.084987e-001
5.762502e+003,3.103743e-001
5.766359e+003,3.091951e-001
5.770216e+003,3.133359e-001
5.774073e+003,3.149681e-001
5.777930e+003,3.038296e-001
5.781788e+003,3.069689e-001
5.785645e+003,3.110029e-001
5.789501e+003,3.098299e-001
5.793359e+003,3.146138e-001
5.797216e+003,3.196393e-001
5.801073e+003,3.155031e-001
5.804930e+003,3.001976e-001
5.808787e+003,3.032770e-001
5.812644e+003,3.079278e-001
5.816501e+003,2.994238e-001
5.820358e+003,3.045196e-001
5.824215e+003,3.058420e-001
5.828073e+003,2.964329e-001
5.831930e+003,3.056346e-001
5.835787e+003,3.209925e-001
5.839644e+003,3.155822e-001
5.843501e+003,3.066813e-001
5.847358e+003,3.084237e-001
5.851215e+003,3.089502e-001
5.855072e+003,3.026518e-001
5.858929e+003,3.010678e-001
5.862787e+003,3.056108e-001
5.866644e+003,3.184406e-001
5.870500e+003,3.233894e-001
5.874358e+003,3.089215e-001
5.878215e+003,2.973395e-001
5.882072e+003,3.052897e-001
5.885929e+003,3.116073e-001
5.889786e+003,3.044018e-001
5.893643e+003,3.102600e-001
5.897500e+003,3.124616e-001
5.901357e+003,3.022203e-001
5.905214e+003,3.050923e-001
5.909072e+003,3.108541e-001
5.912929e+003,3.096248e-001
5.916786e+003,3.085113e-001
5.920643e+003,3.017610e-001
5.924500e+003,3.059702e-001
5.928357e+003,3.003426e-001
5.932214e+003,2.907393e-001
5.936071e+003,2.901001e-001
5.939928e+003,2.912882e-001
5.943786e+003,3.067591e-001
5.947643e+003,3.197161e-001
5.951500e+003,3.172648e-001
5.955357e+003,3.131961e-001
5.959214e+003,3.104948e-001
5.963071e+003,3.142916e-001
5.966928e+003,3.163775e-001
5.970785e+003,3.195681e-001
5.974642e+003,3.079220e-001
5.978500e+003,2.988446e-001
5.982356e+003,2.926091e-001
5.986213e+003,2.864136e-001
5.990071e+003,3.028048e-001
5.993928e+003,3.119462e-001
5.997785e+003,3.086240e-001
6.001642e+003,3.026265e-001
6.005499e+003,3.028163e-001
6.009356e+003,3.103671e-001
6.013213e+003,3.090202e-001
6.017070e+003,2.932581e-001
6.020927e+003,3.028508e-001
6.024785e+003,3.197957e-001
6.028642e+003,3.112722e-001
6.032499e+003,3.076374e-001
6.036356e+003,3.150474e-001
6.040213e+003,3.077841e-001
6.044070e+003,3.023745e-001
6.047927e+003,3.075591e-001
6.051784e+003,3.069945e-001
6.055641e+003,3.102465e-001
6.059499e+003,3.087720e-001
6.063355e+003,3.017853e-001
6.067212e+003,2.969934e-001
6.071070e+003,3.027852e-001
6.074927e+003,3.083756e-001
6.078784e+003,3.080693e-001
6.082641e+003,3.049868e-001
6.086498e+003,3.081576e-001
6.090355e+003,2.935639e-001
6.094212e+003,2.858116e-001
6.098069e+003,2.923296e-001
6.101926e+003,2.900764e-001
6.105784e+003,2.976926e-001
6.109641e+003,3.076999e-001
6.113498e+003,3.055782e-001
6.117355e+003,3.116842e-001
6.121212e+003,3.197584e-001
6.125069e+003,3.164975e-001
6.128926e+003,2.943435e-001
6.132783e+003,2.816529e-001
6.136640e+003,3.010155e-001
6.140498e+003,2.995873e-001
6.144354e+003,2.856243e-001
6.148211e+003,2.823983e-001
6.152069e+003,2.898302e-001
6.155926e+003,3.057411e-001
6.159783e+003,3.043025e-001
6.163640e+003,2.962795e-001
6.167497e+003,3.076301e-001
6.171354e+003,3.067040e-001
6.175211e+003,3.159896e-001
6.179068e+003,3.013389e-001
6.182925e+003,2.882308e-001
6.186783e+003,2.964584e-001
6.190640e+003,2.960033e-001
6.194497e+003,3.000233e-001
6.198354e+003,3.006009e-001
6.202211e+003,3.005582e-001
6.206068e+003,2.958916e-001
6.209925e+003,2.906077e-001
6.213782e+003,2.870972e-001
6.217639e+003,2.989042e-001
6.221497e+003,3.022966e-001
6.225354e+003,2.939385e-001
6.229210e+003,2.940090e-001
6.233068e+003,3.028014e-001
6.236925e+003,2.976814e-001
6.240782e+003,2.874449e-001
6.244639e+003,2.922652e-001
6.248496e+003,3.060704e-001
6.252353e+003,3.068399e-001
6.256210e+003,2.973957e-001
6.260067e+003,3.002551e-001
6.263924e+003,3.059435e-001
6.267782e+003,2.918565e-001
6.271639e+003,2.828033e-001
6.275496e+003,2.909345e-001
6.279353e+003,2.958761e-001
6.283210e+003,2.827590e-001
6.287067e+003,2.854484e-001
6.290924e+003,2.902625e-001
6.294781e+003,2.930243e-001
6.298638e+003,3.159492e-001
6.302496e+003,3.252184e-001
6.306353e+003,3.192362e-001
6.310209e+003,3.186313e-001
6.314067e+003,3.115683e-001
6.317924e+003,2.907140e-001
6.321781e+003,2.843768e-001
6.325638e+003,2.969751e-001
6.329495e+003,3.024928e-001
6.333352e+003,2.978283e-001
6.337209e+003,3.032185e-001
6.341066e+003,3.076821e-001
6.344923e+003,3.031937e-001
6.348780e+003,2.939665e-001
6.352638e+003,2.866417e-001
6.356495e+003,2.928399e-001
6.360352e+003,2.992903e-001
6.364209e+003,2.882111e-001
6.368066e+003,2.810279e-001
6.371923e+003,2.768699e-001
6.375780e+003,2.735093e-001
6.379637e+003,2.880049e-001
6.383494e+003,2.978810e-001
6.387352e+003,2.938832e-001
6.391208e+003,2.931481e-001
6.395065e+003,2.923690e-001
6.398923e+003,3.006120e-001
6.402780e+003,3.182829e-001
6.406637e+003,3.091326e-001
6.410494e+003,2.948553e-001
6.414351e+003,3.003466e-001
6.418208e+003,3.165803e-001
6.422065e+003,2.966429e-001
6.425922e+003,2.786370e-001
6.429779e+003,2.822128e-001
6.433637e+003,2.753727e-001
6.437494e+003,2.758067e-001
6.441351e+003,2.843690e-001
6.445208e+003,2.916625e-001
6.449065e+003,2.882589e-001
6.452922e+003,2.928465e-001
6.456779e+003,2.929812e-001
6.460636e+003,2.998006e-001
6.464493e+003,3.068470e-001
6.468351e+003,3.117876e-001
6.472208e+003,3.052827e-001
6.476064e+003,3.095774e-001
6.479922e+003,3.188913e-001
6.483779e+003,3.038947e-001
6.487636e+003,2.916902e-001
6.491493e+003,3.037095e-001
6.495350e+003,3.136313e-001
6.499207e+003,3.184149e-001
6.503064e+003,3.188394e-001
6.506921e+003,3.035184e-001
6.510778e+003,2.894676e-001
6.514636e+003,2.846332e-001
6.518493e+003,2.651888e-001
6.522350e+003,2.647704e-001
6.526207e+003,2.954752e-001
6.530064e+003,3.037907e-001
6.533921e+003,2.955951e-001
6.537778e+003,2.902645e-001
6.541635e+003,2.886419e-001
6.545492e+003,3.081939e-001
6.549350e+003,3.310119e-001
6.553207e+003,3.398406e-001
6.557063e+003,3.163850e-001
6.560921e+003,2.942153e-001
6.564778e+003,2.898648e-001
6.568635e+003,2.805525e-001
6.572492e+003,2.831927e-001
6.576349e+003,2.979104e-001
6.580206e+003,3.106532e-001
6.584063e+003,3.108172e-001
6.587920e+003,2.903477e-001
6.591777e+003,2.779988e-001
6.595635e+003,2.931880e-001
6.599492e+003,3.016511e-001
6.603349e+003,2.912606e-001
6.607206e+003,2.882954e-001
6.611063e+003,3.066338e-001
6.614920e+003,3.157312e-001
6.618777e+003,3.081380e-001
6.622634e+003,3.101275e-001
6.626491e+003,3.065568e-001
6.630349e+003,2.992023e-001
6.634206e+003,2.961504e-001
6.638063e+003,2.953357e-001
6.641920e+003,2.926789e-001
6.645777e+003,2.914553e-001
6.649634e+003,3.071262e-001
6.653491e+003,3.224565e-001
6.657348e+003,3.149659e-001
6.661205e+003,2.829639e-001
6.665063e+003,2.787997e-001
6.668919e+003,2.968184e-001
6.672776e+003,3.234559e-001
6.676634e+003,3.218471e-001
6.680491e+003,2.965833e-001
6.684348e+003,2.978147e-001
6.688205e+003,3.001074e-001
6.692062e+003,3.071148e-001
6.695919e+003,3.114936e-001
6.699776e+003,3.101259e-001
6.703633e+003,2.986106e-001
6.707490e+003,2.979963e-001
6.711348e+003,3.018680e-001
6.715205e+003,3.016826e-001
6.719062e+003,2.886169e-001
6.722919e+003,2.976847e-001
6.726776e+003,3.133662e-001
6.730633e+003,2.994962e-001
6.734490e+003,2.773225e-001
6.738347e+003,2.904191e-001
6.742204e+003,2.922885e-001
6.746062e+003,2.814282e-001
6.749918e+003,2.790458e-001
6.753775e+003,2.998477e-001
6.757633e+003,3.229325e-001
6.761490e+003,3.010234e-001
6.765347e+003,2.815817e-001
6.769204e+003,2.848020e-001
6.773061e+003,3.039577e-001
6.776918e+003,3.229956e-001
6.780775e+003,3.070105e-001
6.784632e+003,2.974683e-001
6.788489e+003,3.216767e-001
6.792347e+003,3.189794e-001
6.796204e+003,2.910030e-001
6.800061e+003,2.802334e-001
6.803918e+003,2.883336e-001
6.807775e+003,2.885637e-001
6.811632e+003,2.836213e-001
6.815489e+003,2.890942e-001
6.819346e+003,3.005056e-001
6.823203e+003,2.990410e-001
6.827061e+003,3.099577e-001
6.830917e+003,2.936107e-001
6.834774e+003,2.795286e-001
6.838632e+003,2.781017e-001
6.842489e+003,2.998508e-001
6.846346e+003,3.455461e-001
6.850203e+003,3.665002e-001
6.854060e+003,3.294767e-001
6.857917e+003,3.017271e-001
6.861774e+003,2.935963e-001
6.865631e+003,3.048607e-001
6.869488e+003,3.101577e-001
6.873346e+003,3.097636e-001
6.877203e+003,3.193365e-001
6.881060e+003,3.160651e-001
6.884917e+003,3.157313e-001
6.888774e+003,3.209852e-001
6.892631e+003,3.344657e-001
6.896488e+003,3.407962e-001
6.900345e+003,3.317913e-001
6.904202e+003,3.360017e-001
6.908060e+003,3.312811e-001
6.911917e+003,3.221379e-001
6.915773e+003,3.240501e-001
6.919631e+003,3.383092e-001
6.923488e+003,3.127924e-001
6.927345e+003,3.022093e-001
6.931202e+003,3.076694e-001
6.935059e+003,3.029285e-001
6.938916e+003,2.898366e-001
6.942773e+003,3.135745e-001
6.946630e+003,3.470683e-001
6.950487e+003,3.139752e-001
6.954345e+003,3.159998e-001
6.958202e+003,3.311674e-001
6.962059e+003,2.977876e-001
6.965916e+003,2.947913e-001
6.969773e+003,3.028773e-001
6.973630e+003,3.274704e-001
6.977487e+003,3.609070e-001
6.981344e+003,3.638682e-001
6.985201e+003,3.443170e-001
6.989059e+003,3.346891e-001
6.992916e+003,3.408109e-001
6.996772e+003,3.601273e-001
7.000630e+003,3.503804e-001
7.004487e+003,3.226646e-001
7.008344e+003,2.962308e-001
7.012201e+003,3.171257e-001
7.016058e+003,3.535576e-001
7.019915e+003,3.406356e-001
7.023772e+003,3.384859e-001
7.027629e+003,3.321767e-001
7.031486e+003,3.244428e-001
7.035344e+003,3.363689e-001
7.039201e+003,3.495188e-001
7.043058e+003,3.447014e-001
7.046915e+003,3.361149e-001
7.050772e+003,3.353394e-001
7.054629e+003,3.439738e-001
7.058486e+003,3.260655e-001
7.062343e+003,3.185274e-001
7.066200e+003,3.478006e-001
7.070058e+003,3.615560e-001
7.073915e+003,3.510294e-001
7.077771e+003,3.747520e-001
7.081629e+003,3.753096e-001
7.085486e+003,3.538947e-001
7.089343e+003,3.419932e-001
7.093200e+003,3.320387e-001
7.097057e+003,3.440075e-001
7.100914e+003,3.422152e-001
7.104771e+003,3.226458e-001
7.108628e+003,3.203555e-001
7.112485e+003,3.151636e-001
7.116343e+003,3.052355e-001
7.120200e+003,3.110657e-001
7.124057e+003,3.347956e-001
7.127914e+003,3.675818e-001
7.131771e+003,3.784756e-001
7.135628e+003,3.248998e-001
7.139485e+003,2.943377e-001
7.143342e+003,2.958581e-001
7.147199e+003,2.884609e-001
7.151057e+003,2.861763e-001
7.154914e+003,3.236881e-001
7.158771e+003,3.200448e-001
7.162628e+003,2.937474e-001
7.166485e+003,3.157440e-001
7.170342e+003,3.558562e-001
7.174199e+003,3.437901e-001
7.178056e+003,3.427935e-001
7.181913e+003,3.349786e-001
7.185771e+003,3.336697e-001
7.189627e+003,3.544968e-001
7.193484e+003,3.387432e-001
7.197342e+003,3.073239e-001
7.201199e+003,2.963597e-001
7.205056e+003,3.156343e-001
7.208913e+003,3.211342e-001
7.212770e+003,3.202268e-001
7.216627e+003,3.708963e-001
7.220484e+003,4.109388e-001
7.224341e+003,3.705448e-001
7.228198e+003,3.496035e-001
7.232056e+003,3.468996e-001
7.235913e+003,3.179611e-001
7.239770e+003,3.214298e-001
7.243627e+003,3.557168e-001
7.247484e+003,3.669389e-001
7.251341e+003,3.444607e-001
7.255198e+003,3.114811e-001
7.259055e+003,3.120891e-001
7.262912e+003,3.386255e-001
7.266770e+003,3.241014e-001
7.270626e+003,2.800007e-001
7.274483e+003,2.909907e-001
7.278341e+003,3.309540e-001
7.282198e+003,3.429078e-001
7.286055e+003,3.538489e-001
7.289912e+003,3.278503e-001
7.293769e+003,3.037149e-001
7.297626e+003,2.981890e-001
7.301483e+003,3.173606e-001
7.305340e+003,3.449979e-001
7.309197e+003,3.706111e-001
7.313055e+003,3.797172e-001
7.316912e+003,3.520318e-001
7.320769e+003,3.242210e-001
7.324626e+003,3.397655e-001
7.328483e+003,3.430270e-001
7.332340e+003,3.464029e-001
7.336197e+003,3.707119e-001
7.340054e+003,3.980192e-001
7.343911e+003,4.004344e-001
7.347769e+003,3.252448e-001
7.351625e+003,3.083240e-001
7.355482e+003,3.426356e-001
7.359340e+003,3.535842e-001
7.363197e+003,3.337808e-001
7.367054e+003,3.328610e-001
7.370911e+003,3.360732e-001
7.374768e+003,3.214821e-001
7.378625e+003,3.563448e-001
7.382482e+003,4.163971e-001
7.386339e+003,3.957479e-001
7.390196e+003,3.636866e-001
7.394054e+003,3.362552e-001
7.397911e+003,2.852789e-001
7.401768e+003,2.851265e-001
7.405625e+003,3.817262e-001
7.409482e+003,3.933683e-001
7.413339e+003,3.254553e-001
7.417196e+003,3.328854e-001
7.421053e+003,3.582517e-001
7.424910e+003,3.667150e-001
7.428768e+003,3.461789e-001
7.432625e+003,3.033186e-001
7.436481e+003,3.117252e-001
7.440339e+003,3.215518e-001
7.444196e+003,3.451336e-001
7.448053e+003,4.052171e-001
7.451910e+003,3.923489e-001
7.455767e+003,3.585368e-001
7.459624e+003,3.704884e-001
7.463481e+003,3.585084e-001
7.467338e+003,3.743188e-001
7.471195e+003,3.919569e-001
7.475053e+003,4.081117e-001
7.478910e+003,3.883733e-001
7.482767e+003,3.533352e-001
7.486624e+003,3.595577e-001
7.490481e+003,3.400260e-001
7.494338e+003,3.032118e-001
7.498195e+003,2.750171e-001
7.502052e+003,3.259336e-001
7.505909e+003,3.628664e-001
7.509767e+003,3.257786e-001
7.513624e+003,3.179915e-001
7.517480e+003,3.086800e-001
7.521338e+003,3.086385e-001
7.525195e+003,3.075635e-001
7.529052e+003,2.915592e-001
7.532909e+003,3.242750e-001
7.536766e+003,3.856351e-001
7.540623e+003,4.187360e-001
7.544480e+003,4.026844e-001
7.548337e+003,3.919579e-001
7.552194e+003,3.894470e-001
7.556052e+003,3.074663e-001
7.559909e+003,3.120323e-001
7.563766e+003,3.605876e-001
7.567623e+003,3.788887e-001
7.571480e+003,3.745279e-001
7.575337e+003,3.282172e-001
7.579194e+003,3.332234e-001
7.583051e+003,3.250422e-001
7.586908e+003,3.610089e-001
7.590766e+003,3.593214e-001
7.594623e+003,3.104840e-001
7.598479e+003,2.723139e-001
7.602337e+003,3.080565e-001
7.606194e+003,3.622789e-001
7.610051e+003,3.923391e-001
7.613908e+003,3.780818e-001
7.617765e+003,3.494285e-001
7.621622e+003,3.964334e-001
7.625479e+003,3.906417e-001
7.629336e+003,3.559925e-001
7.633193e+003,3.621077e-001
7.637051e+003,3.832163e-001
7.640908e+003,3.784454e-001
7.644765e+003,4.094549e-001
7.648622e+003,4.510352e-001
7.652479e+003,4.182703e-001
7.656336e+003,3.531466e-001
7.660193e+003,3.307052e-001
7.664050e+003,3.683548e-001
7.667907e+003,4.277658e-001
7.671765e+003,3.484513e-001
7.675622e+003,3.015302e-001
7.679479e+003,3.114103e-001
7.683336e+003,3.039337e-001
7.687193e+003,3.689764e-001
7.691050e+003,3.902495e-001
7.694907e+003,3.917064e-001
7.698764e+003,3.397651e-001
7.702621e+003,2.813516e-001
7.706479e+003,3.192064e-001
7.710335e+003,4.636716e-001
7.714192e+003,4.614880e-001
7.718050e+003,3.455420e-001
7.721907e+003,3.772479e-001
7.725764e+003,4.438683e-001
7.729621e+003,4.204950e-001
7.733478e+003,4.210947e-001
7.737335e+003,4.654264e-001
7.741192e+003,4.013441e-001
7.745049e+003,3.293542e-001
7.748906e+003,3.376354e-001
7.752764e+003,3.308027e-001
7.756621e+003,3.681288e-001
7.760478e+003,4.207860e-001
7.764335e+003,5.211021e-001
7.768192e+003,4.681078e-001
7.772049e+003,3.684542e-001
7.775906e+003,3.767627e-001
7.779763e+003,3.893669e-001
7.783620e+003,3.161609e-001
7.787478e+003,3.041802e-001
7.791334e+003,3.954390e-001
7.795191e+003,4.262682e-001
7.799049e+003,3.782304e-001
7.802906e+003,4.102762e-001
7.806763e+003,3.764780e-001
7.810620e+003,3.538356e-001
7.814477e+003,3.269313e-001
7.818334e+003,2.282421e-001
7.822191e+003,3.042925e-001
7.826048e+003,3.906335e-001
7.829905e+003,3.441324e-001
7.833763e+003,3.083647e-001
7.837620e+003,3.183858e-001
7.841477e+003,3.580382e-001
7.845334e+003,3.848848e-001
7.849191e+003,3.976084e-001
7.853048e+003,4.250207e-001
7.856905e+003,3.799950e-001
7.860762e+003,4.157293e-001
7.864619e+003,4.544619e-001
7.868477e+003,3.762942e-001
7.872333e+003,2.246078e-001
7.876190e+003,2.463667e-001
7.880048e+003,3.373470e-001
7.883905e+003,3.186936e-001
7.887762e+003,3.245557e-001
7.891619e+003,4.336937e-001
7.895476e+003,4.342152e-001
7.899333e+003,3.719516e-001
7.903190e+003,3.591862e-001
7.907047e+003,3.290482e-001
7.910904e+003,3.987056e-001
7.914762e+003,4.337486e-001
7.918619e+003,3.878602e-001
7.922476e+003,4.854362e-001
7.926333e+003,4.542423e-001
7.930190e+003,4.320309e-001
7.934047e+003,4.771173e-001
7.937904e+003,3.435826e-001
7.941761e+003,3.924953e-001
7.945618e+003,4.594679e-001
7.949476e+003,3.393759e-001
7.953333e+003,2.695788e-001
7.957189e+003,2.351947e-001
7.961047e+003,2.195778e-001
7.964904e+003,2.941032e-001
7.968761e+003,3.100103e-001
7.972618e+003,3.156388e-001
7.976475e+003,4.295871e-001
7.980332e+003,4.766108e-001
7.984189e+003,4.541847e-001
7.988046e+003,4.708073e-001
7.991903e+003,4.120483e-001
7.995761e+003,3.461274e-001
7.999618e+003,3.627011e-001
