4.011380e+002,6.000000e+000
4.049951e+002,6.000000e+000
4.088522e+002,6.000000e+000
4.127093e+002,1.161144e+000
4.165664e+002,9.359882e-001
4.204235e+002,6.000000e+000
4.242806e+002,6.000000e+000
4.281377e+002,2.233671e-001
4.319948e+002,7.705339e-001
4.358519e+002,6.000000e+000
4.397090e+002,6.000000e+000
4.435661e+002,6.000000e+000
4.474232e+002,6.000000e+000
4.512803e+002,6.000000e+000
4.551374e+002,6.000000e+000
4.589945e+002,6.000000e+000
4.628516e+002,6.000000e+000
4.667087e+002,2.120515e-001
4.705658e+002,3.692377e-001
4.744229e+002,1.268831e-001
4.782800e+002,-5.823578e-001
4.821371e+002,6.744170e-001
4.859941e+002,6.000000e+000
4.898513e+002,4.066624e-001
4.937083e+002,6.000000e+000
4.975654e+002,6.000000e+000
5.014225e+002,6.000000e+000
5.052796e+002,6.000000e+000
5.091367e+002,6.000000e+000
5.129938e+002,6.000000e+000
5.168509e+002,6.000000e+000
5.207080e+002,6.000000e+000
5.245651e+002,8.431488e-002
5.284222e+002,-9.649068e-002
5.322793e+002,-3.485148e-001
5.361364e+002,6.000000e+000
5.399935e+002,6.000000e+000
5.438506e+002,-4.107441e-001
5.477077e+002,6.000000e+000
5.515648e+002,6.000000e+000
5.554219e+002,6.000000e+000
5.592790e+002,6.000000e+000
5.631361e+002,-3.126251e-001
5.669932e+002,2.801913e-001
5.708503e+002,6.000000e+000
5.747074e+002,6.000000e+000
5.785645e+002,-3.948914e-001
5.824216e+002,6.000000e+000
5.862787e+002,6.000000e+000
5.901357e+002,-5.856547e-002
5.939929e+002,6.000000e+000
5.978499e+002,6.000000e+000
6.017070e+002,6.000000e+000
6.055641e+002,1.652048e-001
6.094212e+002,-1.709492e-001
6.132783e+002,2.953119e-001
6.171354e+002,6.517457e-001
6.209925e+002,7.069673e-001
6.248496e+002,6.965665e-002
6.287067e+002,-2.152316e-001
6.325638e+002,-8.284073e-002
6.364209e+002,-6.071952e-001
6.402780e+002,6.000000e+000
6.441351e+002,-1.021644e-001
6.479922e+002,6.000000e+000
6.518493e+002,6.000000e+000
6.557064e+002,6.000000e+000
6.595635e+002,8.129982e-001
6.634205e+002,-2.843033e-001
6.672777e+002,-2.906759e-001
6.711348e+002,-4.157905e-001
6.749918e+002,2.154896e-001
6.788490e+002,5.416273e-001
6.827061e+002,-1.463958e+000
6.865631e+002,6.000000e+000
6.904203e+002,6.000000e+000
6.942773e+002,6.000000e+000
6.981344e+002,6.000000e+000
7.019916e+002,6.000000e+000
7.058486e+002,-2.453180e-001
7.097057e+002,3.908901e-001
7.135629e+002,-9.333786e-002
7.174199e+002,6.000000e+000
7.212770e+002,-2.381440e-002
7.251342e+002,-1.109356e-001
7.289912e+002,5.375396e-002
7.328483e+002,6.000000e+000
7.367054e+002,-4.456224e-001
7.405625e+002,-8.825281e-002
7.444196e+002,2.893583e-001
7.482767e+002,1.727483e-001
7.521338e+002,-7.985761e-001
7.559908e+002,-1.346696e+000
7.598480e+002,-1.276149e-002
7.637051e+002,7.211115e-001
7.675621e+002,4.913817e-002
7.714193e+002,6.000000e+000
7.752764e+002,6.000000e+000
7.791334e+002,6.000000e+000
7.829905e+002,6.000000e+000
7.868477e+002,6.000000e+000
7.907047e+002,-6.598675e-001
7.945618e+002,-2.116968e-001
7.984189e+002,6.000000e+000
8.022760e+002,6.000000e+000
8.061331e+002,6.000000e+000
8.099902e+002,1.914509e-001
8.138473e+002,2.987971e-001
8.177044e+002,-9.330543e-002
8.215615e+002,-2.248136e-001
8.254186e+002,-6.580998e-002
8.292757e+002,6.000000e+000
8.331328e+002,1.163714e-001
8.369899e+002,-2.859618e-001
8.408470e+002,-3.160513e-001
8.447041e+002,1.186082e-002
8.485612e+002,6.000000e+000
8.524183e+002,1.447969e+000
8.562754e+002,6.000000e+000
8.601324e+002,6.000000e+000
8.639896e+002,6.000000e+000
8.678467e+002,6.000000e+000
8.717037e+002,6.000000e+000
8.755609e+002,6.000000e+000
8.794180e+002,6.000000e+000
8.832750e+002,6.000000e+000
8.871321e+002,1.489148e+000
8.909893e+002,9.900767e-001
8.948463e+002,1.009671e+000
8.987034e+002,1.162047e+000
9.025605e+002,1.013160e+000
9.064176e+002,1.068836e+000
9.102747e+002,1.533229e+000
9.141318e+002,3.024877e+000
9.179889e+002,1.478136e+000
9.218461e+002,1.605546e+000
9.257031e+002,2.573643e+000
9.295602e+002,1.227964e+000
9.334174e+002,1.195803e+000
9.372744e+002,6.000000e+000
9.411315e+002,6.000000e+000
9.449886e+002,6.000000e+000
9.488457e+002,6.000000e+000
9.527028e+002,2.121049e+000
9.565599e+002,2.064946e+000
9.604170e+002,1.794581e+000
9.642740e+002,1.383420e+000
9.681312e+002,1.442730e+000
9.719883e+002,1.790832e+000
9.758453e+002,1.486654e+000
9.797025e+002,1.263957e+000
9.835596e+002,1.625407e+000
9.874166e+002,2.067185e+000
9.912738e+002,1.558903e+000
9.951309e+002,1.648173e+000
9.989879e+002,1.579576e+000
1.002845e+003,1.800321e+000
1.006702e+003,6.000000e+000
1.010559e+003,6.000000e+000
1.014416e+003,6.000000e+000
1.018273e+003,6.000000e+000
1.022130e+003,6.000000e+000
1.025988e+003,6.000000e+000
1.029845e+003,1.856890e+000
1.033702e+003,1.697490e+000
1.037559e+003,2.689498e+000
1.041416e+003,2.104506e+000
1.045273e+003,2.155281e+000
1.049130e+003,1.703701e+000
1.052987e+003,1.723166e+000
1.056844e+003,2.728648e+000
1.060702e+003,2.501416e+000
1.064559e+003,1.919873e+000
1.068416e+003,1.730134e+000
1.072273e+003,1.683418e+000
1.076130e+003,1.736955e+000
1.079987e+003,1.959745e+000
1.083844e+003,2.133970e+000
1.087701e+003,1.958435e+000
1.091558e+003,1.684590e+000
1.095415e+003,1.576887e+000
1.099272e+003,1.705879e+000
1.103130e+003,1.580405e+000
1.106987e+003,1.463264e+000
1.110844e+003,1.434191e+000
1.114701e+003,1.550412e+000
1.118558e+003,1.553658e+000
1.122415e+003,1.644243e+000
1.126272e+003,1.520383e+000
1.130129e+003,1.397365e+000
1.133986e+003,1.304085e+000
1.137843e+003,1.390829e+000
1.141701e+003,1.468766e+000
1.145558e+003,1.396556e+000
1.149415e+003,1.315762e+000
1.153272e+003,1.260338e+000
1.157129e+003,1.338243e+000
1.160986e+003,1.487137e+000
1.164843e+003,1.504087e+000
1.168700e+003,1.502956e+000
1.172557e+003,1.515137e+000
1.176414e+003,1.470729e+000
1.180271e+003,1.455641e+000
1.184129e+003,1.428930e+000
1.187986e+003,1.368607e+000
1.191843e+003,1.322970e+000
1.195700e+003,1.337231e+000
1.199557e+003,1.335894e+000
1.203414e+003,1.297642e+000
1.207271e+003,1.359585e+000
1.211128e+003,1.418339e+000
1.214985e+003,1.299031e+000
1.218842e+003,1.118881e+000
1.222699e+003,1.038040e+000
1.226557e+003,9.584565e-001
1.230414e+003,8.706728e-001
1.234271e+003,8.007471e-001
1.238128e+003,7.518913e-001
1.241985e+003,7.141843e-001
1.245842e+003,6.720104e-001
1.249699e+003,6.283046e-001
1.253556e+003,6.050459e-001
1.257413e+003,5.982479e-001
1.261271e+003,5.800242e-001
1.265128e+003,5.310803e-001
1.268985e+003,5.076040e-001
1.272842e+003,4.889690e-001
1.276699e+003,4.765856e-001
1.280556e+003,4.648889e-001
1.284413e+003,4.540261e-001
1.288270e+003,4.536503e-001
1.292127e+003,4.448334e-001
1.295984e+003,4.254740e-001
1.299841e+003,4.117761e-001
1.303698e+003,4.061696e-001
1.307556e+003,3.988132e-001
1.311413e+003,3.885843e-001
1.315270e+003,3.894236e-001
1.319127e+003,3.886696e-001
1.322984e+003,3.821244e-001
1.326841e+003,3.750082e-001
1.330698e+003,3.729966e-001
1.334555e+003,3.707523e-001
1.338412e+003,3.675920e-001
1.342270e+003,3.600685e-001
1.346127e+003,3.613841e-001
1.349984e+003,3.637010e-001
1.353841e+003,3.644281e-001
1.357698e+003,3.679178e-001
1.361555e+003,3.693903e-001
1.365412e+003,3.718374e-001
1.369269e+003,3.793133e-001
1.373126e+003,3.855878e-001
1.376983e+003,3.931506e-001
1.380840e+003,3.993680e-001
1.384698e+003,4.124770e-001
1.388555e+003,4.321949e-001
1.392412e+003,4.417961e-001
1.396269e+003,4.462626e-001
1.400126e+003,4.592140e-001
1.403983e+003,4.701929e-001
1.407840e+003,4.800658e-001
1.411697e+003,4.885312e-001
1.415554e+003,5.057352e-001
1.419411e+003,5.167401e-001
1.423269e+003,5.255841e-001
1.427126e+003,5.357499e-001
1.430983e+003,5.357609e-001
1.434840e+003,5.361882e-001
1.438697e+003,5.341637e-001
1.442554e+003,5.367997e-001
1.446411e+003,5.346494e-001
1.450268e+003,5.285354e-001
1.454125e+003,5.131191e-001
1.457982e+003,4.984362e-001
1.461839e+003,4.895257e-001
1.465697e+003,4.844047e-001
1.469554e+003,4.855985e-001
1.473411e+003,4.852569e-001
1.477268e+003,4.852578e-001
1.481125e+003,4.994707e-001
1.484982e+003,5.142033e-001
1.488839e+003,5.216562e-001
1.492696e+003,5.307716e-001
1.496553e+003,5.401476e-001
1.500411e+003,5.392438e-001
1.504268e+003,5.289423e-001
1.508125e+003,5.323958e-001
1.511982e+003,5.425905e-001
1.515839e+003,5.501381e-001
1.519696e+003,5.448745e-001
1.523553e+003,5.361491e-001
1.527410e+003,5.296565e-001
1.531267e+003,5.142853e-001
1.535124e+003,4.921847e-001
1.538981e+003,4.805243e-001
1.542839e+003,4.697143e-001
1.546696e+003,4.648367e-001
1.550553e+003,4.586907e-001
1.554410e+003,4.502299e-001
1.558267e+003,4.317188e-001
1.562124e+003,4.139064e-001
1.565981e+003,4.124732e-001
1.569838e+003,4.054104e-001
1.573695e+003,4.025558e-001
1.577552e+003,4.099159e-001
1.581410e+003,4.135776e-001
1.585267e+003,4.116195e-001
1.589124e+003,4.114455e-001
1.592981e+003,4.146475e-001
1.596838e+003,4.310916e-001
1.600695e+003,4.490604e-001
1.604552e+003,4.670342e-001
1.608409e+003,4.878528e-001
1.612266e+003,5.059957e-001
1.616123e+003,5.235072e-001
1.619980e+003,5.478598e-001
1.623838e+003,5.773618e-001
1.627695e+003,6.005867e-001
1.631552e+003,6.191539e-001
1.635409e+003,6.321968e-001
1.639266e+003,6.240106e-001
1.643123e+003,6.128074e-001
1.646980e+003,6.084435e-001
1.650837e+003,5.947655e-001
1.654694e+003,5.682207e-001
1.658551e+003,5.440046e-001
1.662409e+003,5.229280e-001
1.666266e+003,4.952166e-001
1.670123e+003,4.722657e-001
1.673980e+003,4.507977e-001
1.677837e+003,4.280457e-001
1.681694e+003,4.133095e-001
1.685551e+003,3.998221e-001
1.689408e+003,3.873569e-001
1.693265e+003,3.813605e-001
1.697122e+003,3.717058e-001
1.700979e+003,3.538219e-001
1.704837e+003,3.441945e-001
1.708694e+003,3.428936e-001
1.712551e+003,3.358920e-001
1.716408e+003,3.313851e-001
1.720265e+003,3.315895e-001
1.724122e+003,3.321981e-001
1.727979e+003,3.310091e-001
1.731836e+003,3.321077e-001
1.735693e+003,3.305142e-001
1.739550e+003,3.260006e-001
1.743408e+003,3.207074e-001
1.747265e+003,3.180828e-001
1.751122e+003,3.118638e-001
1.754979e+003,3.133019e-001
1.758836e+003,3.180251e-001
1.762693e+003,3.212506e-001
1.766550e+003,3.229299e-001
1.770407e+003,3.208867e-001
1.774264e+003,3.142142e-001
1.778121e+003,3.114957e-001
1.781979e+003,3.129148e-001
1.785836e+003,3.113051e-001
1.789693e+003,3.084981e-001
1.793550e+003,3.049393e-001
1.797407e+003,3.046722e-001
1.801264e+003,3.061979e-001
1.805121e+003,3.026913e-001
1.808978e+003,3.008706e-001
1.812835e+003,3.013453e-001
1.816692e+003,3.010318e-001
1.820549e+003,2.988164e-001
1.824407e+003,2.978669e-001
1.828264e+003,3.018054e-001
1.832121e+003,3.018897e-001
1.835978e+003,2.981276e-001
1.839835e+003,2.935198e-001
1.843692e+003,2.940181e-001
1.847549e+003,2.937731e-001
1.851406e+003,2.914132e-001
1.855263e+003,2.939605e-001
1.859120e+003,2.945872e-001
1.862978e+003,2.880387e-001
1.866835e+003,2.862418e-001
1.870692e+003,2.866734e-001
1.874549e+003,2.861230e-001
1.878406e+003,2.893537e-001
1.882263e+003,2.865209e-001
1.886120e+003,2.798966e-001
1.889977e+003,2.807365e-001
1.893834e+003,2.864050e-001
1.897691e+003,2.879466e-001
1.901548e+003,2.828071e-001
1.905406e+003,2.797067e-001
1.909263e+003,2.797581e-001
1.913120e+003,2.822342e-001
1.916977e+003,2.839959e-001
1.920834e+003,2.857600e-001
1.924691e+003,2.833387e-001
1.928548e+003,2.803220e-001
1.932405e+003,2.854678e-001
1.936262e+003,2.866717e-001
1.940119e+003,2.790710e-001
1.943977e+003,2.724458e-001
1.947834e+003,2.711318e-001
1.951691e+003,2.703317e-001
1.955548e+003,2.706539e-001
1.959405e+003,2.685002e-001
1.963262e+003,2.668829e-001
1.967119e+003,2.671492e-001
1.970976e+003,2.665033e-001
1.974833e+003,2.677439e-001
1.978690e+003,2.670301e-001
1.982547e+003,2.647910e-001
1.986405e+003,2.643009e-001
1.990262e+003,2.652806e-001
1.994119e+003,2.646303e-001
1.997976e+003,2.623181e-001
2.001833e+003,2.596537e-001
2.005690e+003,2.580011e-001
2.009547e+003,2.543295e-001
2.013404e+003,2.582299e-001
2.017261e+003,2.623619e-001
2.021118e+003,2.589632e-001
2.024976e+003,2.560187e-001
2.028833e+003,2.552895e-001
2.032690e+003,2.513788e-001
2.036547e+003,2.496335e-001
2.040404e+003,2.485698e-001
2.044261e+003,2.450308e-001
2.048118e+003,2.461573e-001
2.051975e+003,2.462275e-001
2.055832e+003,2.408994e-001
2.059689e+003,2.417894e-001
2.063546e+003,2.405234e-001
2.067404e+003,2.406593e-001
2.071261e+003,2.433890e-001
2.075118e+003,2.436399e-001
2.078975e+003,2.442719e-001
2.082832e+003,2.459158e-001
2.086689e+003,2.471006e-001
2.090546e+003,2.472595e-001
2.094403e+003,2.462624e-001
2.098260e+003,2.468338e-001
2.102117e+003,2.473723e-001
2.105975e+003,2.481997e-001
2.109832e+003,2.471183e-001
2.113689e+003,2.424304e-001
2.117546e+003,2.436381e-001
2.121403e+003,2.465923e-001
2.125260e+003,2.485254e-001
2.129117e+003,2.456717e-001
2.132974e+003,2.433876e-001
2.136831e+003,2.424296e-001
2.140688e+003,2.425423e-001
2.144545e+003,2.384604e-001
2.148403e+003,2.385430e-001
2.152260e+003,2.411875e-001
2.156117e+003,2.427773e-001
2.159974e+003,2.442840e-001
2.163831e+003,2.449216e-001
2.167688e+003,2.435941e-001
2.171545e+003,2.409946e-001
2.175402e+003,2.450842e-001
2.179259e+003,2.503969e-001
2.183116e+003,2.504307e-001
2.186974e+003,2.484581e-001
2.190831e+003,2.472811e-001
2.194688e+003,2.479476e-001
2.198545e+003,2.469198e-001
2.202402e+003,2.493116e-001
2.206259e+003,2.534167e-001
2.210116e+003,2.537074e-001
2.213973e+003,2.537047e-001
2.217830e+003,2.511330e-001
2.221688e+003,2.493691e-001
2.225544e+003,2.538592e-001
2.229402e+003,2.526891e-001
2.233259e+003,2.478904e-001
2.237116e+003,2.477907e-001
2.240973e+003,2.517009e-001
2.244830e+003,2.525964e-001
2.248687e+003,2.557381e-001
2.252544e+003,2.585568e-001
2.256401e+003,2.535194e-001
2.260258e+003,2.500792e-001
2.264115e+003,2.546474e-001
2.267973e+003,2.565901e-001
2.271830e+003,2.561193e-001
2.275687e+003,2.611786e-001
2.279544e+003,2.615134e-001
2.283401e+003,2.610371e-001
2.287258e+003,2.615841e-001
2.291115e+003,2.612583e-001
2.294972e+003,2.609712e-001
2.298829e+003,2.648955e-001
2.302687e+003,2.687771e-001
2.306543e+003,2.661684e-001
2.310401e+003,2.621274e-001
2.314258e+003,2.677414e-001
2.318115e+003,2.738059e-001
2.321972e+003,2.702283e-001
2.325829e+003,2.699945e-001
2.329686e+003,2.713949e-001
2.333543e+003,2.723062e-001
2.337400e+003,2.683931e-001
2.341257e+003,2.679404e-001
2.345115e+003,2.679266e-001
2.348972e+003,2.634333e-001
2.352829e+003,2.619086e-001
2.356686e+003,2.649087e-001
2.360543e+003,2.741917e-001
2.364400e+003,2.727182e-001
2.368257e+003,2.670386e-001
2.372114e+003,2.683129e-001
2.375971e+003,2.698072e-001
2.379828e+003,2.685515e-001
2.383686e+003,2.662940e-001
2.387542e+003,2.643818e-001
2.391400e+003,2.653380e-001
2.395257e+003,2.692336e-001
2.399114e+003,2.677025e-001
2.402971e+003,2.687807e-001
2.406828e+003,2.685301e-001
2.410685e+003,2.646808e-001
2.414542e+003,2.672289e-001
2.418399e+003,2.691712e-001
2.422256e+003,2.672138e-001
2.426114e+003,2.672150e-001
2.429971e+003,2.711785e-001
2.433828e+003,2.744257e-001
2.437685e+003,2.716056e-001
2.441542e+003,2.692418e-001
2.445399e+003,2.691795e-001
2.449256e+003,2.655149e-001
2.453113e+003,2.672124e-001
2.456970e+003,2.680488e-001
2.460827e+003,2.661366e-001
2.464684e+003,2.660607e-001
2.468542e+003,2.659269e-001
2.472399e+003,2.670028e-001
2.476256e+003,2.655380e-001
2.480113e+003,2.615157e-001
2.483970e+003,2.617840e-001
2.487827e+003,2.612755e-001
2.491684e+003,2.608754e-001
2.495541e+003,2.620818e-001
2.499398e+003,2.655369e-001
2.503255e+003,2.679375e-001
2.507113e+003,2.675085e-001
2.510969e+003,2.681523e-001
2.514827e+003,2.691175e-001
2.518684e+003,2.729242e-001
2.522541e+003,2.728790e-001
2.526398e+003,2.693211e-001
2.530255e+003,2.647054e-001
2.534112e+003,2.648375e-001
2.537969e+003,2.662267e-001
2.541826e+003,2.670552e-001
2.545683e+003,2.705913e-001
2.549541e+003,2.725778e-001
2.553398e+003,2.707632e-001
2.557255e+003,2.680498e-001
2.561112e+003,2.711146e-001
2.564969e+003,2.730901e-001
2.568826e+003,2.760064e-001
2.572683e+003,2.822071e-001
2.576540e+003,2.776834e-001
2.580397e+003,2.733042e-001
2.584254e+003,2.773820e-001
2.588112e+003,2.839009e-001
2.591969e+003,2.857403e-001
2.595826e+003,2.903374e-001
2.599683e+003,2.977453e-001
2.603540e+003,2.980565e-001
2.607397e+003,2.933525e-001
2.611254e+003,2.936341e-001
2.615111e+003,3.007841e-001
2.618968e+003,3.059246e-001
2.622825e+003,3.049396e-001
2.626682e+003,3.050441e-001
2.630540e+003,3.076380e-001
2.634397e+003,3.066781e-001
2.638254e+003,3.054417e-001
2.642111e+003,3.023496e-001
2.645968e+003,3.050462e-001
2.649825e+003,3.098395e-001
2.653682e+003,3.158005e-001
2.657539e+003,3.208047e-001
2.661396e+003,3.213374e-001
2.665253e+003,3.213975e-001
2.669111e+003,3.273250e-001
2.672968e+003,3.289225e-001
2.676825e+003,3.279981e-001
2.680682e+003,3.308294e-001
2.684539e+003,3.328340e-001
2.688396e+003,3.349627e-001
2.692253e+003,3.409550e-001
2.696110e+003,3.464556e-001
2.699967e+003,3.474970e-001
2.703824e+003,3.506314e-001
2.707681e+003,3.539935e-001
2.711539e+003,3.591914e-001
2.715396e+003,3.653257e-001
2.719253e+003,3.679944e-001
2.723110e+003,3.699068e-001
2.726967e+003,3.715551e-001
2.730824e+003,3.711226e-001
2.734681e+003,3.721710e-001
2.738538e+003,3.762124e-001
2.742395e+003,3.777113e-001
2.746252e+003,3.802479e-001
2.750110e+003,3.846704e-001
2.753967e+003,3.854029e-001
2.757824e+003,3.874545e-001
2.761681e+003,3.938882e-001
2.765538e+003,3.964562e-001
2.769395e+003,3.974607e-001
2.773252e+003,4.004714e-001
2.777109e+003,4.081044e-001
2.780966e+003,4.117571e-001
2.784823e+003,4.147117e-001
2.788680e+003,4.226837e-001
2.792538e+003,4.256456e-001
2.796395e+003,4.303293e-001
2.800252e+003,4.304289e-001
2.804109e+003,4.315806e-001
2.807966e+003,4.388673e-001
2.811823e+003,4.394407e-001
2.815680e+003,4.453963e-001
2.819537e+003,4.546572e-001
2.823394e+003,4.508187e-001
2.827251e+003,4.486682e-001
2.831109e+003,4.574340e-001
2.834966e+003,4.652670e-001
2.838823e+003,4.687076e-001
2.842680e+003,4.754979e-001
2.846537e+003,4.733768e-001
2.850394e+003,4.728596e-001
2.854251e+003,4.816646e-001
2.858108e+003,4.858574e-001
2.861965e+003,4.882672e-001
2.865823e+003,4.955552e-001
2.869679e+003,4.994525e-001
2.873537e+003,4.996896e-001
2.877394e+003,5.054511e-001
2.881251e+003,5.108622e-001
2.885108e+003,5.122656e-001
2.888965e+003,5.182425e-001
2.892822e+003,5.274082e-001
2.896679e+003,5.318486e-001
2.900536e+003,5.418850e-001
2.904393e+003,5.498610e-001
2.908250e+003,5.504575e-001
2.912108e+003,5.522929e-001
2.915965e+003,5.548105e-001
2.919822e+003,5.558254e-001
2.923679e+003,5.620632e-001
2.927536e+003,5.671939e-001
2.931393e+003,5.671486e-001
2.935250e+003,5.710242e-001
2.939107e+003,5.797264e-001
2.942964e+003,5.802152e-001
2.946822e+003,5.794694e-001
2.950678e+003,5.845630e-001
2.954536e+003,5.967885e-001
2.958393e+003,6.078386e-001
2.962250e+003,6.124750e-001
2.966107e+003,6.117044e-001
2.969964e+003,6.134018e-001
2.973821e+003,6.181637e-001
2.977678e+003,6.228775e-001
2.981535e+003,6.241035e-001
2.985392e+003,6.219472e-001
2.989250e+003,6.276792e-001
2.993107e+003,6.429410e-001
2.996964e+003,6.549793e-001
3.000821e+003,6.568110e-001
3.004678e+003,6.647170e-001
3.008535e+003,6.761374e-001
3.012392e+003,6.782325e-001
3.016249e+003,6.755241e-001
3.020106e+003,6.860630e-001
3.023963e+003,6.921241e-001
3.027821e+003,6.886197e-001
3.031677e+003,6.857681e-001
3.035535e+003,6.894823e-001
3.039392e+003,7.008930e-001
3.043249e+003,7.142100e-001
3.047106e+003,7.206296e-001
3.050963e+003,7.144363e-001
3.054820e+003,7.128389e-001
3.058677e+003,7.261491e-001
3.062534e+003,7.504823e-001
3.066391e+003,7.551948e-001
3.070249e+003,7.535646e-001
3.074106e+003,7.612606e-001
3.077963e+003,7.622904e-001
3.081820e+003,7.624201e-001
3.085677e+003,7.663752e-001
3.089534e+003,7.775627e-001
3.093391e+003,7.880416e-001
3.097248e+003,7.979047e-001
3.101105e+003,8.154801e-001
3.104962e+003,8.213165e-001
3.108820e+003,8.175589e-001
3.112677e+003,8.267326e-001
3.116534e+003,8.375433e-001
3.120391e+003,8.396332e-001
3.124248e+003,8.459528e-001
3.128105e+003,8.597739e-001
3.131962e+003,8.756042e-001
3.135819e+003,8.769311e-001
3.139676e+003,8.673047e-001
3.143533e+003,8.699753e-001
3.147390e+003,8.897444e-001
3.151248e+003,8.863033e-001
3.155105e+003,8.836679e-001
3.158962e+003,8.968166e-001
3.162819e+003,9.039789e-001
3.166676e+003,9.228237e-001
3.170533e+003,9.283711e-001
3.174390e+003,9.205618e-001
3.178247e+003,9.373075e-001
3.182104e+003,9.548211e-001
3.185961e+003,9.455545e-001
3.189819e+003,9.405473e-001
3.193676e+003,9.342383e-001
3.197533e+003,9.456769e-001
3.201390e+003,9.725185e-001
3.205247e+003,9.922463e-001
3.209104e+003,9.851897e-001
3.212961e+003,9.814120e-001
3.216818e+003,9.877427e-001
3.220675e+003,9.842853e-001
3.224532e+003,9.787315e-001
3.228389e+003,9.801732e-001
3.232247e+003,1.008464e+000
3.236104e+003,1.038130e+000
3.239961e+003,1.022316e+000
3.243818e+003,1.019722e+000
3.247675e+003,1.025542e+000
3.251532e+003,1.035191e+000
3.255389e+003,1.039846e+000
3.259246e+003,1.047894e+000
3.263103e+003,1.043019e+000
3.266960e+003,1.059900e+000
3.270818e+003,1.077686e+000
3.274675e+003,1.074706e+000
3.278532e+003,1.073979e+000
3.282389e+003,1.089678e+000
3.286246e+003,1.099598e+000
3.290103e+003,1.113473e+000
3.293960e+003,1.131248e+000
3.297817e+003,1.118099e+000
3.301674e+003,1.115525e+000
3.305531e+003,1.122724e+000
3.309388e+003,1.122486e+000
3.313246e+003,1.144992e+000
3.317103e+003,1.152415e+000
3.320960e+003,1.139102e+000
3.324817e+003,1.169153e+000
3.328674e+003,1.183390e+000
3.332531e+003,1.175041e+000
3.336388e+003,1.200598e+000
3.340245e+003,1.204557e+000
3.344102e+003,1.180225e+000
3.347959e+003,1.148193e+000
3.351817e+003,1.154568e+000
3.355674e+003,1.193116e+000
3.359531e+003,1.208585e+000
3.363388e+003,1.219388e+000
3.367245e+003,1.228164e+000
3.371102e+003,1.236750e+000
3.374959e+003,1.227323e+000
3.378816e+003,1.240119e+000
3.382673e+003,1.238807e+000
3.386530e+003,1.205297e+000
3.390387e+003,1.218079e+000
3.394245e+003,1.226990e+000
3.398102e+003,1.250830e+000
3.401959e+003,1.261578e+000
3.405816e+003,1.264266e+000
3.409673e+003,1.253676e+000
3.413530e+003,1.244248e+000
3.417387e+003,1.273777e+000
3.421244e+003,1.321595e+000
3.425101e+003,1.318195e+000
3.428958e+003,1.328491e+000
3.432815e+003,1.318828e+000
3.436673e+003,1.259883e+000
3.440530e+003,1.261779e+000
3.444387e+003,1.292313e+000
3.448244e+003,1.297031e+000
3.452101e+003,1.281090e+000
3.455958e+003,1.296714e+000
3.459815e+003,1.307492e+000
3.463672e+003,1.315255e+000
3.467529e+003,1.288843e+000
3.471386e+003,1.280246e+000
3.475244e+003,1.291150e+000
3.479101e+003,1.307230e+000
3.482958e+003,1.325073e+000
3.486815e+003,1.354899e+000
3.490672e+003,1.321956e+000
3.494529e+003,1.288127e+000
3.498386e+003,1.303509e+000
3.502243e+003,1.342098e+000
3.506100e+003,1.307765e+000
3.509958e+003,1.276853e+000
3.513814e+003,1.289291e+000
3.517672e+003,1.330160e+000
3.521529e+003,1.362716e+000
3.525386e+003,1.358852e+000
3.529243e+003,1.320279e+000
3.533100e+003,1.303532e+000
3.536957e+003,1.338675e+000
3.540814e+003,1.334448e+000
3.544671e+003,1.314550e+000
3.548528e+003,1.316770e+000
3.552385e+003,1.310701e+000
3.556243e+003,1.325727e+000
3.560100e+003,1.295209e+000
3.563957e+003,1.242818e+000
3.567814e+003,1.278876e+000
3.571671e+003,1.312162e+000
3.575528e+003,1.268679e+000
3.579385e+003,1.253432e+000
3.583242e+003,1.249230e+000
3.587099e+003,1.215143e+000
3.590957e+003,1.178799e+000
3.594813e+003,1.142587e+000
3.598671e+003,1.123289e+000
3.602528e+003,1.103706e+000
3.606385e+003,1.060496e+000
3.610242e+003,1.014804e+000
3.614099e+003,9.839329e-001
3.617956e+003,9.519224e-001
3.621813e+003,9.002244e-001
3.625670e+003,8.360634e-001
3.629527e+003,7.735319e-001
3.633385e+003,7.299185e-001
3.637242e+003,6.866022e-001
3.641099e+003,6.382995e-001
3.644956e+003,5.907007e-001
3.648813e+003,5.519871e-001
3.652670e+003,5.036992e-001
3.656527e+003,4.539075e-001
3.660384e+003,4.203073e-001
3.664241e+003,3.915082e-001
3.668098e+003,3.622500e-001
3.671956e+003,3.332750e-001
3.675813e+003,3.058592e-001
3.679670e+003,2.810662e-001
3.683527e+003,2.648523e-001
3.687384e+003,2.523226e-001
3.691241e+003,2.376520e-001
3.695098e+003,2.317277e-001
3.698955e+003,2.319576e-001
3.702812e+003,2.274562e-001
3.706669e+003,2.142062e-001
3.710526e+003,1.999611e-001
3.714384e+003,1.959479e-001
3.718241e+003,1.914674e-001
3.722098e+003,1.841200e-001
3.725955e+003,1.827202e-001
3.729812e+003,1.804485e-001
3.733669e+003,1.755295e-001
3.737526e+003,1.725063e-001
3.741383e+003,1.732332e-001
3.745240e+003,1.701763e-001
3.749097e+003,1.694309e-001
3.752955e+003,1.746146e-001
3.756812e+003,1.751519e-001
3.760669e+003,1.697450e-001
3.764526e+003,1.686958e-001
3.768383e+003,1.634283e-001
3.772240e+003,1.610495e-001
3.776097e+003,1.636024e-001
3.779954e+003,1.622048e-001
3.783811e+003,1.609773e-001
3.787668e+003,1.585465e-001
3.791525e+003,1.587981e-001
3.795383e+003,1.582126e-001
3.799240e+003,1.572272e-001
3.803097e+003,1.605810e-001
3.806954e+003,1.619463e-001
3.810811e+003,1.609343e-001
3.814668e+003,1.582762e-001
3.818525e+003,1.555149e-001
3.822382e+003,1.595131e-001
3.826239e+003,1.627092e-001
3.830096e+003,1.622796e-001
3.833954e+003,1.593066e-001
3.837811e+003,1.546021e-001
3.841668e+003,1.530131e-001
3.845525e+003,1.564864e-001
3.849382e+003,1.535878e-001
3.853239e+003,1.545730e-001
3.857096e+003,1.562918e-001
3.860953e+003,1.525826e-001
3.864810e+003,1.520247e-001
3.868667e+003,1.555306e-001
3.872524e+003,1.528060e-001
3.876382e+003,1.536444e-001
3.880239e+003,1.556065e-001
3.884096e+003,1.532701e-001
3.887953e+003,1.552190e-001
3.891810e+003,1.570078e-001
3.895667e+003,1.572534e-001
3.899524e+003,1.600909e-001
3.903381e+003,1.561132e-001
3.907238e+003,1.506556e-001
3.911095e+003,1.519420e-001
3.914953e+003,1.538198e-001
3.918810e+003,1.558991e-001
3.922667e+003,1.542532e-001
3.926524e+003,1.501395e-001
3.930381e+003,1.520193e-001
3.934238e+003,1.532913e-001
3.938095e+003,1.509632e-001
3.941952e+003,1.432100e-001
3.945809e+003,1.439808e-001
3.949667e+003,1.531919e-001
3.953523e+003,1.535669e-001
3.957381e+003,1.487164e-001
3.961238e+003,1.474952e-001
3.965095e+003,1.470295e-001
3.968952e+003,1.483169e-001
3.972809e+003,1.475469e-001
3.976666e+003,1.465138e-001
3.980523e+003,1.496719e-001
3.984380e+003,1.542238e-001
3.988237e+003,1.510947e-001
3.992094e+003,1.438965e-001
3.995952e+003,1.443963e-001
3.999809e+003,1.500142e-001
4.003666e+003,1.504288e-001
4.007523e+003,1.485425e-001
4.011380e+003,1.478856e-001
4.015237e+003,1.492592e-001
4.019094e+003,1.499691e-001
4.022951e+003,1.485155e-001
4.026808e+003,1.518176e-001
4.030666e+003,1.548605e-001
4.034522e+003,1.493840e-001
4.038380e+003,1.417263e-001
4.042237e+003,1.403894e-001
4.046094e+003,1.402514e-001
4.049951e+003,1.365371e-001
4.053808e+003,1.404029e-001
4.057665e+003,1.411616e-001
4.061522e+003,1.406531e-001
4.065379e+003,1.421933e-001
4.069236e+003,1.401201e-001
4.073094e+003,1.424084e-001
4.076951e+003,1.430804e-001
4.080808e+003,1.409975e-001
4.084665e+003,1.369861e-001
4.088522e+003,1.403714e-001
4.092379e+003,1.423171e-001
4.096236e+003,1.405826e-001
4.100093e+003,1.395754e-001
4.103950e+003,1.375693e-001
4.107808e+003,1.395741e-001
4.111665e+003,1.399015e-001
4.115521e+003,1.418169e-001
4.119379e+003,1.400892e-001
4.123236e+003,1.382575e-001
4.127093e+003,1.423827e-001
4.130950e+003,1.407526e-001
4.134807e+003,1.400611e-001
4.138664e+003,1.322670e-001
4.142521e+003,1.314210e-001
4.146378e+003,1.372509e-001
4.150235e+003,1.321774e-001
4.154093e+003,1.287744e-001
4.157950e+003,1.328926e-001
4.161807e+003,1.345888e-001
4.165664e+003,1.348824e-001
4.169521e+003,1.331638e-001
4.173378e+003,1.342155e-001
4.177235e+003,1.327305e-001
4.181092e+003,1.320748e-001
4.184949e+003,1.352282e-001
4.188807e+003,1.356556e-001
4.192664e+003,1.352913e-001
4.196521e+003,1.356505e-001
4.200378e+003,1.357950e-001
4.204235e+003,1.357640e-001
4.208092e+003,1.356003e-001
4.211949e+003,1.355680e-001
4.215806e+003,1.363576e-001
4.219663e+003,1.364610e-001
4.223521e+003,1.362505e-001
4.227377e+003,1.373115e-001
4.231234e+003,1.339255e-001
4.235092e+003,1.324674e-001
4.238949e+003,1.393538e-001
4.242806e+003,1.408125e-001
4.246663e+003,1.401139e-001
4.250520e+003,1.424992e-001
4.254377e+003,1.363953e-001
4.258234e+003,1.299855e-001
4.262091e+003,1.308214e-001
4.265948e+003,1.376709e-001
4.269806e+003,1.384266e-001
4.273663e+003,1.381447e-001
4.277520e+003,1.358280e-001
4.281377e+003,1.325889e-001
4.285234e+003,1.336482e-001
4.289091e+003,1.325021e-001
4.292948e+003,1.265522e-001
4.296805e+003,1.289220e-001
4.300662e+003,1.343412e-001
4.304520e+003,1.358150e-001
4.308376e+003,1.354650e-001
4.312233e+003,1.311799e-001
4.316091e+003,1.313350e-001
4.319948e+003,1.328559e-001
4.323805e+003,1.304008e-001
4.327662e+003,1.297055e-001
4.331519e+003,1.297170e-001
4.335376e+003,1.343632e-001
4.339233e+003,1.379906e-001
4.343090e+003,1.435928e-001
4.346947e+003,1.449027e-001
4.350805e+003,1.347665e-001
4.354662e+003,1.257447e-001
4.358519e+003,1.223217e-001
4.362376e+003,1.211713e-001
4.366233e+003,1.238851e-001
4.370090e+003,1.255993e-001
4.373947e+003,1.318002e-001
4.377804e+003,1.409297e-001
4.381661e+003,1.384064e-001
4.385519e+003,1.297215e-001
4.389375e+003,1.300240e-001
4.393232e+003,1.297503e-001
4.397090e+003,1.266059e-001
4.400947e+003,1.262064e-001
4.404804e+003,1.295707e-001
4.408661e+003,1.307373e-001
4.412518e+003,1.314423e-001
4.416375e+003,1.313394e-001
4.420232e+003,1.318616e-001
4.424089e+003,1.421106e-001
4.427946e+003,1.451099e-001
4.431804e+003,1.397937e-001
4.435661e+003,1.406093e-001
4.439518e+003,1.458264e-001
4.443375e+003,1.424682e-001
4.447232e+003,1.356331e-001
4.451089e+003,1.302781e-001
4.454946e+003,1.317381e-001
4.458803e+003,1.384580e-001
4.462660e+003,1.354894e-001
4.466518e+003,1.266102e-001
4.470375e+003,1.237278e-001
4.474231e+003,1.254752e-001
4.478089e+003,1.365678e-001
4.481946e+003,1.445794e-001
4.485803e+003,1.433551e-001
4.489660e+003,1.309644e-001
4.493517e+003,1.251202e-001
4.497375e+003,1.293949e-001
4.501231e+003,1.324615e-001
4.505088e+003,1.279246e-001
4.508946e+003,1.243417e-001
4.512803e+003,1.294563e-001
4.516660e+003,1.414050e-001
4.520517e+003,1.434313e-001
4.524374e+003,1.325523e-001
4.528231e+003,1.191388e-001
4.532088e+003,1.184544e-001
4.535945e+003,1.249726e-001
4.539802e+003,1.316587e-001
4.543660e+003,1.433112e-001
4.547517e+003,1.471462e-001
4.551374e+003,1.374985e-001
4.555231e+003,1.264877e-001
4.559088e+003,1.261434e-001
4.562945e+003,1.275908e-001
4.566802e+003,1.202719e-001
4.570659e+003,1.209537e-001
4.574516e+003,1.260885e-001
4.578374e+003,1.290058e-001
4.582230e+003,1.318366e-001
4.586087e+003,1.367450e-001
4.589945e+003,1.347205e-001
4.593802e+003,1.298290e-001
4.597659e+003,1.223983e-001
4.601516e+003,1.235415e-001
4.605373e+003,1.273916e-001
4.609230e+003,1.261877e-001
4.613087e+003,1.196154e-001
4.616944e+003,1.215248e-001
4.620801e+003,1.303786e-001
4.624659e+003,1.369746e-001
4.628516e+003,1.345700e-001
4.632373e+003,1.338982e-001
4.636230e+003,1.334313e-001
4.640087e+003,1.279049e-001
4.643944e+003,1.278403e-001
4.647801e+003,1.207028e-001
4.651658e+003,1.143434e-001
4.655515e+003,1.200666e-001
4.659373e+003,1.323886e-001
4.663229e+003,1.285355e-001
4.667086e+003,1.165164e-001
4.670944e+003,1.203150e-001
4.674801e+003,1.278402e-001
4.678658e+003,1.298170e-001
4.682515e+003,1.273444e-001
4.686372e+003,1.231094e-001
4.690229e+003,1.265828e-001
4.694086e+003,1.292231e-001
4.697943e+003,1.292744e-001
4.701800e+003,1.295104e-001
4.705658e+003,1.295346e-001
4.709515e+003,1.239916e-001
4.713372e+003,1.183154e-001
4.717229e+003,1.273454e-001
4.721086e+003,1.352008e-001
4.724943e+003,1.326080e-001
4.728800e+003,1.332509e-001
4.732657e+003,1.312213e-001
4.736514e+003,1.249195e-001
4.740372e+003,1.303086e-001
4.744229e+003,1.362502e-001
4.748085e+003,1.270023e-001
4.751943e+003,1.160430e-001
4.755800e+003,1.201666e-001
4.759657e+003,1.282917e-001
4.763514e+003,1.297300e-001
4.767371e+003,1.239500e-001
4.771228e+003,1.260407e-001
4.775085e+003,1.293585e-001
4.778942e+003,1.291653e-001
4.782799e+003,1.307580e-001
4.786657e+003,1.301247e-001
4.790514e+003,1.176853e-001
4.794371e+003,1.138519e-001
4.798228e+003,1.162352e-001
4.802085e+003,1.260058e-001
4.805942e+003,1.268374e-001
4.809799e+003,1.205187e-001
4.813656e+003,1.186892e-001
4.817513e+003,1.157129e-001
4.821371e+003,1.152908e-001
4.825228e+003,1.222198e-001
4.829084e+003,1.253566e-001
4.832942e+003,1.242740e-001
4.836799e+003,1.225938e-001
4.840656e+003,1.249129e-001
4.844513e+003,1.219119e-001
4.848370e+003,1.211420e-001
4.852227e+003,1.298980e-001
4.856084e+003,1.327035e-001
4.859941e+003,1.283142e-001
4.863798e+003,1.317745e-001
4.867656e+003,1.374533e-001
4.871513e+003,1.348856e-001
4.875370e+003,1.286276e-001
4.879227e+003,1.239068e-001
4.883084e+003,1.254066e-001
4.886941e+003,1.353814e-001
4.890798e+003,1.304936e-001
4.894655e+003,1.208353e-001
4.898512e+003,1.204204e-001
4.902370e+003,1.273272e-001
4.906227e+003,1.196175e-001
4.910083e+003,1.159840e-001
4.913941e+003,1.272658e-001
4.917798e+003,1.339120e-001
4.921655e+003,1.283225e-001
4.925512e+003,1.218368e-001
4.929369e+003,1.281050e-001
4.933226e+003,1.295232e-001
4.937083e+003,1.207394e-001
4.940940e+003,1.226039e-001
4.944797e+003,1.340351e-001
4.948655e+003,1.326154e-001
4.952512e+003,1.287619e-001
4.956369e+003,1.236194e-001
4.960226e+003,1.259529e-001
4.964083e+003,1.342395e-001
4.967940e+003,1.316133e-001
4.971797e+003,1.196137e-001
4.975654e+003,1.142762e-001
4.979511e+003,1.159465e-001
4.983369e+003,1.225837e-001
4.987226e+003,1.249229e-001
4.991083e+003,1.287376e-001
4.994940e+003,1.280430e-001
4.998797e+003,1.336477e-001
5.002654e+003,1.348779e-001
5.006511e+003,1.231781e-001
5.010368e+003,1.180046e-001
5.014225e+003,1.183166e-001
5.018083e+003,1.196791e-001
5.021939e+003,1.257074e-001
5.025796e+003,1.283145e-001
5.029654e+003,1.258789e-001
5.033511e+003,1.241323e-001
5.037368e+003,1.195913e-001
5.041225e+003,1.212749e-001
5.045082e+003,1.282228e-001
5.048939e+003,1.322383e-001
5.052796e+003,1.313563e-001
5.056653e+003,1.291960e-001
5.060510e+003,1.228185e-001
5.064368e+003,1.177993e-001
5.068225e+003,1.187827e-001
5.072082e+003,1.219225e-001
5.075939e+003,1.212991e-001
5.079796e+003,1.286779e-001
5.083653e+003,1.290739e-001
5.087510e+003,1.276311e-001
5.091367e+003,1.317678e-001
5.095224e+003,1.232167e-001
5.099082e+003,1.129751e-001
5.102938e+003,1.162029e-001
5.106795e+003,1.259901e-001
5.110653e+003,1.309807e-001
5.114510e+003,1.230376e-001
5.118367e+003,1.213751e-001
5.122224e+003,1.342350e-001
5.126081e+003,1.339602e-001
5.129938e+003,1.255182e-001
5.133795e+003,1.274650e-001
5.137652e+003,1.322217e-001
5.141509e+003,1.368869e-001
5.145367e+003,1.385604e-001
5.149224e+003,1.302545e-001
5.153081e+003,1.203020e-001
5.156938e+003,1.213687e-001
5.160795e+003,1.314440e-001
5.164652e+003,1.341360e-001
5.168509e+003,1.236921e-001
5.172366e+003,1.239017e-001
5.176223e+003,1.283713e-001
5.180081e+003,1.236432e-001
5.183938e+003,1.248764e-001
5.187794e+003,1.307268e-001
5.191652e+003,1.315664e-001
5.195509e+003,1.291875e-001
5.199366e+003,1.246181e-001
5.203223e+003,1.265857e-001
5.207080e+003,1.286357e-001
5.210937e+003,1.306947e-001
5.214794e+003,1.273433e-001
5.218651e+003,1.245871e-001
5.222508e+003,1.218505e-001
5.226366e+003,1.253936e-001
5.230223e+003,1.311166e-001
5.234080e+003,1.280960e-001
5.237937e+003,1.173621e-001
5.241794e+003,1.134577e-001
5.245651e+003,1.171023e-001
5.249508e+003,1.213828e-001
5.253365e+003,1.223189e-001
5.257222e+003,1.207886e-001
5.261080e+003,1.208034e-001
5.264937e+003,1.241263e-001
5.268793e+003,1.269243e-001
5.272651e+003,1.225286e-001
5.276508e+003,1.198220e-001
5.280365e+003,1.256720e-001
5.284222e+003,1.235869e-001
5.288079e+003,1.138083e-001
5.291936e+003,1.094369e-001
5.295793e+003,1.165934e-001
5.299650e+003,1.188150e-001
5.303507e+003,1.204855e-001
5.307365e+003,1.230433e-001
5.311222e+003,1.226821e-001
5.315079e+003,1.213965e-001
5.318936e+003,1.165341e-001
5.322793e+003,1.200900e-001
5.326650e+003,1.217951e-001
5.330507e+003,1.170545e-001
5.334364e+003,1.121998e-001
5.338221e+003,1.146781e-001
5.342079e+003,1.163618e-001
5.345936e+003,1.127034e-001
5.349792e+003,1.073274e-001
5.353650e+003,1.081330e-001
5.357507e+003,1.082422e-001
5.361364e+003,1.077723e-001
5.365221e+003,1.072355e-001
5.369078e+003,1.038902e-001
5.372935e+003,1.044717e-001
5.376792e+003,1.096170e-001
5.380649e+003,1.142241e-001
5.384506e+003,1.157261e-001
5.388364e+003,1.150480e-001
5.392221e+003,1.137657e-001
5.396078e+003,1.207583e-001
5.399935e+003,1.283464e-001
5.403792e+003,1.174497e-001
5.407649e+003,1.170527e-001
5.411506e+003,1.217557e-001
5.415363e+003,1.219741e-001
5.419220e+003,1.134719e-001
5.423078e+003,1.036104e-001
5.426935e+003,1.028515e-001
5.430792e+003,1.147822e-001
5.434649e+003,1.193904e-001
5.438506e+003,1.100444e-001
5.442363e+003,1.118111e-001
5.446220e+003,1.126206e-001
5.450077e+003,1.214065e-001
5.453934e+003,1.253123e-001
5.457792e+003,1.160523e-001
5.461648e+003,1.067333e-001
5.465505e+003,1.097867e-001
5.469363e+003,1.240893e-001
5.473220e+003,1.310647e-001
5.477077e+003,1.249325e-001
5.480934e+003,1.216785e-001
5.484791e+003,1.225680e-001
5.488648e+003,1.164329e-001
5.492505e+003,1.148445e-001
5.496362e+003,1.228807e-001
5.500219e+003,1.172683e-001
5.504077e+003,1.084804e-001
5.507934e+003,1.098486e-001
5.511791e+003,1.133716e-001
5.515648e+003,1.140237e-001
5.519505e+003,1.197929e-001
5.523362e+003,1.205089e-001
5.527219e+003,1.174754e-001
5.531076e+003,1.188121e-001
5.534933e+003,1.192223e-001
5.538791e+003,1.143243e-001
5.542647e+003,1.133035e-001
5.546504e+003,1.100999e-001
5.550362e+003,1.145758e-001
5.554219e+003,1.186200e-001
5.558076e+003,1.200798e-001
5.561933e+003,1.259893e-001
5.565790e+003,1.186673e-001
5.569647e+003,1.111179e-001
5.573504e+003,1.087444e-001
5.577361e+003,1.079229e-001
5.581218e+003,1.177126e-001
5.585076e+003,1.204864e-001
5.588933e+003,1.132512e-001
5.592790e+003,1.091292e-001
5.596647e+003,1.133867e-001
5.600504e+003,1.059221e-001
5.604361e+003,9.389750e-002
5.608218e+003,1.026265e-001
5.612075e+003,1.161173e-001
5.615932e+003,1.177779e-001
5.619790e+003,1.050584e-001
5.623646e+003,9.062561e-002
5.627503e+003,9.200200e-002
5.631361e+003,1.034187e-001
5.635218e+003,1.168747e-001
5.639075e+003,1.239237e-001
5.642932e+003,1.220800e-001
5.646789e+003,1.130851e-001
5.650646e+003,1.012594e-001
5.654503e+003,1.000975e-001
5.658360e+003,1.056859e-001
5.662217e+003,1.015759e-001
5.666075e+003,9.860032e-002
5.669932e+003,1.061159e-001
5.673789e+003,1.212860e-001
5.677646e+003,1.244499e-001
5.681503e+003,1.162039e-001
5.685360e+003,1.112459e-001
5.689217e+003,1.107868e-001
5.693074e+003,1.136104e-001
5.696931e+003,1.070040e-001
5.700789e+003,1.045790e-001
5.704646e+003,1.111909e-001
5.708502e+003,1.044844e-001
5.712360e+003,1.047008e-001
5.716217e+003,1.106330e-001
5.720074e+003,1.146059e-001
5.723931e+003,1.151981e-001
5.727788e+003,1.151154e-001
5.731645e+003,1.024982e-001
5.735502e+003,9.728898e-002
5.739359e+003,1.048653e-001
5.743216e+003,1.067329e-001
5.747074e+003,1.012239e-001
5.750931e+003,1.083577e-001
5.754788e+003,1.232653e-001
5.758645e+003,1.175456e-001
5.762502e+003,1.067679e-001
5.766359e+003,1.074501e-001
5.770216e+003,1.063515e-001
5.774073e+003,1.093427e-001
5.777930e+003,1.073321e-001
5.781788e+003,9.940179e-002
5.785645e+003,9.977010e-002
5.789501e+003,1.131525e-001
5.793359e+003,1.183041e-001
5.797216e+003,1.086065e-001
5.801073e+003,1.072667e-001
5.804930e+003,1.138495e-001
5.808787e+003,1.150214e-001
5.812644e+003,1.082053e-001
5.816501e+003,1.032198e-001
5.820358e+003,9.819602e-002
5.824215e+003,9.796853e-002
5.828073e+003,1.126865e-001
5.831930e+003,1.168657e-001
5.835787e+003,1.090645e-001
5.839644e+003,1.022663e-001
5.843501e+003,9.896553e-002
5.847358e+003,1.065069e-001
5.851215e+003,1.023183e-001
5.855072e+003,9.857009e-002
5.858929e+003,1.053606e-001
5.862787e+003,1.110225e-001
5.866644e+003,1.106172e-001
5.870500e+003,1.131966e-001
5.874358e+003,1.126316e-001
5.878215e+003,1.121572e-001
5.882072e+003,1.098757e-001
5.885929e+003,9.894132e-002
5.889786e+003,9.717409e-002
5.893643e+003,1.007243e-001
5.897500e+003,9.972128e-002
5.901357e+003,1.031578e-001
5.905214e+003,1.021737e-001
5.909072e+003,1.086614e-001
5.912929e+003,1.248115e-001
5.916786e+003,1.275737e-001
5.920643e+003,1.155537e-001
5.924500e+003,1.030874e-001
5.928357e+003,9.678341e-002
5.932214e+003,1.082897e-001
5.936071e+003,1.105808e-001
5.939928e+003,1.181037e-001
5.943786e+003,1.196718e-001
5.947643e+003,1.094789e-001
5.951500e+003,1.043326e-001
5.955357e+003,9.463158e-002
5.959214e+003,8.374418e-002
5.963071e+003,8.363607e-002
5.966928e+003,9.962979e-002
5.970785e+003,1.068587e-001
5.974642e+003,1.123554e-001
5.978500e+003,1.155723e-001
5.982356e+003,9.876014e-002
5.986213e+003,9.513542e-002
5.990071e+003,1.059199e-001
5.993928e+003,1.071363e-001
5.997785e+003,1.109772e-001
6.001642e+003,1.166987e-001
6.005499e+003,1.197257e-001
6.009356e+003,1.171034e-001
6.013213e+003,1.049814e-001
6.017070e+003,9.647866e-002
6.020927e+003,9.781319e-002
6.024785e+003,9.748735e-002
6.028642e+003,9.145342e-002
6.032499e+003,9.820234e-002
6.036356e+003,8.972917e-002
6.040213e+003,9.769177e-002
6.044070e+003,1.044888e-001
6.047927e+003,9.242077e-002
6.051784e+003,9.674545e-002
6.055641e+003,1.101069e-001
6.059499e+003,1.071285e-001
6.063355e+003,1.029300e-001
6.067212e+003,1.035967e-001
6.071070e+003,9.426767e-002
6.074927e+003,9.745330e-002
6.078784e+003,1.130526e-001
6.082641e+003,1.186919e-001
6.086498e+003,1.091173e-001
6.090355e+003,1.097772e-001
6.094212e+003,1.042986e-001
6.098069e+003,1.005132e-001
6.101926e+003,1.027958e-001
6.105784e+003,9.462617e-002
6.109641e+003,8.464315e-002
6.113498e+003,7.025235e-002
6.117355e+003,6.962074e-002
6.121212e+003,7.828408e-002
6.125069e+003,9.172619e-002
6.128926e+003,9.843262e-002
6.132783e+003,1.008673e-001
6.136640e+003,9.846056e-002
6.140498e+003,9.961350e-002
6.144354e+003,1.009045e-001
6.148211e+003,1.062053e-001
6.152069e+003,1.106131e-001
6.155926e+003,1.120690e-001
6.159783e+003,1.034853e-001
6.163640e+003,9.948082e-002
6.167497e+003,1.015605e-001
6.171354e+003,1.094704e-001
6.175211e+003,1.036827e-001
6.179068e+003,8.561936e-002
6.182925e+003,9.269550e-002
6.186783e+003,1.119574e-001
6.190640e+003,1.030894e-001
6.194497e+003,1.053498e-001
6.198354e+003,1.024016e-001
6.202211e+003,9.350496e-002
6.206068e+003,8.611532e-002
6.209925e+003,8.602189e-002
6.213782e+003,1.006121e-001
6.217639e+003,1.036666e-001
6.221497e+003,9.770567e-002
6.225354e+003,9.179745e-002
6.229210e+003,9.135585e-002
6.233068e+003,8.313908e-002
6.236925e+003,8.937526e-002
6.240782e+003,9.633701e-002
6.244639e+003,9.907891e-002
6.248496e+003,1.006991e-001
6.252353e+003,8.957937e-002
6.256210e+003,8.832751e-002
6.260067e+003,9.712747e-002
6.263924e+003,1.089072e-001
6.267782e+003,1.056000e-001
6.271639e+003,9.728492e-002
6.275496e+003,1.000778e-001
6.279353e+003,1.035098e-001
6.283210e+003,9.229380e-002
6.287067e+003,7.546581e-002
6.290924e+003,8.054534e-002
6.294781e+003,9.618139e-002
6.298638e+003,9.774538e-002
6.302496e+003,9.162258e-002
6.306353e+003,7.806265e-002
6.310209e+003,8.096510e-002
6.314067e+003,9.317814e-002
6.317924e+003,1.023555e-001
6.321781e+003,1.116629e-001
6.325638e+003,1.105610e-001
6.329495e+003,9.687609e-002
6.333352e+003,9.813800e-002
6.337209e+003,8.730303e-002
6.341066e+003,7.763851e-002
6.344923e+003,7.603931e-002
6.348780e+003,7.295813e-002
6.352638e+003,7.977853e-002
6.356495e+003,1.024569e-001
6.360352e+003,1.077465e-001
6.364209e+003,9.198643e-002
6.368066e+003,9.165678e-002
6.371923e+003,1.004730e-001
6.375780e+003,1.032384e-001
6.379637e+003,1.105277e-001
6.383494e+003,1.203352e-001
6.387352e+003,1.337913e-001
6.391208e+003,1.119175e-001
6.395065e+003,9.585812e-002
6.398923e+003,1.061184e-001
6.402780e+003,1.134598e-001
6.406637e+003,1.192760e-001
6.410494e+003,1.204840e-001
6.414351e+003,1.097030e-001
6.418208e+003,8.961565e-002
6.422065e+003,7.132848e-002
6.425922e+003,6.744771e-002
6.429779e+003,8.713522e-002
6.433637e+003,9.049014e-002
6.437494e+003,8.834559e-002
6.441351e+003,8.484870e-002
6.445208e+003,8.227657e-002
6.449065e+003,9.520102e-002
6.452922e+003,1.003239e-001
6.456779e+003,1.101452e-001
6.460636e+003,9.715278e-002
6.464493e+003,8.918301e-002
6.468351e+003,9.736460e-002
6.472208e+003,1.010444e-001
6.476064e+003,9.838686e-002
6.479922e+003,8.453082e-002
6.483779e+003,8.755691e-002
6.487636e+003,1.014277e-001
6.491493e+003,1.050358e-001
6.495350e+003,1.008955e-001
6.499207e+003,9.961249e-002
6.503064e+003,9.952740e-002
6.506921e+003,8.881959e-002
6.510778e+003,8.822032e-002
6.514636e+003,1.055383e-001
6.518493e+003,9.950673e-002
6.522350e+003,8.032946e-002
6.526207e+003,8.130351e-002
6.530064e+003,9.735242e-002
6.533921e+003,1.037402e-001
6.537778e+003,8.723518e-002
6.541635e+003,9.602065e-002
6.545492e+003,1.046440e-001
6.549350e+003,1.108244e-001
6.553207e+003,1.205860e-001
6.557063e+003,1.040474e-001
6.560921e+003,8.351328e-002
6.564778e+003,8.098359e-002
6.568635e+003,6.956696e-002
6.572492e+003,7.723878e-002
6.576349e+003,8.476493e-002
6.580206e+003,9.197505e-002
6.584063e+003,1.051481e-001
6.587920e+003,1.068004e-001
6.591777e+003,1.063790e-001
6.595635e+003,9.410864e-002
6.599492e+003,9.787691e-002
6.603349e+003,1.135918e-001
6.607206e+003,1.073477e-001
6.611063e+003,9.553254e-002
6.614920e+003,9.448669e-002
6.618777e+003,1.132556e-001
6.622634e+003,1.185548e-001
6.626491e+003,1.016750e-001
6.630349e+003,9.145310e-002
6.634206e+003,7.617813e-002
6.638063e+003,7.665930e-002
6.641920e+003,1.059925e-001
6.645777e+003,1.174905e-001
6.649634e+003,1.136540e-001
6.653491e+003,9.485469e-002
6.657348e+003,7.570352e-002
6.661205e+003,1.008431e-001
6.665063e+003,1.114682e-001
6.668919e+003,9.846371e-002
6.672776e+003,1.096390e-001
6.676634e+003,1.019853e-001
6.680491e+003,8.073049e-002
6.684348e+003,9.553919e-002
6.688205e+003,1.180514e-001
6.692062e+003,1.134670e-001
6.695919e+003,1.153558e-001
6.699776e+003,1.065999e-001
6.703633e+003,8.737174e-002
6.707490e+003,1.012550e-001
6.711348e+003,9.043391e-002
6.715205e+003,6.864219e-002
6.719062e+003,9.306227e-002
6.722919e+003,1.078102e-001
6.726776e+003,9.155016e-002
6.730633e+003,8.816203e-002
6.734490e+003,8.898475e-002
6.738347e+003,1.002819e-001
6.742204e+003,1.037773e-001
6.746062e+003,1.019976e-001
6.749918e+003,1.157882e-001
6.753775e+003,1.367140e-001
6.757633e+003,1.353602e-001
6.761490e+003,1.230859e-001
6.765347e+003,1.244628e-001
6.769204e+003,1.119165e-001
6.773061e+003,1.068873e-001
6.776918e+003,1.136913e-001
6.780775e+003,1.151168e-001
6.784632e+003,1.142055e-001
6.788489e+003,1.268389e-001
6.792347e+003,1.406775e-001
6.796204e+003,1.247553e-001
6.800061e+003,1.163820e-001
6.803918e+003,1.170673e-001
6.807775e+003,1.121246e-001
6.811632e+003,1.132479e-001
6.815489e+003,1.219176e-001
6.819346e+003,1.130507e-001
6.823203e+003,1.007542e-001
6.827061e+003,1.055349e-001
6.830917e+003,1.007701e-001
6.834774e+003,1.046812e-001
6.838632e+003,1.152117e-001
6.842489e+003,1.061007e-001
6.846346e+003,1.038428e-001
6.850203e+003,1.239552e-001
6.854060e+003,1.220563e-001
6.857917e+003,1.069222e-001
6.861774e+003,1.245797e-001
6.865631e+003,1.416813e-001
6.869488e+003,1.289125e-001
6.873346e+003,1.361950e-001
6.877203e+003,1.369678e-001
6.881060e+003,1.283694e-001
6.884917e+003,1.383683e-001
6.888774e+003,1.328970e-001
6.892631e+003,1.150626e-001
6.896488e+003,1.085952e-001
6.900345e+003,1.244041e-001
6.904202e+003,1.269188e-001
6.908060e+003,1.207704e-001
6.911917e+003,1.218985e-001
6.915773e+003,1.140478e-001
6.919631e+003,1.115865e-001
6.923488e+003,1.161292e-001
6.927345e+003,9.398458e-002
6.931202e+003,1.140381e-001
6.935059e+003,1.359838e-001
6.938916e+003,1.257880e-001
6.942773e+003,1.005016e-001
6.946630e+003,9.947407e-002
6.950487e+003,1.183333e-001
6.954345e+003,1.253912e-001
6.958202e+003,1.089129e-001
6.962059e+003,8.534967e-002
6.965916e+003,8.908892e-002
6.969773e+003,1.074569e-001
6.973630e+003,1.233185e-001
6.977487e+003,1.068438e-001
6.981344e+003,9.841254e-002
6.985201e+003,9.884483e-002
6.989059e+003,9.838612e-002
6.992916e+003,1.054706e-001
6.996772e+003,1.212426e-001
7.000630e+003,1.168244e-001
7.004487e+003,1.117649e-001
7.008344e+003,1.228180e-001
7.012201e+003,1.386654e-001
7.016058e+003,1.434067e-001
7.019915e+003,1.292792e-001
7.023772e+003,1.290119e-001
7.027629e+003,1.304247e-001
7.031486e+003,1.148289e-001
7.035344e+003,9.863184e-002
7.039201e+003,1.103384e-001
7.043058e+003,1.231783e-001
7.046915e+003,1.034429e-001
7.050772e+003,9.093540e-002
7.054629e+003,1.389183e-001
7.058486e+003,1.715148e-001
7.062343e+003,1.736550e-001
7.066200e+003,1.927275e-001
7.070058e+003,2.084195e-001
7.073915e+003,1.834295e-001
7.077771e+003,1.708157e-001
7.081629e+003,1.485215e-001
7.085486e+003,1.548108e-001
7.089343e+003,1.491073e-001
7.093200e+003,1.218870e-001
7.097057e+003,1.190035e-001
7.100914e+003,1.390340e-001
7.104771e+003,1.331644e-001
7.108628e+003,1.208728e-001
7.112485e+003,1.062844e-001
7.116343e+003,9.151797e-002
7.120200e+003,9.346846e-002
7.124057e+003,1.170699e-001
7.127914e+003,1.032938e-001
7.131771e+003,1.123255e-001
7.135628e+003,1.496913e-001
7.139485e+003,1.340202e-001
7.143342e+003,1.294996e-001
7.147199e+003,1.314792e-001
7.151057e+003,1.116161e-001
7.154914e+003,1.220376e-001
7.158771e+003,1.547095e-001
7.162628e+003,1.269736e-001
7.166485e+003,1.145059e-001
7.170342e+003,1.172246e-001
7.174199e+003,1.427621e-001
7.178056e+003,1.513203e-001
7.181913e+003,1.289463e-001
7.185771e+003,1.375237e-001
7.189627e+003,1.351845e-001
7.193484e+003,1.294201e-001
7.197342e+003,1.319135e-001
7.201199e+003,1.521717e-001
7.205056e+003,1.613813e-001
7.208913e+003,1.493930e-001
7.212770e+003,1.404719e-001
7.216627e+003,1.257827e-001
7.220484e+003,9.302910e-002
7.224341e+003,1.171026e-001
7.228198e+003,1.149660e-001
7.232056e+003,1.317634e-001
7.235913e+003,1.385490e-001
7.239770e+003,1.284683e-001
7.243627e+003,1.074443e-001
7.247484e+003,8.670744e-002
7.251341e+003,1.036987e-001
7.255198e+003,1.179084e-001
7.259055e+003,1.212876e-001
7.262912e+003,1.437756e-001
7.266770e+003,1.642909e-001
7.270626e+003,1.592317e-001
7.274483e+003,1.266582e-001
7.278341e+003,1.169713e-001
7.282198e+003,1.296781e-001
7.286055e+003,1.427949e-001
7.289912e+003,8.375619e-002
7.293769e+003,8.835030e-002
7.297626e+003,1.493834e-001
7.301483e+003,1.549754e-001
7.305340e+003,1.540735e-001
7.309197e+003,1.441367e-001
7.313055e+003,1.471065e-001
7.316912e+003,1.421206e-001
7.320769e+003,1.343570e-001
7.324626e+003,1.374204e-001
7.328483e+003,1.238498e-001
7.332340e+003,1.348282e-001
7.336197e+003,1.834972e-001
7.340054e+003,1.752147e-001
7.343911e+003,1.367700e-001
7.347769e+003,1.288866e-001
7.351625e+003,1.076309e-001
7.355482e+003,9.511018e-002
7.359340e+003,1.125311e-001
7.363197e+003,1.240790e-001
7.367054e+003,1.378012e-001
7.370911e+003,1.921998e-001
7.374768e+003,2.022067e-001
7.378625e+003,1.908409e-001
7.382482e+003,1.664201e-001
7.386339e+003,1.469848e-001
7.390196e+003,1.550553e-001
7.394054e+003,1.622144e-001
7.397911e+003,1.304490e-001
7.401768e+003,1.420188e-001
7.405625e+003,1.772642e-001
7.409482e+003,1.525177e-001
7.413339e+003,1.267973e-001
7.417196e+003,9.865811e-002
7.421053e+003,5.437807e-002
7.424910e+003,7.847101e-002
7.428768e+003,1.292428e-001
7.432625e+003,1.402491e-001
7.436481e+003,1.539711e-001
7.440339e+003,1.954705e-001
7.444196e+003,1.865430e-001
7.448053e+003,1.578131e-001
7.451910e+003,1.615810e-001
7.455767e+003,1.160008e-001
7.459624e+003,5.470961e-002
7.463481e+003,4.563024e-002
7.467338e+003,5.965995e-002
7.471195e+003,1.119512e-001
7.475053e+003,1.390201e-001
7.478910e+003,8.217382e-002
7.482767e+003,8.558885e-002
7.486624e+003,1.159651e-001
7.490481e+003,1.292029e-001
7.494338e+003,9.624560e-002
7.498195e+003,1.053199e-001
7.502052e+003,1.485526e-001
7.505909e+003,1.922028e-001
7.509767e+003,1.671094e-001
7.513624e+003,1.328181e-001
7.517480e+003,1.161634e-001
7.521338e+003,1.186194e-001
7.525195e+003,1.401544e-001
7.529052e+003,1.666761e-001
7.532909e+003,1.393806e-001
7.536766e+003,1.363186e-001
7.540623e+003,1.585584e-001
7.544480e+003,1.171472e-001
7.548337e+003,7.164884e-002
7.552194e+003,1.256541e-001
7.556052e+003,2.007269e-001
7.559909e+003,1.538217e-001
7.563766e+003,1.497383e-001
7.567623e+003,1.369502e-001
7.571480e+003,1.129875e-001
7.575337e+003,1.188471e-001
7.579194e+003,1.786077e-001
7.583051e+003,1.460230e-001
7.586908e+003,1.671921e-001
7.590766e+003,2.247632e-001
7.594623e+003,1.815259e-001
7.598479e+003,1.856027e-001
7.602337e+003,1.873085e-001
7.606194e+003,1.544489e-001
7.610051e+003,1.227932e-001
7.613908e+003,1.020588e-001
7.617765e+003,1.412194e-001
7.621622e+003,1.519216e-001
7.625479e+003,1.310884e-001
7.629336e+003,1.166660e-001
7.633193e+003,1.631797e-001
7.637051e+003,1.619648e-001
7.640908e+003,1.744484e-001
7.644765e+003,2.084018e-001
7.648622e+003,2.058664e-001
7.652479e+003,2.400329e-001
7.656336e+003,3.112215e-001
7.660193e+003,2.700283e-001
7.664050e+003,2.340979e-001
7.667907e+003,2.861674e-001
7.671765e+003,2.873595e-001
7.675622e+003,2.629632e-001
7.679479e+003,2.559000e-001
7.683336e+003,2.176817e-001
7.687193e+003,1.668336e-001
7.691050e+003,2.113701e-001
7.694907e+003,2.479371e-001
7.698764e+003,1.898407e-001
7.702621e+003,1.401204e-001
7.706479e+003,1.150152e-001
7.710335e+003,1.074327e-001
7.714192e+003,1.155473e-001
7.718050e+003,1.056350e-001
7.721907e+003,1.009994e-001
7.725764e+003,1.502033e-001
7.729621e+003,1.770633e-001
7.733478e+003,1.560857e-001
7.737335e+003,1.766610e-001
7.741192e+003,2.221981e-001
7.745049e+003,1.452493e-001
7.748906e+003,8.998158e-002
7.752764e+003,1.191675e-001
7.756621e+003,1.122539e-001
7.760478e+003,1.777354e-001
7.764335e+003,2.048395e-001
7.768192e+003,1.735575e-001
7.772049e+003,1.407291e-001
7.775906e+003,9.565790e-002
7.779763e+003,1.349219e-001
7.783620e+003,2.160568e-001
7.787478e+003,2.397466e-001
7.791334e+003,2.478914e-001
7.795191e+003,2.220166e-001
7.799049e+003,2.186954e-001
7.802906e+003,2.196841e-001
7.806763e+003,1.344260e-001
7.810620e+003,8.620304e-002
7.814477e+003,1.232484e-001
7.818334e+003,1.427556e-001
7.822191e+003,1.384161e-001
7.826048e+003,1.903454e-001
7.829905e+003,2.361958e-001
7.833763e+003,1.860383e-001
7.837620e+003,8.402272e-002
7.841477e+003,7.523368e-002
7.845334e+003,1.281306e-001
7.849191e+003,1.216218e-001
7.853048e+003,1.469156e-001
7.856905e+003,1.047653e-001
7.860762e+003,4.071232e-002
7.864619e+003,1.105029e-001
7.868477e+003,1.418366e-001
7.872333e+003,1.393579e-001
7.876190e+003,8.319838e-002
7.880048e+003,-1.406617e-002
7.883905e+003,-4.714081e-003
7.887762e+003,7.047205e-002
7.891619e+003,5.377418e-002
7.895476e+003,-1.766631e-002
7.899333e+003,2.437707e-002
7.903190e+003,1.062799e-001
7.907047e+003,1.266576e-002
7.910904e+003,4.193786e-002
7.914762e+003,1.659437e-001
7.918619e+003,1.880720e-001
7.922476e+003,1.651621e-001
7.926333e+003,1.996554e-001
7.930190e+003,1.318711e-001
7.934047e+003,4.997075e-002
7.937904e+003,5.723046e-002
7.941761e+003,4.149717e-002
7.945618e+003,2.844671e-002
7.949476e+003,1.172839e-001
7.953333e+003,1.703610e-001
7.957189e+003,1.015144e-001
7.961047e+003,1.545266e-001
7.964904e+003,1.378306e-001
7.968761e+003,2.112599e-001
7.972618e+003,2.732510e-001
7.976475e+003,1.671954e-001
7.980332e+003,9.867791e-002
7.984189e+003,1.299602e-001
7.988046e+003,1.586824e-001
7.991903e+003,2.011022e-001
7.995761e+003,2.292914e-001
7.999618e+003,2.298505e-001
