4.011380e+002,-2.609355e-001
4.049951e+002,-2.195913e-001
4.088522e+002,2.218877e-001
4.127093e+002,5.190107e-001
4.165664e+002,4.872856e-001
4.204235e+002,-1.719330e-001
4.242806e+002,-6.418926e-002
4.281377e+002,-1.235046e+000
4.319948e+002,6.000000e+000
4.358519e+002,6.000000e+000
4.397090e+002,6.000000e+000
4.435661e+002,-1.783513e-001
4.474232e+002,-2.789201e-001
4.512803e+002,-3.334787e-001
4.551374e+002,6.000000e+000
4.589945e+002,1.191680e-001
4.628516e+002,3.295606e-001
4.667087e+002,-6.198798e-001
4.705658e+002,3.183885e-001
4.744229e+002,-3.184740e-001
4.782800e+002,6.000000e+000
4.821371e+002,6.000000e+000
4.859941e+002,6.000000e+000
4.898513e+002,6.000000e+000
4.937083e+002,5.429748e-001
4.975654e+002,7.219290e-001
5.014225e+002,6.000000e+000
5.052796e+002,6.000000e+000
5.091367e+002,1.040409e+000
5.129938e+002,1.678779e-001
5.168509e+002,1.260458e-001
5.207080e+002,8.288371e-001
5.245651e+002,6.000000e+000
5.284222e+002,2.534700e-001
5.322793e+002,8.517408e-002
5.361364e+002,6.000000e+000
5.399935e+002,2.289519e-001
5.438506e+002,-1.075696e+000
5.477077e+002,6.000000e+000
5.515648e+002,6.000000e+000
5.554219e+002,6.000000e+000
5.592790e+002,6.000000e+000
5.631361e+002,6.000000e+000
5.669932e+002,-1.431809e-001
5.708503e+002,6.000000e+000
5.747074e+002,6.000000e+000
5.785645e+002,2.765759e-001
5.824216e+002,7.275036e-004
5.862787e+002,6.000000e+000
5.901357e+002,6.000000e+000
5.939929e+002,6.000000e+000
5.978499e+002,6.000000e+000
6.017070e+002,6.000000e+000
6.055641e+002,-8.155414e-001
6.094212e+002,6.000000e+000
6.132783e+002,2.225212e-001
6.171354e+002,-4.953727e-001
6.209925e+002,6.000000e+000
6.248496e+002,6.000000e+000
6.287067e+002,4.213387e-001
6.325638e+002,1.188173e-001
6.364209e+002,6.000000e+000
6.402780e+002,-6.412894e-003
6.441351e+002,3.292103e-001
6.479922e+002,3.528990e-002
6.518493e+002,-6.185027e-002
6.557064e+002,-3.724462e-002
6.595635e+002,6.000000e+000
6.634205e+002,6.000000e+000
6.672777e+002,-4.916148e-001
6.711348e+002,-3.722573e-001
6.749918e+002,1.507211e+000
6.788490e+002,6.000000e+000
6.827061e+002,2.686698e-001
6.865631e+002,4.139496e-002
6.904203e+002,4.364925e-002
6.942773e+002,-1.374010e-001
6.981344e+002,-1.429182e+000
7.019916e+002,-1.085972e+000
7.058486e+002,6.000000e+000
7.097057e+002,6.000000e+000
7.135629e+002,-1.361321e+000
7.174199e+002,6.000000e+000
7.212770e+002,9.805691e-001
7.251342e+002,1.964030e-001
7.289912e+002,7.674553e-002
7.328483e+002,-1.567926e+000
7.367054e+002,6.000000e+000
7.405625e+002,6.000000e+000
7.444196e+002,7.641791e-001
7.482767e+002,6.000000e+000
7.521338e+002,8.810385e-001
7.559908e+002,6.000000e+000
7.598480e+002,6.000000e+000
7.637051e+002,6.000000e+000
7.675621e+002,6.000000e+000
7.714193e+002,6.000000e+000
7.752764e+002,6.000000e+000
7.791334e+002,-1.966107e+000
7.829905e+002,-6.098958e-001
7.868477e+002,-9.148039e-001
7.907047e+002,-1.103478e+000
7.945618e+002,-1.126335e+000
7.984189e+002,-4.017851e-001
8.022760e+002,6.000000e+000
8.061331e+002,6.000000e+000
8.099902e+002,6.000000e+000
8.138473e+002,1.558188e+000
8.177044e+002,6.000000e+000
8.215615e+002,-3.069972e-001
8.254186e+002,6.000000e+000
8.292757e+002,4.757344e-001
8.331328e+002,6.000000e+000
8.369899e+002,6.000000e+000
8.408470e+002,6.000000e+000
8.447041e+002,6.000000e+000
8.485612e+002,6.000000e+000
8.524183e+002,6.000000e+000
8.562754e+002,6.000000e+000
8.601324e+002,6.000000e+000
8.639896e+002,6.000000e+000
8.678467e+002,7.865152e-001
8.717037e+002,9.740603e-001
8.755609e+002,6.000000e+000
8.794180e+002,6.000000e+000
8.832750e+002,1.326102e+000
8.871321e+002,7.913121e-001
8.909893e+002,8.345910e-001
8.948463e+002,9.175587e-001
8.987034e+002,1.060365e+000
9.025605e+002,1.815887e+000
9.064176e+002,1.894501e+000
9.102747e+002,1.715417e+000
9.141318e+002,6.000000e+000
9.179889e+002,6.000000e+000
9.218461e+002,3.678719e+000
9.257031e+002,1.939412e+000
9.295602e+002,6.000000e+000
9.334174e+002,6.000000e+000
9.372744e+002,6.000000e+000
9.411315e+002,1.644858e+000
9.449886e+002,1.120080e+000
9.488457e+002,1.592222e+000
9.527028e+002,1.656120e+000
9.565599e+002,6.000000e+000
9.604170e+002,6.000000e+000
9.642740e+002,6.000000e+000
9.681312e+002,1.474136e+000
9.719883e+002,6.000000e+000
9.758453e+002,6.000000e+000
9.797025e+002,6.000000e+000
9.835596e+002,6.000000e+000
9.874166e+002,6.000000e+000
9.912738e+002,6.000000e+000
9.951309e+002,6.000000e+000
9.989879e+002,1.775239e+000
1.002845e+003,1.461430e+000
1.006702e+003,1.567937e+000
1.010559e+003,1.486509e+000
1.014416e+003,1.900454e+000
1.018273e+003,6.000000e+000
1.022130e+003,6.000000e+000
1.025988e+003,1.666984e+000
1.029845e+003,1.407090e+000
1.033702e+003,1.462187e+000
1.037559e+003,2.314280e+000
1.041416e+003,2.745226e+000
1.045273e+003,6.000000e+000
1.049130e+003,6.000000e+000
1.052987e+003,1.616341e+000
1.056844e+003,1.527724e+000
1.060702e+003,1.389866e+000
1.064559e+003,1.237003e+000
1.068416e+003,1.332343e+000
1.072273e+003,1.424871e+000
1.076130e+003,1.518721e+000
1.079987e+003,1.429093e+000
1.083844e+003,1.375664e+000
1.087701e+003,1.553858e+000
1.091558e+003,1.545254e+000
1.095415e+003,1.404694e+000
1.099272e+003,1.311102e+000
1.103130e+003,1.299705e+000
1.106987e+003,1.329625e+000
1.110844e+003,1.324750e+000
1.114701e+003,1.333411e+000
1.118558e+003,1.255967e+000
1.122415e+003,1.216731e+000
1.126272e+003,1.179396e+000
1.130129e+003,1.107845e+000
1.133986e+003,1.192265e+000
1.137843e+003,1.279177e+000
1.141701e+003,1.272353e+000
1.145558e+003,1.286626e+000
1.149415e+003,1.185965e+000
1.153272e+003,1.080707e+000
1.157129e+003,1.137801e+000
1.160986e+003,1.207237e+000
1.164843e+003,1.165068e+000
1.168700e+003,1.104562e+000
1.172557e+003,1.110397e+000
1.176414e+003,1.074830e+000
1.180271e+003,1.059215e+000
1.184129e+003,1.084300e+000
1.187986e+003,1.079526e+000
1.191843e+003,1.065904e+000
1.195700e+003,1.112428e+000
1.199557e+003,1.128020e+000
1.203414e+003,1.111537e+000
1.207271e+003,1.090469e+000
1.211128e+003,1.107403e+000
1.214985e+003,1.049808e+000
1.218842e+003,9.632229e-001
1.222699e+003,9.364106e-001
1.226557e+003,8.880289e-001
1.230414e+003,8.501288e-001
1.234271e+003,8.034699e-001
1.238128e+003,7.442696e-001
1.241985e+003,7.052331e-001
1.245842e+003,6.938832e-001
1.249699e+003,6.588919e-001
1.253556e+003,5.994093e-001
1.257413e+003,5.843914e-001
1.261271e+003,5.883546e-001
1.265128e+003,5.618746e-001
1.268985e+003,5.327297e-001
1.272842e+003,5.118326e-001
1.276699e+003,4.812940e-001
1.280556e+003,4.644999e-001
1.284413e+003,4.527818e-001
1.288270e+003,4.399970e-001
1.292127e+003,4.393653e-001
1.295984e+003,4.383053e-001
1.299841e+003,4.189628e-001
1.303698e+003,4.005373e-001
1.307556e+003,3.950937e-001
1.311413e+003,3.950938e-001
1.315270e+003,3.900400e-001
1.319127e+003,3.798115e-001
1.322984e+003,3.721704e-001
1.326841e+003,3.733771e-001
1.330698e+003,3.694573e-001
1.334555e+003,3.556599e-001
1.338412e+003,3.496497e-001
1.342270e+003,3.603334e-001
1.346127e+003,3.587741e-001
1.349984e+003,3.433737e-001
1.353841e+003,3.300315e-001
1.357698e+003,3.315391e-001
1.361555e+003,3.349326e-001
1.365412e+003,3.274157e-001
1.369269e+003,3.321723e-001
1.373126e+003,3.338002e-001
1.376983e+003,3.266146e-001
1.380840e+003,3.363572e-001
1.384698e+003,3.459336e-001
1.388555e+003,3.472711e-001
1.392412e+003,3.546021e-001
1.396269e+003,3.711788e-001
1.400126e+003,3.792221e-001
1.403983e+003,3.945024e-001
1.407840e+003,4.041161e-001
1.411697e+003,4.024901e-001
1.415554e+003,4.037655e-001
1.419411e+003,4.196495e-001
1.423269e+003,4.305764e-001
1.427126e+003,4.320966e-001
1.430983e+003,4.135523e-001
1.434840e+003,4.064783e-001
1.438697e+003,4.146417e-001
1.442554e+003,4.227147e-001
1.446411e+003,4.110956e-001
1.450268e+003,3.994102e-001
1.454125e+003,4.007955e-001
1.457982e+003,3.931957e-001
1.461839e+003,3.766057e-001
1.465697e+003,3.733826e-001
1.469554e+003,3.669920e-001
1.473411e+003,3.595198e-001
1.477268e+003,3.597736e-001
1.481125e+003,3.764010e-001
1.484982e+003,3.902094e-001
1.488839e+003,3.966685e-001
1.492696e+003,3.958770e-001
1.496553e+003,4.073430e-001
1.500411e+003,4.222570e-001
1.504268e+003,4.203012e-001
1.508125e+003,4.152839e-001
1.511982e+003,4.062854e-001
1.515839e+003,4.016761e-001
1.519696e+003,4.077300e-001
1.523553e+003,4.107782e-001
1.527410e+003,4.083737e-001
1.531267e+003,3.956588e-001
1.535124e+003,3.798817e-001
1.538981e+003,3.750889e-001
1.542839e+003,3.622962e-001
1.546696e+003,3.518741e-001
1.550553e+003,3.423863e-001
1.554410e+003,3.371458e-001
1.558267e+003,3.403969e-001
1.562124e+003,3.404518e-001
1.565981e+003,3.330014e-001
1.569838e+003,3.175268e-001
1.573695e+003,3.080435e-001
1.577552e+003,3.085904e-001
1.581410e+003,3.098043e-001
1.585267e+003,3.103957e-001
1.589124e+003,3.179986e-001
1.592981e+003,3.257571e-001
1.596838e+003,3.306652e-001
1.600695e+003,3.416642e-001
1.604552e+003,3.606847e-001
1.608409e+003,3.740826e-001
1.612266e+003,3.892999e-001
1.616123e+003,4.128526e-001
1.619980e+003,4.337384e-001
1.623838e+003,4.521641e-001
1.627695e+003,4.685309e-001
1.631552e+003,4.806120e-001
1.635409e+003,4.918983e-001
1.639266e+003,4.879079e-001
1.643123e+003,4.719923e-001
1.646980e+003,4.654909e-001
1.650837e+003,4.672759e-001
1.654694e+003,4.573079e-001
1.658551e+003,4.387054e-001
1.662409e+003,4.245210e-001
1.666266e+003,4.095547e-001
1.670123e+003,3.914665e-001
1.673980e+003,3.789284e-001
1.677837e+003,3.608646e-001
1.681694e+003,3.425560e-001
1.685551e+003,3.312124e-001
1.689408e+003,3.226354e-001
1.693265e+003,3.157338e-001
1.697122e+003,3.054614e-001
1.700979e+003,2.898960e-001
1.704837e+003,2.831542e-001
1.708694e+003,2.867129e-001
1.712551e+003,2.877520e-001
1.716408e+003,2.881964e-001
1.720265e+003,2.886623e-001
1.724122e+003,2.826890e-001
1.727979e+003,2.816541e-001
1.731836e+003,2.893396e-001
1.735693e+003,2.936000e-001
1.739550e+003,2.860790e-001
1.743408e+003,2.782174e-001
1.747265e+003,2.827824e-001
1.751122e+003,2.813689e-001
1.754979e+003,2.806998e-001
1.758836e+003,2.867998e-001
1.762693e+003,2.893955e-001
1.766550e+003,2.908171e-001
1.770407e+003,2.885500e-001
1.774264e+003,2.806359e-001
1.778121e+003,2.782200e-001
1.781979e+003,2.773793e-001
1.785836e+003,2.730645e-001
1.789693e+003,2.686305e-001
1.793550e+003,2.628488e-001
1.797407e+003,2.600106e-001
1.801264e+003,2.576445e-001
1.805121e+003,2.574327e-001
1.808978e+003,2.563636e-001
1.812835e+003,2.544580e-001
1.816692e+003,2.522977e-001
1.820549e+003,2.460415e-001
1.824407e+003,2.437388e-001
1.828264e+003,2.457036e-001
1.832121e+003,2.460636e-001
1.835978e+003,2.452075e-001
1.839835e+003,2.451302e-001
1.843692e+003,2.484927e-001
1.847549e+003,2.534154e-001
1.851406e+003,2.522845e-001
1.855263e+003,2.474504e-001
1.859120e+003,2.476520e-001
1.862978e+003,2.489069e-001
1.866835e+003,2.501100e-001
1.870692e+003,2.464214e-001
1.874549e+003,2.461084e-001
1.878406e+003,2.468257e-001
1.882263e+003,2.515666e-001
1.886120e+003,2.520118e-001
1.889977e+003,2.491673e-001
1.893834e+003,2.474524e-001
1.897691e+003,2.451949e-001
1.901548e+003,2.418214e-001
1.905406e+003,2.430764e-001
1.909263e+003,2.425019e-001
1.913120e+003,2.350085e-001
1.916977e+003,2.336616e-001
1.920834e+003,2.300379e-001
1.924691e+003,2.230681e-001
1.928548e+003,2.240278e-001
1.932405e+003,2.257159e-001
1.936262e+003,2.243190e-001
1.940119e+003,2.192326e-001
1.943977e+003,2.113038e-001
1.947834e+003,2.096095e-001
1.951691e+003,2.169501e-001
1.955548e+003,2.160778e-001
1.959405e+003,2.119497e-001
1.963262e+003,2.104450e-001
1.967119e+003,2.123685e-001
1.970976e+003,2.173057e-001
1.974833e+003,2.246060e-001
1.978690e+003,2.281082e-001
1.982547e+003,2.282139e-001
1.986405e+003,2.239072e-001
1.990262e+003,2.190802e-001
1.994119e+003,2.227718e-001
1.997976e+003,2.304105e-001
2.001833e+003,2.360251e-001
2.005690e+003,2.341418e-001
2.009547e+003,2.296696e-001
2.013404e+003,2.283197e-001
2.017261e+003,2.288960e-001
2.021118e+003,2.261217e-001
2.024976e+003,2.202896e-001
2.028833e+003,2.189891e-001
2.032690e+003,2.180744e-001
2.036547e+003,2.169107e-001
2.040404e+003,2.132466e-001
2.044261e+003,2.110323e-001
2.048118e+003,2.112484e-001
2.051975e+003,2.070054e-001
2.055832e+003,2.055212e-001
2.059689e+003,1.980028e-001
2.063546e+003,1.933713e-001
2.067404e+003,1.895363e-001
2.071261e+003,1.861098e-001
2.075118e+003,1.917355e-001
2.078975e+003,1.924141e-001
2.082832e+003,1.905724e-001
2.086689e+003,1.964437e-001
2.090546e+003,1.970535e-001
2.094403e+003,1.949015e-001
2.098260e+003,1.981784e-001
2.102117e+003,1.997254e-001
2.105975e+003,2.007342e-001
2.109832e+003,2.066128e-001
2.113689e+003,2.099805e-001
2.117546e+003,2.094417e-001
2.121403e+003,2.098798e-001
2.125260e+003,2.123194e-001
2.129117e+003,2.150742e-001
2.132974e+003,2.159365e-001
2.136831e+003,2.118753e-001
2.140688e+003,2.081029e-001
2.144545e+003,2.095152e-001
2.148403e+003,2.085940e-001
2.152260e+003,2.113111e-001
2.156117e+003,2.150358e-001
2.159974e+003,2.129112e-001
2.163831e+003,2.072594e-001
2.167688e+003,2.052877e-001
2.171545e+003,2.021795e-001
2.175402e+003,1.988003e-001
2.179259e+003,2.023114e-001
2.183116e+003,1.988963e-001
2.186974e+003,1.965534e-001
2.190831e+003,1.983205e-001
2.194688e+003,1.971683e-001
2.198545e+003,1.947434e-001
2.202402e+003,1.903233e-001
2.206259e+003,1.940039e-001
2.210116e+003,1.978340e-001
2.213973e+003,1.959762e-001
2.217830e+003,1.970496e-001
2.221688e+003,2.015055e-001
2.225544e+003,2.083505e-001
2.229402e+003,2.112450e-001
2.233259e+003,2.091073e-001
2.237116e+003,2.080666e-001
2.240973e+003,2.139555e-001
2.244830e+003,2.200593e-001
2.248687e+003,2.201190e-001
2.252544e+003,2.172999e-001
2.256401e+003,2.147283e-001
2.260258e+003,2.210128e-001
2.264115e+003,2.226707e-001
2.267973e+003,2.228193e-001
2.271830e+003,2.245925e-001
2.275687e+003,2.229411e-001
2.279544e+003,2.238547e-001
2.283401e+003,2.203627e-001
2.287258e+003,2.119871e-001
2.291115e+003,2.095408e-001
2.294972e+003,2.108855e-001
2.298829e+003,2.059506e-001
2.302687e+003,2.022800e-001
2.306543e+003,2.027387e-001
2.310401e+003,2.030485e-001
2.314258e+003,2.027638e-001
2.318115e+003,2.017588e-001
2.321972e+003,1.938462e-001
2.325829e+003,1.853392e-001
2.329686e+003,1.888936e-001
2.333543e+003,1.940594e-001
2.337400e+003,1.916872e-001
2.341257e+003,1.924983e-001
2.345115e+003,1.926113e-001
2.348972e+003,1.928136e-001
2.352829e+003,1.938634e-001
2.356686e+003,1.999367e-001
2.360543e+003,2.019399e-001
2.364400e+003,1.968481e-001
2.368257e+003,1.958768e-001
2.372114e+003,2.087466e-001
2.375971e+003,2.219527e-001
2.379828e+003,2.247425e-001
2.383686e+003,2.318400e-001
2.387542e+003,2.331294e-001
2.391400e+003,2.267241e-001
2.395257e+003,2.188073e-001
2.399114e+003,2.180065e-001
2.402971e+003,2.201378e-001
2.406828e+003,2.175748e-001
2.410685e+003,2.136100e-001
2.414542e+003,2.150221e-001
2.418399e+003,2.145992e-001
2.422256e+003,2.107974e-001
2.426114e+003,2.067379e-001
2.429971e+003,2.040150e-001
2.433828e+003,1.999967e-001
2.437685e+003,1.981936e-001
2.441542e+003,1.998190e-001
2.445399e+003,1.969531e-001
2.449256e+003,1.900088e-001
2.453113e+003,1.873569e-001
2.456970e+003,1.907813e-001
2.460827e+003,1.891289e-001
2.464684e+003,1.895621e-001
2.468542e+003,1.923335e-001
2.472399e+003,1.937545e-001
2.476256e+003,1.988166e-001
2.480113e+003,2.026110e-001
2.483970e+003,2.034951e-001
2.487827e+003,2.050811e-001
2.491684e+003,2.100095e-001
2.495541e+003,2.129696e-001
2.499398e+003,2.083323e-001
2.503255e+003,2.054299e-001
2.507113e+003,2.056695e-001
2.510969e+003,2.122639e-001
2.514827e+003,2.192397e-001
2.518684e+003,2.204863e-001
2.522541e+003,2.181654e-001
2.526398e+003,2.136317e-001
2.530255e+003,2.115229e-001
2.534112e+003,2.108191e-001
2.537969e+003,2.122124e-001
2.541826e+003,2.127381e-001
2.545683e+003,2.155838e-001
2.549541e+003,2.162452e-001
2.553398e+003,2.111302e-001
2.557255e+003,2.079919e-001
2.561112e+003,2.051184e-001
2.564969e+003,2.036446e-001
2.568826e+003,2.014585e-001
2.572683e+003,1.967469e-001
2.576540e+003,1.966805e-001
2.580397e+003,1.976387e-001
2.584254e+003,1.987546e-001
2.588112e+003,1.994027e-001
2.591969e+003,1.989680e-001
2.595826e+003,2.052193e-001
2.599683e+003,2.094222e-001
2.603540e+003,2.099074e-001
2.607397e+003,2.128716e-001
2.611254e+003,2.200716e-001
2.615111e+003,2.248658e-001
2.618968e+003,2.241432e-001
2.622825e+003,2.320171e-001
2.626682e+003,2.376495e-001
2.630540e+003,2.410639e-001
2.634397e+003,2.458968e-001
2.638254e+003,2.433340e-001
2.642111e+003,2.378729e-001
2.645968e+003,2.372023e-001
2.649825e+003,2.435524e-001
2.653682e+003,2.456250e-001
2.657539e+003,2.423461e-001
2.661396e+003,2.421151e-001
2.665253e+003,2.415094e-001
2.669111e+003,2.472593e-001
2.672968e+003,2.473521e-001
2.676825e+003,2.431686e-001
2.680682e+003,2.456863e-001
2.684539e+003,2.397142e-001
2.688396e+003,2.315971e-001
2.692253e+003,2.338915e-001
2.696110e+003,2.420297e-001
2.699967e+003,2.437661e-001
2.703824e+003,2.405592e-001
2.707681e+003,2.389313e-001
2.711539e+003,2.380137e-001
2.715396e+003,2.363609e-001
2.719253e+003,2.412451e-001
2.723110e+003,2.439668e-001
2.726967e+003,2.445744e-001
2.730824e+003,2.503762e-001
2.734681e+003,2.583096e-001
2.738538e+003,2.622008e-001
2.742395e+003,2.623232e-001
2.746252e+003,2.640945e-001
2.750110e+003,2.713955e-001
2.753967e+003,2.744231e-001
2.757824e+003,2.751867e-001
2.761681e+003,2.779064e-001
2.765538e+003,2.766474e-001
2.769395e+003,2.773857e-001
2.773252e+003,2.847498e-001
2.777109e+003,2.926087e-001
2.780966e+003,2.932458e-001
2.784823e+003,2.915569e-001
2.788680e+003,2.927645e-001
2.792538e+003,2.943282e-001
2.796395e+003,2.943061e-001
2.800252e+003,2.909035e-001
2.804109e+003,2.899513e-001
2.807966e+003,2.918985e-001
2.811823e+003,2.982637e-001
2.815680e+003,3.005392e-001
2.819537e+003,3.044645e-001
2.823394e+003,3.006209e-001
2.827251e+003,3.025489e-001
2.831109e+003,3.120324e-001
2.834966e+003,3.121731e-001
2.838823e+003,3.086640e-001
2.842680e+003,3.077255e-001
2.846537e+003,3.125483e-001
2.850394e+003,3.162137e-001
2.854251e+003,3.177916e-001
2.858108e+003,3.226098e-001
2.861965e+003,3.282583e-001
2.865823e+003,3.310097e-001
2.869679e+003,3.344168e-001
2.873537e+003,3.422891e-001
2.877394e+003,3.507067e-001
2.881251e+003,3.436358e-001
2.885108e+003,3.393342e-001
2.888965e+003,3.479150e-001
2.892822e+003,3.519061e-001
2.896679e+003,3.520988e-001
2.900536e+003,3.539527e-001
2.904393e+003,3.607176e-001
2.908250e+003,3.661160e-001
2.912108e+003,3.721818e-001
2.915965e+003,3.767380e-001
2.919822e+003,3.749563e-001
2.923679e+003,3.740260e-001
2.927536e+003,3.714511e-001
2.931393e+003,3.720434e-001
2.935250e+003,3.700829e-001
2.939107e+003,3.767301e-001
2.942964e+003,3.901950e-001
2.946822e+003,3.865505e-001
2.950678e+003,3.778703e-001
2.954536e+003,3.783003e-001
2.958393e+003,3.811388e-001
2.962250e+003,3.817536e-001
2.966107e+003,3.888454e-001
2.969964e+003,3.963647e-001
2.973821e+003,4.041851e-001
2.977678e+003,4.041385e-001
2.981535e+003,4.061506e-001
2.985392e+003,4.121985e-001
2.989250e+003,4.118473e-001
2.993107e+003,4.158348e-001
2.996964e+003,4.215925e-001
3.000821e+003,4.285861e-001
3.004678e+003,4.305216e-001
3.008535e+003,4.364861e-001
3.012392e+003,4.422804e-001
3.016249e+003,4.421928e-001
3.020106e+003,4.505306e-001
3.023963e+003,4.574788e-001
3.027821e+003,4.530146e-001
3.031677e+003,4.540198e-001
3.035535e+003,4.621891e-001
3.039392e+003,4.707243e-001
3.043249e+003,4.732518e-001
3.047106e+003,4.726569e-001
3.050963e+003,4.814665e-001
3.054820e+003,4.835258e-001
3.058677e+003,4.843327e-001
3.062534e+003,4.870770e-001
3.066391e+003,4.841248e-001
3.070249e+003,4.896320e-001
3.074106e+003,4.980506e-001
3.077963e+003,5.020776e-001
3.081820e+003,5.035645e-001
3.085677e+003,5.025171e-001
3.089534e+003,4.999405e-001
3.093391e+003,4.935671e-001
3.097248e+003,5.026282e-001
3.101105e+003,5.142139e-001
3.104962e+003,5.188529e-001
3.108820e+003,5.236562e-001
3.112677e+003,5.301968e-001
3.116534e+003,5.338114e-001
3.120391e+003,5.349407e-001
3.124248e+003,5.427179e-001
3.128105e+003,5.423401e-001
3.131962e+003,5.387965e-001
3.135819e+003,5.544873e-001
3.139676e+003,5.703996e-001
3.143533e+003,5.708008e-001
3.147390e+003,5.666491e-001
3.151248e+003,5.642856e-001
3.155105e+003,5.626427e-001
3.158962e+003,5.722433e-001
3.162819e+003,5.843940e-001
3.166676e+003,5.909265e-001
3.170533e+003,5.961049e-001
3.174390e+003,5.952578e-001
3.178247e+003,5.992221e-001
3.182104e+003,5.975808e-001
3.185961e+003,6.026216e-001
3.189819e+003,6.165422e-001
3.193676e+003,6.062422e-001
3.197533e+003,5.827382e-001
3.201390e+003,5.756090e-001
3.205247e+003,5.891007e-001
3.209104e+003,6.053535e-001
3.212961e+003,6.104758e-001
3.216818e+003,6.236082e-001
3.220675e+003,6.265566e-001
3.224532e+003,6.165587e-001
3.228389e+003,6.164704e-001
3.232247e+003,6.326909e-001
3.236104e+003,6.406526e-001
3.239961e+003,6.219188e-001
3.243818e+003,6.023929e-001
3.247675e+003,6.178484e-001
3.251532e+003,6.453926e-001
3.255389e+003,6.457407e-001
3.259246e+003,6.366646e-001
3.263103e+003,6.529101e-001
3.266960e+003,6.632106e-001
3.270818e+003,6.621292e-001
3.274675e+003,6.670452e-001
3.278532e+003,6.780890e-001
3.282389e+003,6.760678e-001
3.286246e+003,6.644537e-001
3.290103e+003,6.669118e-001
3.293960e+003,6.826698e-001
3.297817e+003,6.872532e-001
3.301674e+003,6.766118e-001
3.305531e+003,6.788598e-001
3.309388e+003,6.926688e-001
3.313246e+003,6.985572e-001
3.317103e+003,6.918736e-001
3.320960e+003,6.854615e-001
3.324817e+003,6.824537e-001
3.328674e+003,6.836286e-001
3.332531e+003,6.948552e-001
3.336388e+003,7.091259e-001
3.340245e+003,6.982869e-001
3.344102e+003,7.029227e-001
3.347959e+003,7.170252e-001
3.351817e+003,7.048969e-001
3.355674e+003,6.940507e-001
3.359531e+003,7.037429e-001
3.363388e+003,7.117433e-001
3.367245e+003,7.182830e-001
3.371102e+003,7.115769e-001
3.374959e+003,7.148336e-001
3.378816e+003,7.202700e-001
3.382673e+003,7.297537e-001
3.386530e+003,7.330981e-001
3.390387e+003,7.256920e-001
3.394245e+003,7.210021e-001
3.398102e+003,7.308996e-001
3.401959e+003,7.495777e-001
3.405816e+003,7.474849e-001
3.409673e+003,7.513130e-001
3.413530e+003,7.630031e-001
3.417387e+003,7.715332e-001
3.421244e+003,7.722862e-001
3.425101e+003,7.659408e-001
3.428958e+003,7.697133e-001
3.432815e+003,7.709307e-001
3.436673e+003,7.742458e-001
3.440530e+003,7.610608e-001
3.444387e+003,7.606355e-001
3.448244e+003,7.680340e-001
3.452101e+003,7.787603e-001
3.455958e+003,7.877029e-001
3.459815e+003,7.961009e-001
3.463672e+003,8.004221e-001
3.467529e+003,7.871895e-001
3.471386e+003,7.785574e-001
3.475244e+003,7.719858e-001
3.479101e+003,7.568946e-001
3.482958e+003,7.546470e-001
3.486815e+003,7.607206e-001
3.490672e+003,7.719669e-001
3.494529e+003,7.683346e-001
3.498386e+003,7.509662e-001
3.502243e+003,7.499810e-001
3.506100e+003,7.708483e-001
3.509958e+003,7.701219e-001
3.513814e+003,7.649991e-001
3.517672e+003,7.757897e-001
3.521529e+003,7.860837e-001
3.525386e+003,8.091165e-001
3.529243e+003,8.031496e-001
3.533100e+003,7.994710e-001
3.536957e+003,8.034627e-001
3.540814e+003,7.813782e-001
3.544671e+003,7.833522e-001
3.548528e+003,7.864382e-001
3.552385e+003,7.557438e-001
3.556243e+003,7.473318e-001
3.560100e+003,7.757077e-001
3.563957e+003,8.071259e-001
3.567814e+003,7.925993e-001
3.571671e+003,7.693505e-001
3.575528e+003,7.541928e-001
3.579385e+003,7.327574e-001
3.583242e+003,7.226242e-001
3.587099e+003,7.269316e-001
3.590957e+003,7.120035e-001
3.594813e+003,6.987967e-001
3.598671e+003,6.881740e-001
3.602528e+003,6.648774e-001
3.606385e+003,6.451032e-001
3.610242e+003,6.376556e-001
3.614099e+003,6.085343e-001
3.617956e+003,5.909311e-001
3.621813e+003,5.932102e-001
3.625670e+003,5.706139e-001
3.629527e+003,5.204598e-001
3.633385e+003,4.918137e-001
3.637242e+003,4.825082e-001
3.641099e+003,4.664072e-001
3.644956e+003,4.349747e-001
3.648813e+003,4.025806e-001
3.652670e+003,3.809967e-001
3.656527e+003,3.596444e-001
3.660384e+003,3.454432e-001
3.664241e+003,3.287987e-001
3.668098e+003,3.060984e-001
3.671956e+003,2.894264e-001
3.675813e+003,2.821264e-001
3.679670e+003,2.702856e-001
3.683527e+003,2.532724e-001
3.687384e+003,2.372494e-001
3.691241e+003,2.322395e-001
3.695098e+003,2.297750e-001
3.698955e+003,2.186161e-001
3.702812e+003,2.053322e-001
3.706669e+003,2.008612e-001
3.710526e+003,1.930332e-001
3.714384e+003,1.815769e-001
3.718241e+003,1.786915e-001
3.722098e+003,1.744586e-001
3.725955e+003,1.684100e-001
3.729812e+003,1.693324e-001
3.733669e+003,1.729339e-001
3.737526e+003,1.729705e-001
3.741383e+003,1.715089e-001
3.745240e+003,1.667958e-001
3.749097e+003,1.686835e-001
3.752955e+003,1.727392e-001
3.756812e+003,1.711064e-001
3.760669e+003,1.700800e-001
3.764526e+003,1.719081e-001
3.768383e+003,1.748675e-001
3.772240e+003,1.772319e-001
3.776097e+003,1.781714e-001
3.779954e+003,1.799689e-001
3.783811e+003,1.825789e-001
3.787668e+003,1.790174e-001
3.791525e+003,1.776067e-001
3.795383e+003,1.789818e-001
3.799240e+003,1.750176e-001
3.803097e+003,1.668507e-001
3.806954e+003,1.702514e-001
3.810811e+003,1.729764e-001
3.814668e+003,1.722029e-001
3.818525e+003,1.671153e-001
3.822382e+003,1.636028e-001
3.826239e+003,1.628069e-001
3.830096e+003,1.540311e-001
3.833954e+003,1.533639e-001
3.837811e+003,1.597407e-001
3.841668e+003,1.588702e-001
3.845525e+003,1.580334e-001
3.849382e+003,1.608612e-001
3.853239e+003,1.598431e-001
3.857096e+003,1.550793e-001
3.860953e+003,1.536258e-001
3.864810e+003,1.524886e-001
3.868667e+003,1.479896e-001
3.872524e+003,1.503995e-001
3.876382e+003,1.593345e-001
3.880239e+003,1.671330e-001
3.884096e+003,1.689712e-001
3.887953e+003,1.667339e-001
3.891810e+003,1.632403e-001
3.895667e+003,1.632821e-001
3.899524e+003,1.730094e-001
3.903381e+003,1.726411e-001
3.907238e+003,1.691082e-001
3.911095e+003,1.699695e-001
3.914953e+003,1.737902e-001
3.918810e+003,1.729496e-001
3.922667e+003,1.750537e-001
3.926524e+003,1.759499e-001
3.930381e+003,1.716185e-001
3.934238e+003,1.757415e-001
3.938095e+003,1.725520e-001
3.941952e+003,1.684089e-001
3.945809e+003,1.637769e-001
3.949667e+003,1.599508e-001
3.953523e+003,1.585838e-001
3.957381e+003,1.571860e-001
3.961238e+003,1.625761e-001
3.965095e+003,1.616852e-001
3.968952e+003,1.571909e-001
3.972809e+003,1.518263e-001
3.976666e+003,1.465352e-001
3.980523e+003,1.461048e-001
3.984380e+003,1.520591e-001
3.988237e+003,1.502758e-001
3.992094e+003,1.482317e-001
3.995952e+003,1.439225e-001
3.999809e+003,1.441124e-001
4.003666e+003,1.491826e-001
4.007523e+003,1.564832e-001
4.011380e+003,1.549668e-001
4.015237e+003,1.520836e-001
4.019094e+003,1.596397e-001
4.022951e+003,1.636835e-001
4.026808e+003,1.621143e-001
4.030666e+003,1.685959e-001
4.034522e+003,1.793230e-001
4.038380e+003,1.772190e-001
4.042237e+003,1.670057e-001
4.046094e+003,1.634562e-001
4.049951e+003,1.624524e-001
4.053808e+003,1.645820e-001
4.057665e+003,1.679175e-001
4.061522e+003,1.649300e-001
4.065379e+003,1.566170e-001
4.069236e+003,1.552835e-001
4.073094e+003,1.666642e-001
4.076951e+003,1.723623e-001
4.080808e+003,1.676798e-001
4.084665e+003,1.589074e-001
4.088522e+003,1.552097e-001
4.092379e+003,1.575816e-001
4.096236e+003,1.608472e-001
4.100093e+003,1.609690e-001
4.103950e+003,1.585613e-001
4.107808e+003,1.509593e-001
4.111665e+003,1.476744e-001
4.115521e+003,1.484277e-001
4.119379e+003,1.425810e-001
4.123236e+003,1.462204e-001
4.127093e+003,1.529778e-001
4.130950e+003,1.511214e-001
4.134807e+003,1.480365e-001
4.138664e+003,1.550022e-001
4.142521e+003,1.520997e-001
4.146378e+003,1.498462e-001
4.150235e+003,1.608868e-001
4.154093e+003,1.678419e-001
4.157950e+003,1.687029e-001
4.161807e+003,1.644117e-001
4.165664e+003,1.658282e-001
4.169521e+003,1.713266e-001
4.173378e+003,1.752579e-001
4.177235e+003,1.702299e-001
4.181092e+003,1.617932e-001
4.184949e+003,1.629240e-001
4.188807e+003,1.685390e-001
4.192664e+003,1.747312e-001
4.196521e+003,1.754396e-001
4.200378e+003,1.693456e-001
4.204235e+003,1.640558e-001
4.208092e+003,1.619422e-001
4.211949e+003,1.600514e-001
4.215806e+003,1.592764e-001
4.219663e+003,1.588844e-001
4.223521e+003,1.484169e-001
4.227377e+003,1.427568e-001
4.231234e+003,1.449865e-001
4.235092e+003,1.457442e-001
4.238949e+003,1.439671e-001
4.242806e+003,1.472297e-001
4.246663e+003,1.484069e-001
4.250520e+003,1.451730e-001
4.254377e+003,1.472762e-001
4.258234e+003,1.528413e-001
4.262091e+003,1.406485e-001
4.265948e+003,1.330776e-001
4.269806e+003,1.360380e-001
4.273663e+003,1.386580e-001
4.277520e+003,1.454653e-001
4.281377e+003,1.488163e-001
4.285234e+003,1.482679e-001
4.289091e+003,1.419854e-001
4.292948e+003,1.472941e-001
4.296805e+003,1.574322e-001
4.300662e+003,1.593493e-001
4.304520e+003,1.608432e-001
4.308376e+003,1.645160e-001
4.312233e+003,1.658559e-001
4.316091e+003,1.688877e-001
4.319948e+003,1.718122e-001
4.323805e+003,1.673144e-001
4.327662e+003,1.542504e-001
4.331519e+003,1.522521e-001
4.335376e+003,1.605183e-001
4.339233e+003,1.652756e-001
4.343090e+003,1.633379e-001
4.346947e+003,1.594469e-001
4.350805e+003,1.577350e-001
4.354662e+003,1.586904e-001
4.358519e+003,1.555053e-001
4.362376e+003,1.464922e-001
4.366233e+003,1.425531e-001
4.370090e+003,1.440328e-001
4.373947e+003,1.443064e-001
4.377804e+003,1.405305e-001
4.381661e+003,1.449783e-001
4.385519e+003,1.486266e-001
4.389375e+003,1.496991e-001
4.393232e+003,1.548162e-001
4.397090e+003,1.582364e-001
4.400947e+003,1.520797e-001
4.404804e+003,1.433374e-001
4.408661e+003,1.475762e-001
4.412518e+003,1.553902e-001
4.416375e+003,1.604163e-001
4.420232e+003,1.633580e-001
4.424089e+003,1.639467e-001
4.427946e+003,1.606973e-001
4.431804e+003,1.590833e-001
4.435661e+003,1.665577e-001
4.439518e+003,1.722101e-001
4.443375e+003,1.644939e-001
4.447232e+003,1.720509e-001
4.451089e+003,1.783706e-001
4.454946e+003,1.692139e-001
4.458803e+003,1.663755e-001
4.462660e+003,1.666370e-001
4.466518e+003,1.750344e-001
4.470375e+003,1.754100e-001
4.474231e+003,1.684937e-001
4.478089e+003,1.650419e-001
4.481946e+003,1.705723e-001
4.485803e+003,1.641860e-001
4.489660e+003,1.525705e-001
4.493517e+003,1.541813e-001
4.497375e+003,1.567704e-001
4.501231e+003,1.628108e-001
4.505088e+003,1.642202e-001
4.508946e+003,1.662548e-001
4.512803e+003,1.588490e-001
4.516660e+003,1.465593e-001
4.520517e+003,1.431145e-001
4.524374e+003,1.511621e-001
4.528231e+003,1.583938e-001
4.532088e+003,1.507074e-001
4.535945e+003,1.444717e-001
4.539802e+003,1.530615e-001
4.543660e+003,1.566035e-001
4.547517e+003,1.545649e-001
4.551374e+003,1.463771e-001
4.555231e+003,1.452655e-001
4.559088e+003,1.596620e-001
4.562945e+003,1.679832e-001
4.566802e+003,1.649056e-001
4.570659e+003,1.637037e-001
4.574516e+003,1.713401e-001
4.578374e+003,1.727154e-001
4.582230e+003,1.675122e-001
4.586087e+003,1.667401e-001
4.589945e+003,1.756814e-001
4.593802e+003,1.777287e-001
4.597659e+003,1.720054e-001
4.601516e+003,1.663775e-001
4.605373e+003,1.619475e-001
4.609230e+003,1.591799e-001
4.613087e+003,1.565071e-001
4.616944e+003,1.524471e-001
4.620801e+003,1.711080e-001
4.624659e+003,1.782622e-001
4.628516e+003,1.563660e-001
4.632373e+003,1.425660e-001
4.636230e+003,1.510206e-001
4.640087e+003,1.488475e-001
4.643944e+003,1.499684e-001
4.647801e+003,1.497959e-001
4.651658e+003,1.387144e-001
4.655515e+003,1.285187e-001
4.659373e+003,1.351842e-001
4.663229e+003,1.422135e-001
4.667086e+003,1.581592e-001
4.670944e+003,1.670725e-001
4.674801e+003,1.520135e-001
4.678658e+003,1.355172e-001
4.682515e+003,1.401776e-001
4.686372e+003,1.495678e-001
4.690229e+003,1.624193e-001
4.694086e+003,1.625523e-001
4.697943e+003,1.630269e-001
4.701800e+003,1.803912e-001
4.705658e+003,1.765973e-001
4.709515e+003,1.602329e-001
4.713372e+003,1.622511e-001
4.717229e+003,1.664053e-001
4.721086e+003,1.691676e-001
4.724943e+003,1.682916e-001
4.728800e+003,1.694503e-001
4.732657e+003,1.628791e-001
4.736514e+003,1.592587e-001
4.740372e+003,1.538834e-001
4.744229e+003,1.579931e-001
4.748085e+003,1.643062e-001
4.751943e+003,1.595930e-001
4.755800e+003,1.555446e-001
4.759657e+003,1.565552e-001
4.763514e+003,1.601870e-001
4.767371e+003,1.632564e-001
4.771228e+003,1.655245e-001
4.775085e+003,1.662504e-001
4.778942e+003,1.558998e-001
4.782799e+003,1.468460e-001
4.786657e+003,1.484360e-001
4.790514e+003,1.534815e-001
4.794371e+003,1.448776e-001
4.798228e+003,1.354693e-001
4.802085e+003,1.443232e-001
4.805942e+003,1.548598e-001
4.809799e+003,1.567246e-001
4.813656e+003,1.487216e-001
4.817513e+003,1.480219e-001
4.821371e+003,1.516210e-001
4.825228e+003,1.561870e-001
4.829084e+003,1.503438e-001
4.832942e+003,1.519880e-001
4.836799e+003,1.650044e-001
4.840656e+003,1.699349e-001
4.844513e+003,1.675813e-001
4.848370e+003,1.651649e-001
4.852227e+003,1.619801e-001
4.856084e+003,1.596179e-001
4.859941e+003,1.664187e-001
4.863798e+003,1.792386e-001
4.867656e+003,1.801021e-001
4.871513e+003,1.734968e-001
4.875370e+003,1.655286e-001
4.879227e+003,1.668165e-001
4.883084e+003,1.712905e-001
4.886941e+003,1.682441e-001
4.890798e+003,1.630205e-001
4.894655e+003,1.538527e-001
4.898512e+003,1.483738e-001
4.902370e+003,1.566811e-001
4.906227e+003,1.650445e-001
4.910083e+003,1.634016e-001
4.913941e+003,1.637757e-001
4.917798e+003,1.597393e-001
4.921655e+003,1.451846e-001
4.925512e+003,1.494043e-001
4.929369e+003,1.592112e-001
4.933226e+003,1.513942e-001
4.937083e+003,1.475412e-001
4.940940e+003,1.505718e-001
4.944797e+003,1.514565e-001
4.948655e+003,1.566184e-001
4.952512e+003,1.706985e-001
4.956369e+003,1.744254e-001
4.960226e+003,1.571528e-001
4.964083e+003,1.552307e-001
4.967940e+003,1.541084e-001
4.971797e+003,1.573507e-001
4.975654e+003,1.727752e-001
4.979511e+003,1.791965e-001
4.983369e+003,1.766304e-001
4.987226e+003,1.742634e-001
4.991083e+003,1.907124e-001
4.994940e+003,1.898769e-001
4.998797e+003,1.770250e-001
5.002654e+003,1.668516e-001
5.006511e+003,1.595745e-001
5.010368e+003,1.679778e-001
5.014225e+003,1.758249e-001
5.018083e+003,1.685030e-001
5.021939e+003,1.662731e-001
5.025796e+003,1.707182e-001
5.029654e+003,1.637771e-001
5.033511e+003,1.674513e-001
5.037368e+003,1.755644e-001
5.041225e+003,1.725031e-001
5.045082e+003,1.674315e-001
5.048939e+003,1.655695e-001
5.052796e+003,1.741643e-001
5.056653e+003,1.771921e-001
5.060510e+003,1.681966e-001
5.064368e+003,1.583021e-001
5.068225e+003,1.560928e-001
5.072082e+003,1.556464e-001
5.075939e+003,1.479959e-001
5.079796e+003,1.517682e-001
5.083653e+003,1.628176e-001
5.087510e+003,1.705644e-001
5.091367e+003,1.751603e-001
5.095224e+003,1.748797e-001
5.099082e+003,1.723331e-001
5.102938e+003,1.703582e-001
5.106795e+003,1.676750e-001
5.110653e+003,1.711811e-001
5.114510e+003,1.629811e-001
5.118367e+003,1.663586e-001
5.122224e+003,1.863999e-001
5.126081e+003,1.918109e-001
5.129938e+003,1.888671e-001
5.133795e+003,1.874504e-001
5.137652e+003,1.736272e-001
5.141509e+003,1.681871e-001
5.145367e+003,1.732415e-001
5.149224e+003,1.658679e-001
5.153081e+003,1.619916e-001
5.156938e+003,1.591297e-001
5.160795e+003,1.692725e-001
5.164652e+003,1.718564e-001
5.168509e+003,1.686990e-001
5.172366e+003,1.716432e-001
5.176223e+003,1.742646e-001
5.180081e+003,1.782352e-001
5.183938e+003,1.779273e-001
5.187794e+003,1.679421e-001
5.191652e+003,1.617851e-001
5.195509e+003,1.623092e-001
5.199366e+003,1.670367e-001
5.203223e+003,1.621570e-001
5.207080e+003,1.455593e-001
5.210937e+003,1.448523e-001
5.214794e+003,1.555035e-001
5.218651e+003,1.681630e-001
5.222508e+003,1.760096e-001
5.226366e+003,1.684657e-001
5.230223e+003,1.738615e-001
5.234080e+003,1.743290e-001
5.237937e+003,1.691350e-001
5.241794e+003,1.660395e-001
5.245651e+003,1.636013e-001
5.249508e+003,1.690668e-001
5.253365e+003,1.740820e-001
5.257222e+003,1.696747e-001
5.261080e+003,1.635786e-001
5.264937e+003,1.697797e-001
5.268793e+003,1.763717e-001
5.272651e+003,1.753548e-001
5.276508e+003,1.796980e-001
5.280365e+003,1.733131e-001
5.284222e+003,1.577644e-001
5.288079e+003,1.551786e-001
5.291936e+003,1.596803e-001
5.295793e+003,1.638505e-001
5.299650e+003,1.662481e-001
5.303507e+003,1.669084e-001
5.307365e+003,1.634938e-001
5.311222e+003,1.666322e-001
5.315079e+003,1.726244e-001
5.318936e+003,1.681828e-001
5.322793e+003,1.557487e-001
5.326650e+003,1.524930e-001
5.330507e+003,1.600603e-001
5.334364e+003,1.631927e-001
5.338221e+003,1.535411e-001
5.342079e+003,1.554953e-001
5.345936e+003,1.687147e-001
5.349792e+003,1.626667e-001
5.353650e+003,1.560353e-001
5.357507e+003,1.531154e-001
5.361364e+003,1.424910e-001
5.365221e+003,1.450234e-001
5.369078e+003,1.605686e-001
5.372935e+003,1.717292e-001
5.376792e+003,1.701652e-001
5.380649e+003,1.744169e-001
5.384506e+003,1.725905e-001
5.388364e+003,1.647890e-001
5.392221e+003,1.705171e-001
5.396078e+003,1.787660e-001
5.399935e+003,1.771890e-001
5.403792e+003,1.744317e-001
5.407649e+003,1.769391e-001
5.411506e+003,1.718823e-001
5.415363e+003,1.557309e-001
5.419220e+003,1.544508e-001
5.423078e+003,1.620241e-001
5.426935e+003,1.699181e-001
5.430792e+003,1.750703e-001
5.434649e+003,1.821057e-001
5.438506e+003,1.834415e-001
5.442363e+003,1.736971e-001
5.446220e+003,1.737855e-001
5.450077e+003,1.676546e-001
5.453934e+003,1.579855e-001
5.457792e+003,1.581391e-001
5.461648e+003,1.522511e-001
5.465505e+003,1.571354e-001
5.469363e+003,1.643348e-001
5.473220e+003,1.672744e-001
5.477077e+003,1.652263e-001
5.480934e+003,1.621167e-001
5.484791e+003,1.716505e-001
5.488648e+003,1.725716e-001
5.492505e+003,1.523584e-001
5.496362e+003,1.312045e-001
5.500219e+003,1.408151e-001
5.504077e+003,1.617651e-001
5.507934e+003,1.784612e-001
5.511791e+003,1.798641e-001
5.515648e+003,1.570902e-001
5.519505e+003,1.481009e-001
5.523362e+003,1.574823e-001
5.527219e+003,1.692043e-001
5.531076e+003,1.811875e-001
5.534933e+003,1.820437e-001
5.538791e+003,1.804530e-001
5.542647e+003,1.849678e-001
5.546504e+003,1.907503e-001
5.550362e+003,1.746455e-001
5.554219e+003,1.619530e-001
5.558076e+003,1.715219e-001
5.561933e+003,1.802028e-001
5.565790e+003,1.842093e-001
5.569647e+003,1.845099e-001
5.573504e+003,1.785677e-001
5.577361e+003,1.679039e-001
5.581218e+003,1.599206e-001
5.585076e+003,1.599038e-001
5.588933e+003,1.558021e-001
5.592790e+003,1.531702e-001
5.596647e+003,1.627166e-001
5.600504e+003,1.721586e-001
5.604361e+003,1.591110e-001
5.608218e+003,1.538086e-001
5.612075e+003,1.646893e-001
5.615932e+003,1.542501e-001
5.619790e+003,1.562710e-001
5.623646e+003,1.689361e-001
5.627503e+003,1.744333e-001
5.631361e+003,1.637872e-001
5.635218e+003,1.541223e-001
5.639075e+003,1.546207e-001
5.642932e+003,1.594445e-001
5.646789e+003,1.726495e-001
5.650646e+003,1.948241e-001
5.654503e+003,1.832940e-001
5.658360e+003,1.729666e-001
5.662217e+003,1.776996e-001
5.666075e+003,1.805692e-001
5.669932e+003,1.695135e-001
5.673789e+003,1.775804e-001
5.677646e+003,1.910263e-001
5.681503e+003,1.800846e-001
5.685360e+003,1.625066e-001
5.689217e+003,1.600194e-001
5.693074e+003,1.595123e-001
5.696931e+003,1.626720e-001
5.700789e+003,1.711973e-001
5.704646e+003,1.776896e-001
5.708502e+003,1.816295e-001
5.712360e+003,1.662102e-001
5.716217e+003,1.516732e-001
5.720074e+003,1.403348e-001
5.723931e+003,1.505359e-001
5.727788e+003,1.515558e-001
5.731645e+003,1.431686e-001
5.735502e+003,1.404112e-001
5.739359e+003,1.479245e-001
5.743216e+003,1.612498e-001
5.747074e+003,1.651964e-001
5.750931e+003,1.465836e-001
5.754788e+003,1.353735e-001
5.758645e+003,1.375410e-001
5.762502e+003,1.486515e-001
5.766359e+003,1.631081e-001
5.770216e+003,1.685558e-001
5.774073e+003,1.653557e-001
5.777930e+003,1.545266e-001
5.781788e+003,1.641717e-001
5.785645e+003,1.707664e-001
5.789501e+003,1.827584e-001
5.793359e+003,1.784122e-001
5.797216e+003,1.632429e-001
5.801073e+003,1.713817e-001
5.804930e+003,1.783990e-001
5.808787e+003,1.919790e-001
5.812644e+003,1.793564e-001
5.816501e+003,1.568810e-001
5.820358e+003,1.741636e-001
5.824215e+003,1.698354e-001
5.828073e+003,1.522385e-001
5.831930e+003,1.658696e-001
5.835787e+003,1.800874e-001
5.839644e+003,1.883386e-001
5.843501e+003,1.916731e-001
5.847358e+003,1.762471e-001
5.851215e+003,1.650938e-001
5.855072e+003,1.511115e-001
5.858929e+003,1.495251e-001
5.862787e+003,1.526134e-001
5.866644e+003,1.554223e-001
5.870500e+003,1.622982e-001
5.874358e+003,1.757511e-001
5.878215e+003,1.808614e-001
5.882072e+003,1.570706e-001
5.885929e+003,1.607985e-001
5.889786e+003,1.709520e-001
5.893643e+003,1.648865e-001
5.897500e+003,1.672099e-001
5.901357e+003,1.706654e-001
5.905214e+003,1.705777e-001
5.909072e+003,1.808889e-001
5.912929e+003,1.879836e-001
5.916786e+003,1.897085e-001
5.920643e+003,1.655458e-001
5.924500e+003,1.464573e-001
5.928357e+003,1.492395e-001
5.932214e+003,1.602230e-001
5.936071e+003,1.647234e-001
5.939928e+003,1.715212e-001
5.943786e+003,1.618801e-001
5.947643e+003,1.556894e-001
5.951500e+003,1.628390e-001
5.955357e+003,1.836949e-001
5.959214e+003,1.994899e-001
5.963071e+003,1.873033e-001
5.966928e+003,1.761651e-001
5.970785e+003,1.824946e-001
5.974642e+003,1.772831e-001
5.978500e+003,1.713986e-001
5.982356e+003,1.670659e-001
5.986213e+003,1.467954e-001
5.990071e+003,1.568586e-001
5.993928e+003,1.847888e-001
5.997785e+003,1.942160e-001
6.001642e+003,1.882631e-001
6.005499e+003,1.702142e-001
6.009356e+003,1.467854e-001
6.013213e+003,1.501921e-001
6.017070e+003,1.615673e-001
6.020927e+003,1.633751e-001
6.024785e+003,1.557705e-001
6.028642e+003,1.566570e-001
6.032499e+003,1.566444e-001
6.036356e+003,1.593241e-001
6.040213e+003,1.652348e-001
6.044070e+003,1.606102e-001
6.047927e+003,1.455900e-001
6.051784e+003,1.524769e-001
6.055641e+003,1.747760e-001
6.059499e+003,1.777692e-001
6.063355e+003,1.799391e-001
6.067212e+003,1.628976e-001
6.071070e+003,1.538445e-001
6.074927e+003,1.598951e-001
6.078784e+003,1.593933e-001
6.082641e+003,1.682732e-001
6.086498e+003,1.842579e-001
6.090355e+003,1.837751e-001
6.094212e+003,1.672498e-001
6.098069e+003,1.534822e-001
6.101926e+003,1.575534e-001
6.105784e+003,1.713910e-001
6.109641e+003,1.816149e-001
6.113498e+003,1.737130e-001
6.117355e+003,1.768269e-001
6.121212e+003,1.830818e-001
6.125069e+003,1.694960e-001
6.128926e+003,1.539302e-001
6.132783e+003,1.506823e-001
6.136640e+003,1.563188e-001
6.140498e+003,1.597392e-001
6.144354e+003,1.573611e-001
6.148211e+003,1.540265e-001
6.152069e+003,1.710619e-001
6.155926e+003,1.738703e-001
6.159783e+003,1.510238e-001
6.163640e+003,1.540470e-001
6.167497e+003,1.516381e-001
6.171354e+003,1.476762e-001
6.175211e+003,1.582114e-001
6.179068e+003,1.621282e-001
6.182925e+003,1.722769e-001
6.186783e+003,1.733377e-001
6.190640e+003,1.535866e-001
6.194497e+003,1.484637e-001
6.198354e+003,1.528098e-001
6.202211e+003,1.613445e-001
6.206068e+003,1.671949e-001
6.209925e+003,1.699573e-001
6.213782e+003,1.712580e-001
6.217639e+003,1.844985e-001
6.221497e+003,1.716266e-001
6.225354e+003,1.548145e-001
6.229210e+003,1.381553e-001
6.233068e+003,1.479175e-001
6.236925e+003,1.609454e-001
6.240782e+003,1.512041e-001
6.244639e+003,1.678935e-001
6.248496e+003,1.626316e-001
6.252353e+003,1.411811e-001
6.256210e+003,1.533964e-001
6.260067e+003,1.458616e-001
6.263924e+003,1.382132e-001
6.267782e+003,1.522512e-001
6.271639e+003,1.558614e-001
6.275496e+003,1.344767e-001
6.279353e+003,1.551045e-001
6.283210e+003,1.920039e-001
6.287067e+003,1.795769e-001
6.290924e+003,1.684993e-001
6.294781e+003,1.718725e-001
6.298638e+003,1.640212e-001
6.302496e+003,1.747223e-001
6.306353e+003,1.815048e-001
6.310209e+003,1.836103e-001
6.314067e+003,1.574483e-001
6.317924e+003,1.623424e-001
6.321781e+003,1.902043e-001
6.325638e+003,1.709933e-001
6.329495e+003,1.622091e-001
6.333352e+003,1.638214e-001
6.337209e+003,1.679676e-001
6.341066e+003,1.765344e-001
6.344923e+003,1.839821e-001
6.348780e+003,1.770536e-001
6.352638e+003,1.556481e-001
6.356495e+003,1.839446e-001
6.360352e+003,1.770158e-001
6.364209e+003,1.469395e-001
6.368066e+003,1.755372e-001
6.371923e+003,1.884430e-001
6.375780e+003,1.570071e-001
6.379637e+003,1.471742e-001
6.383494e+003,1.575311e-001
6.387352e+003,1.630401e-001
6.391208e+003,1.625489e-001
6.395065e+003,1.575934e-001
6.398923e+003,1.496990e-001
6.402780e+003,1.658838e-001
6.406637e+003,1.852936e-001
6.410494e+003,1.653426e-001
6.414351e+003,1.393670e-001
6.418208e+003,1.486015e-001
6.422065e+003,1.593647e-001
6.425922e+003,1.772304e-001
6.429779e+003,1.688034e-001
6.433637e+003,1.758233e-001
6.437494e+003,1.757146e-001
6.441351e+003,1.649087e-001
6.445208e+003,1.724278e-001
6.449065e+003,1.752097e-001
6.452922e+003,1.776163e-001
6.456779e+003,1.778732e-001
6.460636e+003,1.783126e-001
6.464493e+003,1.829393e-001
6.468351e+003,1.613409e-001
6.472208e+003,1.490068e-001
6.476064e+003,1.491536e-001
6.479922e+003,1.562736e-001
6.483779e+003,1.610272e-001
6.487636e+003,1.734574e-001
6.491493e+003,1.841320e-001
6.495350e+003,1.755667e-001
6.499207e+003,1.579294e-001
6.503064e+003,1.794605e-001
6.506921e+003,1.883063e-001
6.510778e+003,1.838594e-001
6.514636e+003,1.948552e-001
6.518493e+003,1.929699e-001
6.522350e+003,1.871444e-001
6.526207e+003,1.575434e-001
6.530064e+003,1.551701e-001
6.533921e+003,2.024616e-001
6.537778e+003,2.043950e-001
6.541635e+003,1.861430e-001
6.545492e+003,1.554636e-001
6.549350e+003,1.247886e-001
6.553207e+003,1.348554e-001
6.557063e+003,1.230999e-001
6.560921e+003,1.298018e-001
6.564778e+003,1.303109e-001
6.568635e+003,1.318685e-001
6.572492e+003,1.490194e-001
6.576349e+003,1.696205e-001
6.580206e+003,1.915467e-001
6.584063e+003,1.596799e-001
6.587920e+003,1.367761e-001
6.591777e+003,1.622847e-001
6.595635e+003,1.724739e-001
6.599492e+003,1.703786e-001
6.603349e+003,1.619870e-001
6.607206e+003,1.536371e-001
6.611063e+003,1.367181e-001
6.614920e+003,1.435585e-001
6.618777e+003,1.635705e-001
6.622634e+003,1.683373e-001
6.626491e+003,1.720834e-001
6.630349e+003,1.916245e-001
6.634206e+003,2.059988e-001
6.638063e+003,1.956523e-001
6.641920e+003,1.776016e-001
6.645777e+003,1.536755e-001
6.649634e+003,1.329808e-001
6.653491e+003,1.183255e-001
6.657348e+003,1.147371e-001
6.661205e+003,1.430601e-001
6.665063e+003,1.542086e-001
6.668919e+003,1.773340e-001
6.672776e+003,1.907164e-001
6.676634e+003,1.659909e-001
6.680491e+003,1.495423e-001
6.684348e+003,1.317220e-001
6.688205e+003,1.581679e-001
6.692062e+003,1.654931e-001
6.695919e+003,1.545325e-001
6.699776e+003,1.729703e-001
6.703633e+003,1.933342e-001
6.707490e+003,1.900332e-001
6.711348e+003,1.585709e-001
6.715205e+003,1.537819e-001
6.719062e+003,1.534986e-001
6.722919e+003,1.464268e-001
6.726776e+003,1.710960e-001
6.730633e+003,1.744100e-001
6.734490e+003,1.657766e-001
6.738347e+003,1.722801e-001
6.742204e+003,1.815767e-001
6.746062e+003,1.839202e-001
6.749918e+003,1.773018e-001
6.753775e+003,1.569386e-001
6.757633e+003,1.514581e-001
6.761490e+003,1.594327e-001
6.765347e+003,1.362472e-001
6.769204e+003,1.254047e-001
6.773061e+003,1.521320e-001
6.776918e+003,1.490973e-001
6.780775e+003,1.569665e-001
6.784632e+003,1.661860e-001
6.788489e+003,1.353104e-001
6.792347e+003,1.371798e-001
6.796204e+003,1.701251e-001
6.800061e+003,2.085849e-001
6.803918e+003,2.190294e-001
6.807775e+003,2.052807e-001
6.811632e+003,1.724685e-001
6.815489e+003,1.316393e-001
6.819346e+003,1.247400e-001
6.823203e+003,1.178222e-001
6.827061e+003,1.237993e-001
6.830917e+003,1.293459e-001
6.834774e+003,1.420700e-001
6.838632e+003,1.781923e-001
6.842489e+003,1.785669e-001
6.846346e+003,1.638718e-001
6.850203e+003,1.622990e-001
6.854060e+003,1.562608e-001
6.857917e+003,1.515860e-001
6.861774e+003,1.616581e-001
6.865631e+003,1.644597e-001
6.869488e+003,1.690551e-001
6.873346e+003,1.399446e-001
6.877203e+003,1.196981e-001
6.881060e+003,1.416304e-001
6.884917e+003,1.651742e-001
6.888774e+003,1.564578e-001
6.892631e+003,1.647720e-001
6.896488e+003,1.402860e-001
6.900345e+003,1.267723e-001
6.904202e+003,1.723583e-001
6.908060e+003,1.852668e-001
6.911917e+003,1.610668e-001
6.915773e+003,1.646271e-001
6.919631e+003,1.800013e-001
6.923488e+003,2.129948e-001
6.927345e+003,1.829315e-001
6.931202e+003,1.794974e-001
6.935059e+003,1.685021e-001
6.938916e+003,1.466592e-001
6.942773e+003,1.278775e-001
6.946630e+003,1.362302e-001
6.950487e+003,1.653740e-001
6.954345e+003,1.722472e-001
6.958202e+003,2.041701e-001
6.962059e+003,1.958673e-001
6.965916e+003,1.795686e-001
6.969773e+003,1.772250e-001
6.973630e+003,1.507385e-001
6.977487e+003,1.396157e-001
6.981344e+003,1.982142e-001
6.985201e+003,2.166944e-001
6.989059e+003,1.514273e-001
6.992916e+003,1.251136e-001
6.996772e+003,1.279903e-001
7.000630e+003,1.468552e-001
7.004487e+003,1.216920e-001
7.008344e+003,1.160104e-001
7.012201e+003,1.307192e-001
7.016058e+003,1.716475e-001
7.019915e+003,1.680912e-001
7.023772e+003,1.578012e-001
7.027629e+003,1.466861e-001
7.031486e+003,1.145571e-001
7.035344e+003,1.033199e-001
7.039201e+003,1.688481e-001
7.043058e+003,1.960181e-001
7.046915e+003,1.890937e-001
7.050772e+003,1.687521e-001
7.054629e+003,1.333571e-001
7.058486e+003,1.229674e-001
7.062343e+003,1.737384e-001
7.066200e+003,1.873168e-001
7.070058e+003,1.692111e-001
7.073915e+003,1.784513e-001
7.077771e+003,1.703784e-001
7.081629e+003,1.265386e-001
7.085486e+003,1.769736e-001
7.089343e+003,2.170684e-001
7.093200e+003,1.653543e-001
7.097057e+003,1.323203e-001
7.100914e+003,1.344726e-001
7.104771e+003,1.358847e-001
7.108628e+003,1.282327e-001
7.112485e+003,1.830135e-001
7.116343e+003,2.355541e-001
7.120200e+003,2.052218e-001
7.124057e+003,2.117552e-001
7.127914e+003,1.785404e-001
7.131771e+003,1.177863e-001
7.135628e+003,1.110358e-001
7.139485e+003,1.141680e-001
7.143342e+003,1.175114e-001
7.147199e+003,1.475791e-001
7.151057e+003,1.668825e-001
7.154914e+003,1.773849e-001
7.158771e+003,1.536676e-001
7.162628e+003,1.386454e-001
7.166485e+003,1.326621e-001
7.170342e+003,1.262683e-001
7.174199e+003,1.195306e-001
7.178056e+003,1.131275e-001
7.181913e+003,1.439023e-001
7.185771e+003,2.081629e-001
7.189627e+003,1.741654e-001
7.193484e+003,1.194599e-001
7.197342e+003,1.334897e-001
7.201199e+003,1.348583e-001
7.205056e+003,1.456890e-001
7.208913e+003,1.388975e-001
7.212770e+003,1.520266e-001
7.216627e+003,1.383664e-001
7.220484e+003,6.222577e-002
7.224341e+003,6.986270e-002
7.228198e+003,1.613648e-001
7.232056e+003,2.135715e-001
7.235913e+003,2.072031e-001
7.239770e+003,1.723373e-001
7.243627e+003,1.044561e-001
7.247484e+003,1.101763e-001
7.251341e+003,1.717541e-001
7.255198e+003,1.365846e-001
7.259055e+003,1.091981e-001
7.262912e+003,1.356033e-001
7.266770e+003,1.472854e-001
7.270626e+003,1.615488e-001
7.274483e+003,1.645217e-001
7.278341e+003,1.355528e-001
7.282198e+003,1.538324e-001
7.286055e+003,1.495904e-001
7.289912e+003,1.006772e-001
7.293769e+003,8.266750e-002
7.297626e+003,8.866960e-002
7.301483e+003,1.107695e-001
7.305340e+003,1.793424e-001
7.309197e+003,1.918973e-001
7.313055e+003,1.773996e-001
7.316912e+003,1.331850e-001
7.320769e+003,1.487985e-001
7.324626e+003,1.415544e-001
7.328483e+003,9.600305e-002
7.332340e+003,1.195191e-001
7.336197e+003,1.706147e-001
7.340054e+003,1.545805e-001
7.343911e+003,1.233714e-001
7.347769e+003,1.220887e-001
7.351625e+003,1.978645e-001
7.355482e+003,1.585211e-001
7.359340e+003,1.165787e-001
7.363197e+003,1.544925e-001
7.367054e+003,1.568322e-001
7.370911e+003,1.702942e-001
7.374768e+003,1.937192e-001
7.378625e+003,1.892453e-001
7.382482e+003,1.636715e-001
7.386339e+003,1.142632e-001
7.390196e+003,1.554877e-001
7.394054e+003,1.965134e-001
7.397911e+003,1.072791e-001
7.401768e+003,7.208093e-002
7.405625e+003,1.256617e-001
7.409482e+003,1.128554e-001
7.413339e+003,9.605761e-002
7.417196e+003,1.016279e-001
7.421053e+003,1.354305e-001
7.424910e+003,1.556392e-001
7.428768e+003,1.632678e-001
7.432625e+003,1.819151e-001
7.436481e+003,1.844382e-001
7.440339e+003,1.094705e-001
7.444196e+003,8.560637e-002
7.448053e+003,1.506795e-001
7.451910e+003,1.641547e-001
7.455767e+003,1.296639e-001
7.459624e+003,1.764255e-001
7.463481e+003,2.111269e-001
7.467338e+003,1.799648e-001
7.471195e+003,2.351923e-001
7.475053e+003,2.024452e-001
7.478910e+003,9.332685e-002
7.482767e+003,1.493260e-001
7.486624e+003,2.625894e-001
7.490481e+003,1.225768e-001
7.494338e+003,7.406826e-002
7.498195e+003,1.745243e-001
7.502052e+003,2.103277e-001
7.505909e+003,2.167839e-001
7.509767e+003,1.893017e-001
7.513624e+003,1.365020e-001
7.517480e+003,1.031594e-001
7.521338e+003,1.362005e-001
7.525195e+003,2.229632e-001
7.529052e+003,1.771704e-001
7.532909e+003,1.075714e-001
7.536766e+003,9.780219e-002
7.540623e+003,1.538960e-001
7.544480e+003,2.034508e-001
7.548337e+003,2.143183e-001
7.552194e+003,1.988829e-001
7.556052e+003,1.797542e-001
7.559909e+003,1.893692e-001
7.563766e+003,1.520035e-001
7.567623e+003,1.551640e-001
7.571480e+003,1.434899e-001
7.575337e+003,1.531730e-001
7.579194e+003,1.881464e-001
7.583051e+003,1.174174e-001
7.586908e+003,1.058870e-001
7.590766e+003,1.907246e-001
7.594623e+003,1.871577e-001
7.598479e+003,1.683228e-001
7.602337e+003,1.078656e-001
7.606194e+003,8.562045e-002
7.610051e+003,1.062703e-001
7.613908e+003,9.359044e-002
7.617765e+003,8.481805e-002
7.621622e+003,1.436816e-001
7.625479e+003,1.694722e-001
7.629336e+003,1.638982e-001
7.633193e+003,1.803075e-001
7.637051e+003,1.604027e-001
7.640908e+003,1.609797e-001
7.644765e+003,2.218433e-001
7.648622e+003,2.237806e-001
7.652479e+003,1.926675e-001
7.656336e+003,2.374251e-001
7.660193e+003,2.055244e-001
7.664050e+003,1.941817e-001
7.667907e+003,2.000574e-001
7.671765e+003,2.308581e-001
7.675622e+003,2.651696e-001
7.679479e+003,1.822297e-001
7.683336e+003,1.337039e-001
7.687193e+003,2.070501e-001
7.691050e+003,2.055787e-001
7.694907e+003,2.596103e-001
7.698764e+003,2.537071e-001
7.702621e+003,1.761416e-001
7.706479e+003,1.443819e-001
7.710335e+003,1.659269e-002
7.714192e+003,-7.696032e-002
7.718050e+003,5.077193e-002
7.721907e+003,1.837610e-001
7.725764e+003,1.542205e-001
7.729621e+003,3.501057e-002
7.733478e+003,4.976315e-002
7.737335e+003,1.399670e-001
7.741192e+003,1.825274e-001
7.745049e+003,2.327768e-001
7.748906e+003,2.492114e-001
7.752764e+003,2.090311e-001
7.756621e+003,1.816330e-001
7.760478e+003,1.594293e-001
7.764335e+003,1.888635e-001
7.768192e+003,1.826980e-001
7.772049e+003,1.310066e-001
7.775906e+003,2.299774e-001
7.779763e+003,1.924368e-001
7.783620e+003,1.265182e-001
7.787478e+003,1.669295e-001
7.791334e+003,2.209267e-001
7.795191e+003,2.689475e-001
7.799049e+003,2.380690e-001
7.802906e+003,2.162928e-001
7.806763e+003,3.220735e-001
7.810620e+003,4.166896e-001
7.814477e+003,3.660832e-001
7.818334e+003,2.637756e-001
7.822191e+003,1.955229e-001
7.826048e+003,1.588253e-001
7.829905e+003,1.242932e-001
7.833763e+003,8.047471e-002
7.837620e+003,2.377052e-002
7.841477e+003,7.261104e-002
7.845334e+003,1.152863e-001
7.849191e+003,2.483966e-001
7.853048e+003,3.084403e-001
7.856905e+003,2.418482e-001
7.860762e+003,1.621388e-001
7.864619e+003,1.357699e-001
7.868477e+003,1.527208e-001
7.872333e+003,2.576661e-001
7.876190e+003,2.323116e-001
7.880048e+003,1.750119e-001
7.883905e+003,7.803017e-002
7.887762e+003,6.750403e-003
7.891619e+003,8.999002e-002
7.895476e+003,1.494175e-001
7.899333e+003,6.292376e-002
7.903190e+003,1.298718e-001
7.907047e+003,1.360320e-001
7.910904e+003,9.961445e-002
7.914762e+003,5.352828e-002
7.918619e+003,7.501530e-002
7.922476e+003,1.320811e-001
7.926333e+003,1.584713e-001
7.930190e+003,1.162595e-001
7.934047e+003,5.177531e-002
7.937904e+003,2.118610e-001
7.941761e+003,4.004858e-001
7.945618e+003,3.292851e-001
7.949476e+003,1.665424e-001
7.953333e+003,2.034469e-002
7.957189e+003,1.048473e-001
7.961047e+003,2.221532e-001
7.964904e+003,2.206200e-001
7.968761e+003,2.074935e-001
7.972618e+003,1.478255e-001
7.976475e+003,1.800947e-001
7.980332e+003,2.812448e-001
7.984189e+003,2.599533e-001
7.988046e+003,7.244992e-002
7.991903e+003,3.033076e-002
7.995761e+003,7.855216e-002
7.999618e+003,6.826399e-002
