4.011380e+002,2.062473e-001
4.049951e+002,-2.336702e-002
4.088522e+002,-4.070606e-001
4.127093e+002,-9.420004e-001
4.165664e+002,2.354894e-001
4.204235e+002,6.000000e+000
4.242806e+002,2.063239e-001
4.281377e+002,-1.267045e-001
4.319948e+002,1.380829e+000
4.358519e+002,5.887689e-001
4.397090e+002,7.343106e-001
4.435661e+002,6.000000e+000
4.474232e+002,6.000000e+000
4.512803e+002,6.000000e+000
4.551374e+002,6.000000e+000
4.589945e+002,5.019934e-001
4.628516e+002,-5.908627e-001
4.667087e+002,6.000000e+000
4.705658e+002,6.000000e+000
4.744229e+002,4.102875e-001
4.782800e+002,-7.791612e-002
4.821371e+002,3.980904e-001
4.859941e+002,6.083604e-001
4.898513e+002,6.000000e+000
4.937083e+002,6.151668e-001
4.975654e+002,6.000000e+000
5.014225e+002,6.000000e+000
5.052796e+002,8.176570e-003
5.091367e+002,6.000000e+000
5.129938e+002,3.612199e-001
5.168509e+002,6.000000e+000
5.207080e+002,6.000000e+000
5.245651e+002,6.000000e+000
5.284222e+002,6.000000e+000
5.322793e+002,-4.027952e-002
5.361364e+002,6.000000e+000
5.399935e+002,3.643290e-002
5.438506e+002,-8.090192e-001
5.477077e+002,-7.867903e-001
5.515648e+002,-1.801239e+000
5.554219e+002,6.000000e+000
5.592790e+002,6.000000e+000
5.631361e+002,6.000000e+000
5.669932e+002,2.453512e-001
5.708503e+002,6.488364e-001
5.747074e+002,1.476597e-001
5.785645e+002,-9.082397e-002
5.824216e+002,-5.477700e-001
5.862787e+002,6.000000e+000
5.901357e+002,6.000000e+000
5.939929e+002,6.000000e+000
5.978499e+002,6.000000e+000
6.017070e+002,-8.577778e-001
6.055641e+002,6.000000e+000
6.094212e+002,6.000000e+000
6.132783e+002,6.000000e+000
6.171354e+002,7.253392e-001
6.209925e+002,-1.416114e+000
6.248496e+002,-3.940004e-001
6.287067e+002,7.623566e-002
6.325638e+002,-4.299562e-001
6.364209e+002,6.000000e+000
6.402780e+002,-8.450313e-002
6.441351e+002,9.335917e-001
6.479922e+002,2.640888e-001
6.518493e+002,3.798649e-003
6.557064e+002,6.000000e+000
6.595635e+002,3.379678e-001
6.634205e+002,3.626408e-001
6.672777e+002,3.373305e-001
6.711348e+002,6.000000e+000
6.749918e+002,-3.769952e-001
6.788490e+002,-1.063051e+000
6.827061e+002,6.000000e+000
6.865631e+002,-5.516839e-002
6.904203e+002,-9.946183e-002
6.942773e+002,6.000000e+000
6.981344e+002,-3.558073e-001
7.019916e+002,2.933909e-001
7.058486e+002,6.000000e+000
7.097057e+002,6.000000e+000
7.135629e+002,4.217168e-001
7.174199e+002,-1.207133e+000
7.212770e+002,-1.037711e+000
7.251342e+002,6.000000e+000
7.289912e+002,-4.299130e-001
7.328483e+002,4.175692e-002
7.367054e+002,6.000000e+000
7.405625e+002,7.957015e-001
7.444196e+002,1.781526e-001
7.482767e+002,8.815828e-001
7.521338e+002,4.827341e-001
7.559908e+002,7.816192e-001
7.598480e+002,1.380608e-001
7.637051e+002,-6.155941e-001
7.675621e+002,6.000000e+000
7.714193e+002,6.000000e+000
7.752764e+002,1.576536e+000
7.791334e+002,6.000000e+000
7.829905e+002,-1.349906e-001
7.868477e+002,6.000000e+000
7.907047e+002,6.000000e+000
7.945618e+002,6.000000e+000
7.984189e+002,6.000000e+000
8.022760e+002,6.000000e+000
8.061331e+002,6.000000e+000
8.099902e+002,6.000000e+000
8.138473e+002,-2.805873e-001
8.177044e+002,-4.935078e-001
8.215615e+002,2.958276e-001
8.254186e+002,-3.556312e-001
8.292757e+002,-5.172021e-001
8.331328e+002,3.677522e-001
8.369899e+002,6.000000e+000
8.408470e+002,6.000000e+000
8.447041e+002,8.132343e-001
8.485612e+002,6.000000e+000
8.524183e+002,1.131967e+000
8.562754e+002,2.567920e-001
8.601324e+002,1.165858e+000
8.639896e+002,2.020525e+000
8.678467e+002,4.796782e-001
8.717037e+002,5.334013e-001
8.755609e+002,5.187941e-001
8.794180e+002,5.022215e-001
8.832750e+002,7.974151e-001
8.871321e+002,9.495294e-001
8.909893e+002,1.046782e+000
8.948463e+002,6.000000e+000
8.987034e+002,6.000000e+000
9.025605e+002,1.282601e+000
9.064176e+002,6.000000e+000
9.102747e+002,1.506853e+000
9.141318e+002,9.125335e-001
9.179889e+002,9.793714e-001
9.218461e+002,1.402423e+000
9.257031e+002,6.000000e+000
9.295602e+002,1.938817e+000
9.334174e+002,6.000000e+000
9.372744e+002,6.000000e+000
9.411315e+002,6.000000e+000
9.449886e+002,6.000000e+000
9.488457e+002,6.000000e+000
9.527028e+002,1.569375e+000
9.565599e+002,2.020856e+000
9.604170e+002,6.000000e+000
9.642740e+002,6.000000e+000
9.681312e+002,1.340045e+000
9.719883e+002,2.367661e+000
9.758453e+002,6.000000e+000
9.797025e+002,2.643864e+000
9.835596e+002,2.136379e+000
9.874166e+002,1.750213e+000
9.912738e+002,2.049660e+000
9.951309e+002,6.000000e+000
9.989879e+002,6.000000e+000
1.002845e+003,2.215554e+000
1.006702e+003,1.442002e+000
1.010559e+003,1.645501e+000
1.014416e+003,3.256300e+000
1.018273e+003,1.826499e+000
1.022130e+003,1.371106e+000
1.025988e+003,1.453695e+000
1.029845e+003,1.525863e+000
1.033702e+003,1.323189e+000
1.037559e+003,1.231668e+000
1.041416e+003,1.348520e+000
1.045273e+003,1.342750e+000
1.049130e+003,1.451684e+000
1.052987e+003,1.579790e+000
1.056844e+003,1.779878e+000
1.060702e+003,1.664491e+000
1.064559e+003,1.424017e+000
1.068416e+003,1.175345e+000
1.072273e+003,1.118269e+000
1.076130e+003,1.209700e+000
1.079987e+003,1.272287e+000
1.083844e+003,1.271559e+000
1.087701e+003,1.348570e+000
1.091558e+003,1.431940e+000
1.095415e+003,1.335313e+000
1.099272e+003,1.162538e+000
1.103130e+003,1.061039e+000
1.106987e+003,9.994286e-001
1.110844e+003,9.511732e-001
1.114701e+003,9.485630e-001
1.118558e+003,1.003214e+000
1.122415e+003,1.084947e+000
1.126272e+003,1.080199e+000
1.130129e+003,1.055015e+000
1.133986e+003,1.049124e+000
1.137843e+003,9.810926e-001
1.141701e+003,9.732516e-001
1.145558e+003,9.795548e-001
1.149415e+003,9.650570e-001
1.153272e+003,9.252779e-001
1.157129e+003,9.021744e-001
1.160986e+003,9.266176e-001
1.164843e+003,9.318137e-001
1.168700e+003,9.566520e-001
1.172557e+003,9.439875e-001
1.176414e+003,8.882698e-001
1.180271e+003,8.596387e-001
1.184129e+003,8.523769e-001
1.187986e+003,8.360932e-001
1.191843e+003,8.606032e-001
1.195700e+003,9.151465e-001
1.199557e+003,8.833663e-001
1.203414e+003,7.956668e-001
1.207271e+003,7.521383e-001
1.211128e+003,7.485126e-001
1.214985e+003,7.307444e-001
1.218842e+003,6.876633e-001
1.222699e+003,6.445541e-001
1.226557e+003,6.031331e-001
1.230414e+003,5.771765e-001
1.234271e+003,5.529363e-001
1.238128e+003,5.340203e-001
1.241985e+003,5.201310e-001
1.245842e+003,4.762177e-001
1.249699e+003,4.319352e-001
1.253556e+003,4.049443e-001
1.257413e+003,3.925171e-001
1.261271e+003,3.773074e-001
1.265128e+003,3.694395e-001
1.268985e+003,3.563721e-001
1.272842e+003,3.422009e-001
1.276699e+003,3.227846e-001
1.280556e+003,3.062610e-001
1.284413e+003,3.048448e-001
1.288270e+003,2.948906e-001
1.292127e+003,2.872656e-001
1.295984e+003,2.968408e-001
1.299841e+003,2.977468e-001
1.303698e+003,2.813095e-001
1.307556e+003,2.658972e-001
1.311413e+003,2.536447e-001
1.315270e+003,2.513528e-001
1.319127e+003,2.486465e-001
1.322984e+003,2.457041e-001
1.326841e+003,2.423851e-001
1.330698e+003,2.415846e-001
1.334555e+003,2.451281e-001
1.338412e+003,2.366704e-001
1.342270e+003,2.252344e-001
1.346127e+003,2.250770e-001
1.349984e+003,2.196386e-001
1.353841e+003,2.147171e-001
1.357698e+003,2.130498e-001
1.361555e+003,2.042311e-001
1.365412e+003,2.068625e-001
1.369269e+003,2.089148e-001
1.373126e+003,2.118298e-001
1.376983e+003,2.154896e-001
1.380840e+003,2.256529e-001
1.384698e+003,2.314745e-001
1.388555e+003,2.337048e-001
1.392412e+003,2.459485e-001
1.396269e+003,2.540192e-001
1.400126e+003,2.604474e-001
1.403983e+003,2.612431e-001
1.407840e+003,2.592484e-001
1.411697e+003,2.724292e-001
1.415554e+003,2.850575e-001
1.419411e+003,2.883738e-001
1.423269e+003,2.947093e-001
1.427126e+003,2.992994e-001
1.430983e+003,2.887664e-001
1.434840e+003,2.741375e-001
1.438697e+003,2.835337e-001
1.442554e+003,2.938623e-001
1.446411e+003,2.943595e-001
1.450268e+003,2.966771e-001
1.454125e+003,2.848912e-001
1.457982e+003,2.677027e-001
1.461839e+003,2.582176e-001
1.465697e+003,2.618152e-001
1.469554e+003,2.652941e-001
1.473411e+003,2.643920e-001
1.477268e+003,2.690142e-001
1.481125e+003,2.703331e-001
1.484982e+003,2.723724e-001
1.488839e+003,2.789108e-001
1.492696e+003,2.810740e-001
1.496553e+003,2.858747e-001
1.500411e+003,2.828847e-001
1.504268e+003,2.769026e-001
1.508125e+003,2.866278e-001
1.511982e+003,2.935376e-001
1.515839e+003,2.897715e-001
1.519696e+003,2.875548e-001
1.523553e+003,2.912414e-001
1.527410e+003,2.918269e-001
1.531267e+003,2.812710e-001
1.535124e+003,2.728445e-001
1.538981e+003,2.740811e-001
1.542839e+003,2.745294e-001
1.546696e+003,2.615237e-001
1.550553e+003,2.570840e-001
1.554410e+003,2.620527e-001
1.558267e+003,2.619919e-001
1.562124e+003,2.478981e-001
1.565981e+003,2.409279e-001
1.569838e+003,2.429106e-001
1.573695e+003,2.327925e-001
1.577552e+003,2.264085e-001
1.581410e+003,2.239746e-001
1.585267e+003,2.248507e-001
1.589124e+003,2.255742e-001
1.592981e+003,2.248749e-001
1.596838e+003,2.260045e-001
1.600695e+003,2.274152e-001
1.604552e+003,2.371452e-001
1.608409e+003,2.532234e-001
1.612266e+003,2.584178e-001
1.616123e+003,2.622583e-001
1.619980e+003,2.791851e-001
1.623838e+003,2.966038e-001
1.627695e+003,2.996577e-001
1.631552e+003,3.105530e-001
1.635409e+003,3.210948e-001
1.639266e+003,3.192928e-001
1.643123e+003,3.137203e-001
1.646980e+003,3.161121e-001
1.650837e+003,3.179147e-001
1.654694e+003,3.013100e-001
1.658551e+003,2.935899e-001
1.662409e+003,2.921882e-001
1.666266e+003,2.854340e-001
1.670123e+003,2.805597e-001
1.673980e+003,2.700340e-001
1.677837e+003,2.604977e-001
1.681694e+003,2.510271e-001
1.685551e+003,2.426438e-001
1.689408e+003,2.386037e-001
1.693265e+003,2.368491e-001
1.697122e+003,2.345663e-001
1.700979e+003,2.383959e-001
1.704837e+003,2.428212e-001
1.708694e+003,2.367441e-001
1.712551e+003,2.289467e-001
1.716408e+003,2.294514e-001
1.720265e+003,2.297391e-001
1.724122e+003,2.270265e-001
1.727979e+003,2.192791e-001
1.731836e+003,2.171536e-001
1.735693e+003,2.198902e-001
1.739550e+003,2.185071e-001
1.743408e+003,2.146009e-001
1.747265e+003,2.119899e-001
1.751122e+003,2.182821e-001
1.754979e+003,2.233183e-001
1.758836e+003,2.197103e-001
1.762693e+003,2.228159e-001
1.766550e+003,2.221224e-001
1.770407e+003,2.134383e-001
1.774264e+003,2.148265e-001
1.778121e+003,2.172629e-001
1.781979e+003,2.134413e-001
1.785836e+003,2.063813e-001
1.789693e+003,1.958582e-001
1.793550e+003,1.953734e-001
1.797407e+003,1.951703e-001
1.801264e+003,1.908363e-001
1.805121e+003,1.937103e-001
1.808978e+003,1.955596e-001
1.812835e+003,1.942243e-001
1.816692e+003,1.895332e-001
1.820549e+003,1.898760e-001
1.824407e+003,1.938538e-001
1.828264e+003,1.976820e-001
1.832121e+003,1.933869e-001
1.835978e+003,1.948475e-001
1.839835e+003,1.986966e-001
1.843692e+003,1.988930e-001
1.847549e+003,2.027817e-001
1.851406e+003,1.997195e-001
1.855263e+003,1.927488e-001
1.859120e+003,1.913994e-001
1.862978e+003,1.914678e-001
1.866835e+003,1.926900e-001
1.870692e+003,1.940905e-001
1.874549e+003,1.953293e-001
1.878406e+003,1.937996e-001
1.882263e+003,1.941615e-001
1.886120e+003,1.958020e-001
1.889977e+003,1.901326e-001
1.893834e+003,1.864838e-001
1.897691e+003,1.866166e-001
1.901548e+003,1.867336e-001
1.905406e+003,1.866254e-001
1.909263e+003,1.864371e-001
1.913120e+003,1.785544e-001
1.916977e+003,1.734760e-001
1.920834e+003,1.760824e-001
1.924691e+003,1.753217e-001
1.928548e+003,1.716480e-001
1.932405e+003,1.701825e-001
1.936262e+003,1.708508e-001
1.940119e+003,1.713668e-001
1.943977e+003,1.651464e-001
1.947834e+003,1.602430e-001
1.951691e+003,1.583936e-001
1.955548e+003,1.604491e-001
1.959405e+003,1.592360e-001
1.963262e+003,1.564720e-001
1.967119e+003,1.579115e-001
1.970976e+003,1.581464e-001
1.974833e+003,1.636363e-001
1.978690e+003,1.658421e-001
1.982547e+003,1.639564e-001
1.986405e+003,1.695192e-001
1.990262e+003,1.743838e-001
1.994119e+003,1.700968e-001
1.997976e+003,1.631805e-001
2.001833e+003,1.667511e-001
2.005690e+003,1.712998e-001
2.009547e+003,1.723584e-001
2.013404e+003,1.700752e-001
2.017261e+003,1.736531e-001
2.021118e+003,1.776251e-001
2.024976e+003,1.753831e-001
2.028833e+003,1.733550e-001
2.032690e+003,1.724607e-001
2.036547e+003,1.771685e-001
2.040404e+003,1.741911e-001
2.044261e+003,1.701688e-001
2.048118e+003,1.690943e-001
2.051975e+003,1.665737e-001
2.055832e+003,1.645184e-001
2.059689e+003,1.631705e-001
2.063546e+003,1.640408e-001
2.067404e+003,1.678789e-001
2.071261e+003,1.650086e-001
2.075118e+003,1.569954e-001
2.078975e+003,1.531747e-001
2.082832e+003,1.532864e-001
2.086689e+003,1.504183e-001
2.090546e+003,1.482434e-001
2.094403e+003,1.499505e-001
2.098260e+003,1.470184e-001
2.102117e+003,1.484474e-001
2.105975e+003,1.502952e-001
2.109832e+003,1.494624e-001
2.113689e+003,1.433399e-001
2.117546e+003,1.404699e-001
2.121403e+003,1.410796e-001
2.125260e+003,1.440586e-001
2.129117e+003,1.448279e-001
2.132974e+003,1.438750e-001
2.136831e+003,1.464765e-001
2.140688e+003,1.456320e-001
2.144545e+003,1.459640e-001
2.148403e+003,1.522964e-001
2.152260e+003,1.550470e-001
2.156117e+003,1.525811e-001
2.159974e+003,1.521045e-001
2.163831e+003,1.545385e-001
2.167688e+003,1.606361e-001
2.171545e+003,1.628244e-001
2.175402e+003,1.631319e-001
2.179259e+003,1.633714e-001
2.183116e+003,1.639088e-001
2.186974e+003,1.640467e-001
2.190831e+003,1.664837e-001
2.194688e+003,1.640784e-001
2.198545e+003,1.656842e-001
2.202402e+003,1.685927e-001
2.206259e+003,1.701109e-001
2.210116e+003,1.723564e-001
2.213973e+003,1.725281e-001
2.217830e+003,1.695143e-001
2.221688e+003,1.666570e-001
2.225544e+003,1.631198e-001
2.229402e+003,1.609030e-001
2.233259e+003,1.582427e-001
2.237116e+003,1.589342e-001
2.240973e+003,1.576198e-001
2.244830e+003,1.541165e-001
2.248687e+003,1.551337e-001
2.252544e+003,1.551384e-001
2.256401e+003,1.504571e-001
2.260258e+003,1.516245e-001
2.264115e+003,1.528218e-001
2.267973e+003,1.526012e-001
2.271830e+003,1.543606e-001
2.275687e+003,1.537510e-001
2.279544e+003,1.505983e-001
2.283401e+003,1.473253e-001
2.287258e+003,1.469677e-001
2.291115e+003,1.528761e-001
2.294972e+003,1.541760e-001
2.298829e+003,1.517882e-001
2.302687e+003,1.546540e-001
2.306543e+003,1.572401e-001
2.310401e+003,1.599138e-001
2.314258e+003,1.560397e-001
2.318115e+003,1.564519e-001
2.321972e+003,1.601537e-001
2.325829e+003,1.626957e-001
2.329686e+003,1.648383e-001
2.333543e+003,1.716271e-001
2.337400e+003,1.774286e-001
2.341257e+003,1.785846e-001
2.345115e+003,1.746838e-001
2.348972e+003,1.744233e-001
2.352829e+003,1.768082e-001
2.356686e+003,1.771182e-001
2.360543e+003,1.791012e-001
2.364400e+003,1.811956e-001
2.368257e+003,1.713558e-001
2.372114e+003,1.702263e-001
2.375971e+003,1.754332e-001
2.379828e+003,1.723823e-001
2.383686e+003,1.671766e-001
2.387542e+003,1.680030e-001
2.391400e+003,1.665888e-001
2.395257e+003,1.671732e-001
2.399114e+003,1.687244e-001
2.402971e+003,1.692548e-001
2.406828e+003,1.656703e-001
2.410685e+003,1.643190e-001
2.414542e+003,1.627479e-001
2.418399e+003,1.607076e-001
2.422256e+003,1.574150e-001
2.426114e+003,1.551887e-001
2.429971e+003,1.501923e-001
2.433828e+003,1.475100e-001
2.437685e+003,1.485831e-001
2.441542e+003,1.468841e-001
2.445399e+003,1.419254e-001
2.449256e+003,1.391287e-001
2.453113e+003,1.388096e-001
2.456970e+003,1.421683e-001
2.460827e+003,1.465627e-001
2.464684e+003,1.462368e-001
2.468542e+003,1.415963e-001
2.472399e+003,1.398629e-001
2.476256e+003,1.404492e-001
2.480113e+003,1.461282e-001
2.483970e+003,1.456133e-001
2.487827e+003,1.484427e-001
2.491684e+003,1.522744e-001
2.495541e+003,1.527640e-001
2.499398e+003,1.532036e-001
2.503255e+003,1.561018e-001
2.507113e+003,1.598832e-001
2.510969e+003,1.571063e-001
2.514827e+003,1.535800e-001
2.518684e+003,1.590518e-001
2.522541e+003,1.645531e-001
2.526398e+003,1.601017e-001
2.530255e+003,1.597954e-001
2.534112e+003,1.618211e-001
2.537969e+003,1.672128e-001
2.541826e+003,1.709390e-001
2.545683e+003,1.696306e-001
2.549541e+003,1.684312e-001
2.553398e+003,1.624159e-001
2.557255e+003,1.597995e-001
2.561112e+003,1.642874e-001
2.564969e+003,1.633874e-001
2.568826e+003,1.619184e-001
2.572683e+003,1.596756e-001
2.576540e+003,1.599053e-001
2.580397e+003,1.605767e-001
2.584254e+003,1.561010e-001
2.588112e+003,1.531249e-001
2.591969e+003,1.518490e-001
2.595826e+003,1.486265e-001
2.599683e+003,1.471548e-001
2.603540e+003,1.456542e-001
2.607397e+003,1.446880e-001
2.611254e+003,1.478205e-001
2.615111e+003,1.473186e-001
2.618968e+003,1.471878e-001
2.622825e+003,1.479981e-001
2.626682e+003,1.531990e-001
2.630540e+003,1.608102e-001
2.634397e+003,1.599366e-001
2.638254e+003,1.585501e-001
2.642111e+003,1.571348e-001
2.645968e+003,1.557385e-001
2.649825e+003,1.572380e-001
2.653682e+003,1.631736e-001
2.657539e+003,1.692447e-001
2.661396e+003,1.739640e-001
2.665253e+003,1.733280e-001
2.669111e+003,1.762371e-001
2.672968e+003,1.772407e-001
2.676825e+003,1.785836e-001
2.680682e+003,1.819582e-001
2.684539e+003,1.850926e-001
2.688396e+003,1.839348e-001
2.692253e+003,1.826500e-001
2.696110e+003,1.842239e-001
2.699967e+003,1.902965e-001
2.703824e+003,1.959716e-001
2.707681e+003,1.968917e-001
2.711539e+003,1.936575e-001
2.715396e+003,1.920450e-001
2.719253e+003,1.966174e-001
2.723110e+003,1.972695e-001
2.726967e+003,1.950615e-001
2.730824e+003,1.961959e-001
2.734681e+003,1.981209e-001
2.738538e+003,1.987190e-001
2.742395e+003,1.982506e-001
2.746252e+003,1.944452e-001
2.750110e+003,1.961145e-001
2.753967e+003,2.002095e-001
2.757824e+003,1.989991e-001
2.761681e+003,1.971968e-001
2.765538e+003,2.006928e-001
2.769395e+003,1.989995e-001
2.773252e+003,1.931185e-001
2.777109e+003,1.936236e-001
2.780966e+003,1.973401e-001
2.784823e+003,2.018571e-001
2.788680e+003,2.034017e-001
2.792538e+003,2.038392e-001
2.796395e+003,2.051869e-001
2.800252e+003,2.064767e-001
2.804109e+003,2.070962e-001
2.807966e+003,2.087126e-001
2.811823e+003,2.099241e-001
2.815680e+003,2.098359e-001
2.819537e+003,2.114013e-001
2.823394e+003,2.127428e-001
2.827251e+003,2.191051e-001
2.831109e+003,2.223930e-001
2.834966e+003,2.248157e-001
2.838823e+003,2.268723e-001
2.842680e+003,2.288149e-001
2.846537e+003,2.328443e-001
2.850394e+003,2.386206e-001
2.854251e+003,2.443723e-001
2.858108e+003,2.445036e-001
2.861965e+003,2.464418e-001
2.865823e+003,2.509677e-001
2.869679e+003,2.538127e-001
2.873537e+003,2.573298e-001
2.877394e+003,2.525820e-001
2.881251e+003,2.531579e-001
2.885108e+003,2.542253e-001
2.888965e+003,2.506894e-001
2.892822e+003,2.508055e-001
2.896679e+003,2.544544e-001
2.900536e+003,2.578189e-001
2.904393e+003,2.645714e-001
2.908250e+003,2.641284e-001
2.912108e+003,2.604614e-001
2.915965e+003,2.607079e-001
2.919822e+003,2.663512e-001
2.923679e+003,2.704421e-001
2.927536e+003,2.687980e-001
2.931393e+003,2.627357e-001
2.935250e+003,2.662145e-001
2.939107e+003,2.715817e-001
2.942964e+003,2.686400e-001
2.946822e+003,2.677960e-001
2.950678e+003,2.733278e-001
2.954536e+003,2.752334e-001
2.958393e+003,2.767905e-001
2.962250e+003,2.733559e-001
2.966107e+003,2.718077e-001
2.969964e+003,2.740266e-001
2.973821e+003,2.754962e-001
2.977678e+003,2.838168e-001
2.981535e+003,2.900877e-001
2.985392e+003,2.904586e-001
2.989250e+003,2.928952e-001
2.993107e+003,2.963960e-001
2.996964e+003,2.958968e-001
3.000821e+003,3.012500e-001
3.004678e+003,3.066162e-001
3.008535e+003,3.051329e-001
3.012392e+003,3.047790e-001
3.016249e+003,3.117801e-001
3.020106e+003,3.131516e-001
3.023963e+003,3.165250e-001
3.027821e+003,3.213225e-001
3.031677e+003,3.275557e-001
3.035535e+003,3.334868e-001
3.039392e+003,3.311267e-001
3.043249e+003,3.297108e-001
3.047106e+003,3.371896e-001
3.050963e+003,3.472870e-001
3.054820e+003,3.556909e-001
3.058677e+003,3.505365e-001
3.062534e+003,3.468289e-001
3.066391e+003,3.501059e-001
3.070249e+003,3.513824e-001
3.074106e+003,3.487024e-001
3.077963e+003,3.416726e-001
3.081820e+003,3.387812e-001
3.085677e+003,3.437203e-001
3.089534e+003,3.475073e-001
3.093391e+003,3.557043e-001
3.097248e+003,3.554574e-001
3.101105e+003,3.467613e-001
3.104962e+003,3.532254e-001
3.108820e+003,3.617778e-001
3.112677e+003,3.675920e-001
3.116534e+003,3.702348e-001
3.120391e+003,3.660210e-001
3.124248e+003,3.644004e-001
3.128105e+003,3.668123e-001
3.131962e+003,3.639338e-001
3.135819e+003,3.585736e-001
3.139676e+003,3.684157e-001
3.143533e+003,3.822787e-001
3.147390e+003,3.848296e-001
3.151248e+003,3.760513e-001
3.155105e+003,3.757407e-001
3.158962e+003,3.882419e-001
3.162819e+003,3.903708e-001
3.166676e+003,3.955662e-001
3.170533e+003,4.024161e-001
3.174390e+003,3.997007e-001
3.178247e+003,4.048370e-001
3.182104e+003,4.060136e-001
3.185961e+003,4.061542e-001
3.189819e+003,4.078926e-001
3.193676e+003,4.135272e-001
3.197533e+003,4.231798e-001
3.201390e+003,4.343936e-001
3.205247e+003,4.344866e-001
3.209104e+003,4.380970e-001
3.212961e+003,4.391218e-001
3.216818e+003,4.384014e-001
3.220675e+003,4.403625e-001
3.224532e+003,4.466107e-001
3.228389e+003,4.384392e-001
3.232247e+003,4.305405e-001
3.236104e+003,4.370986e-001
3.239961e+003,4.504675e-001
3.243818e+003,4.615054e-001
3.247675e+003,4.599136e-001
3.251532e+003,4.506759e-001
3.255389e+003,4.424733e-001
3.259246e+003,4.447583e-001
3.263103e+003,4.514222e-001
3.266960e+003,4.563277e-001
3.270818e+003,4.524672e-001
3.274675e+003,4.498635e-001
3.278532e+003,4.589906e-001
3.282389e+003,4.576473e-001
3.286246e+003,4.566518e-001
3.290103e+003,4.618403e-001
3.293960e+003,4.631456e-001
3.297817e+003,4.594504e-001
3.301674e+003,4.579917e-001
3.305531e+003,4.618496e-001
3.309388e+003,4.702061e-001
3.313246e+003,4.755006e-001
3.317103e+003,4.782665e-001
3.320960e+003,4.687163e-001
3.324817e+003,4.652183e-001
3.328674e+003,4.809120e-001
3.332531e+003,4.853884e-001
3.336388e+003,4.934058e-001
3.340245e+003,5.005373e-001
3.344102e+003,4.932303e-001
3.347959e+003,4.872337e-001
3.351817e+003,4.925698e-001
3.355674e+003,4.977641e-001
3.359531e+003,5.102364e-001
3.363388e+003,5.165096e-001
3.367245e+003,5.158308e-001
3.371102e+003,5.091712e-001
3.374959e+003,5.032811e-001
3.378816e+003,5.072411e-001
3.382673e+003,5.112815e-001
3.386530e+003,5.179444e-001
3.390387e+003,5.206124e-001
3.394245e+003,5.329118e-001
3.398102e+003,5.363553e-001
3.401959e+003,5.335775e-001
3.405816e+003,5.317070e-001
3.409673e+003,5.268387e-001
3.413530e+003,5.263851e-001
3.417387e+003,5.235294e-001
3.421244e+003,5.246226e-001
3.425101e+003,5.354666e-001
3.428958e+003,5.357077e-001
3.432815e+003,5.334585e-001
3.436673e+003,5.352606e-001
3.440530e+003,5.359108e-001
3.444387e+003,5.313102e-001
3.448244e+003,5.295833e-001
3.452101e+003,5.232928e-001
3.455958e+003,5.215310e-001
3.459815e+003,5.284804e-001
3.463672e+003,5.379819e-001
3.467529e+003,5.400670e-001
3.471386e+003,5.342107e-001
3.475244e+003,5.335737e-001
3.479101e+003,5.372682e-001
3.482958e+003,5.341425e-001
3.486815e+003,5.346602e-001
3.490672e+003,5.342799e-001
3.494529e+003,5.354474e-001
3.498386e+003,5.387927e-001
3.502243e+003,5.474876e-001
3.506100e+003,5.604883e-001
3.509958e+003,5.509475e-001
3.513814e+003,5.380424e-001
3.517672e+003,5.433159e-001
3.521529e+003,5.391445e-001
3.525386e+003,5.314732e-001
3.529243e+003,5.324963e-001
3.533100e+003,5.427527e-001
3.536957e+003,5.434868e-001
3.540814e+003,5.403495e-001
3.544671e+003,5.415272e-001
3.548528e+003,5.425058e-001
3.552385e+003,5.419946e-001
3.556243e+003,5.426481e-001
3.560100e+003,5.482429e-001
3.563957e+003,5.454117e-001
3.567814e+003,5.487391e-001
3.571671e+003,5.358401e-001
3.575528e+003,5.226938e-001
3.579385e+003,5.189156e-001
3.583242e+003,5.100556e-001
3.587099e+003,5.027282e-001
3.590957e+003,4.963697e-001
3.594813e+003,4.843431e-001
3.598671e+003,4.695667e-001
3.602528e+003,4.667325e-001
3.606385e+003,4.583060e-001
3.610242e+003,4.382635e-001
3.614099e+003,4.094349e-001
3.617956e+003,3.958584e-001
3.621813e+003,3.901560e-001
3.625670e+003,3.730300e-001
3.629527e+003,3.589066e-001
3.633385e+003,3.365414e-001
3.637242e+003,3.086194e-001
3.641099e+003,2.882122e-001
3.644956e+003,2.731279e-001
3.648813e+003,2.610509e-001
3.652670e+003,2.443173e-001
3.656527e+003,2.349975e-001
3.660384e+003,2.250884e-001
3.664241e+003,2.045276e-001
3.668098e+003,1.897199e-001
3.671956e+003,1.800236e-001
3.675813e+003,1.648257e-001
3.679670e+003,1.547063e-001
3.683527e+003,1.515080e-001
3.687384e+003,1.499555e-001
3.691241e+003,1.409416e-001
3.695098e+003,1.316021e-001
3.698955e+003,1.284791e-001
3.702812e+003,1.214536e-001
3.706669e+003,1.164076e-001
3.710526e+003,1.151092e-001
3.714384e+003,1.138658e-001
3.718241e+003,1.060667e-001
3.722098e+003,1.063388e-001
3.725955e+003,1.082774e-001
3.729812e+003,1.068412e-001
3.733669e+003,1.061874e-001
3.737526e+003,1.050794e-001
3.741383e+003,1.010343e-001
3.745240e+003,9.799983e-002
3.749097e+003,9.780373e-002
3.752955e+003,1.008144e-001
3.756812e+003,1.042884e-001
3.760669e+003,1.067798e-001
3.764526e+003,1.086778e-001
3.768383e+003,1.074820e-001
3.772240e+003,1.068588e-001
3.776097e+003,1.070234e-001
3.779954e+003,1.085381e-001
3.783811e+003,1.037019e-001
3.787668e+003,1.006968e-001
3.791525e+003,1.026390e-001
3.795383e+003,1.051624e-001
3.799240e+003,1.085828e-001
3.803097e+003,1.113833e-001
3.806954e+003,1.065891e-001
3.810811e+003,1.068074e-001
3.814668e+003,1.106132e-001
3.818525e+003,1.107272e-001
3.822382e+003,1.088016e-001
3.826239e+003,1.041716e-001
3.830096e+003,1.003768e-001
3.833954e+003,9.367927e-002
3.837811e+003,9.650087e-002
3.841668e+003,1.011121e-001
3.845525e+003,1.053562e-001
3.849382e+003,1.076218e-001
3.853239e+003,1.059471e-001
3.857096e+003,1.004470e-001
3.860953e+003,9.824771e-002
3.864810e+003,9.382766e-002
3.868667e+003,9.483693e-002
3.872524e+003,9.424759e-002
3.876382e+003,9.254212e-002
3.880239e+003,9.186651e-002
3.884096e+003,9.242204e-002
3.887953e+003,9.483618e-002
3.891810e+003,9.618329e-002
3.895667e+003,9.514908e-002
3.899524e+003,9.491583e-002
3.903381e+003,9.581742e-002
3.907238e+003,9.631773e-002
3.911095e+003,9.311334e-002
3.914953e+003,9.559468e-002
3.918810e+003,9.824978e-002
3.922667e+003,9.566405e-002
3.926524e+003,9.469375e-002
3.930381e+003,1.013768e-001
3.934238e+003,1.056076e-001
3.938095e+003,1.019407e-001
3.941952e+003,1.021039e-001
3.945809e+003,1.045343e-001
3.949667e+003,1.032634e-001
3.953523e+003,1.058791e-001
3.957381e+003,1.037859e-001
3.961238e+003,1.021395e-001
3.965095e+003,1.073699e-001
3.968952e+003,1.071353e-001
3.972809e+003,9.945536e-002
3.976666e+003,9.826154e-002
3.980523e+003,1.012444e-001
3.984380e+003,1.032563e-001
3.988237e+003,1.051495e-001
3.992094e+003,1.041239e-001
3.995952e+003,1.043846e-001
3.999809e+003,1.031842e-001
4.003666e+003,1.029490e-001
4.007523e+003,9.778932e-002
4.011380e+003,9.584292e-002
4.015237e+003,9.945998e-002
4.019094e+003,9.884042e-002
4.022951e+003,9.462663e-002
4.026808e+003,9.339353e-002
4.030666e+003,9.345642e-002
4.034522e+003,8.830567e-002
4.038380e+003,8.638273e-002
4.042237e+003,9.244676e-002
4.046094e+003,9.589250e-002
4.049951e+003,9.624477e-002
4.053808e+003,9.355567e-002
4.057665e+003,8.625250e-002
4.061522e+003,8.298956e-002
4.065379e+003,8.795352e-002
4.069236e+003,9.617944e-002
4.073094e+003,9.577104e-002
4.076951e+003,8.984717e-002
4.080808e+003,8.470911e-002
4.084665e+003,8.594660e-002
4.088522e+003,9.248018e-002
4.092379e+003,9.520526e-002
4.096236e+003,9.187195e-002
4.100093e+003,8.652133e-002
4.103950e+003,8.886907e-002
4.107808e+003,9.406733e-002
4.111665e+003,9.634491e-002
4.115521e+003,9.401421e-002
4.119379e+003,9.526014e-002
4.123236e+003,9.955110e-002
4.127093e+003,9.419046e-002
4.130950e+003,8.989733e-002
4.134807e+003,9.682847e-002
4.138664e+003,1.031432e-001
4.142521e+003,1.083278e-001
4.146378e+003,1.077463e-001
4.150235e+003,1.001217e-001
4.154093e+003,9.515791e-002
4.157950e+003,9.795225e-002
4.161807e+003,1.036087e-001
4.165664e+003,1.051577e-001
4.169521e+003,1.013059e-001
4.173378e+003,1.038603e-001
4.177235e+003,1.081012e-001
4.181092e+003,1.052175e-001
4.184949e+003,9.587329e-002
4.188807e+003,9.523001e-002
4.192664e+003,9.378067e-002
4.196521e+003,8.760178e-002
4.200378e+003,8.896621e-002
4.204235e+003,9.418824e-002
4.208092e+003,9.514305e-002
4.211949e+003,9.833367e-002
4.215806e+003,9.636725e-002
4.219663e+003,9.612594e-002
4.223521e+003,9.505437e-002
4.227377e+003,8.830688e-002
4.231234e+003,8.717058e-002
4.235092e+003,8.406369e-002
4.238949e+003,8.358457e-002
4.242806e+003,8.281395e-002
4.246663e+003,7.708897e-002
4.250520e+003,8.215957e-002
4.254377e+003,9.122244e-002
4.258234e+003,9.243737e-002
4.262091e+003,9.236187e-002
4.265948e+003,9.122787e-002
4.269806e+003,9.216100e-002
4.273663e+003,9.880281e-002
4.277520e+003,9.863421e-002
4.281377e+003,9.256931e-002
4.285234e+003,9.090587e-002
4.289091e+003,9.580400e-002
4.292948e+003,9.381007e-002
4.296805e+003,8.952525e-002
4.300662e+003,9.971586e-002
4.304520e+003,1.080685e-001
4.308376e+003,1.074797e-001
4.312233e+003,1.152878e-001
4.316091e+003,1.128819e-001
4.319948e+003,1.041723e-001
4.323805e+003,9.864685e-002
4.327662e+003,9.910721e-002
4.331519e+003,1.011839e-001
4.335376e+003,1.057279e-001
4.339233e+003,1.046285e-001
4.343090e+003,1.010043e-001
4.346947e+003,1.052724e-001
4.350805e+003,1.052149e-001
4.354662e+003,1.055809e-001
4.358519e+003,1.063472e-001
4.362376e+003,1.032431e-001
4.366233e+003,9.917424e-002
4.370090e+003,9.102201e-002
4.373947e+003,8.628876e-002
4.377804e+003,9.029103e-002
4.381661e+003,9.487489e-002
4.385519e+003,9.187944e-002
4.389375e+003,8.784999e-002
4.393232e+003,9.394711e-002
4.397090e+003,9.648106e-002
4.400947e+003,9.489208e-002
4.404804e+003,9.503730e-002
4.408661e+003,9.751417e-002
4.412518e+003,9.999879e-002
4.416375e+003,9.819386e-002
4.420232e+003,9.277812e-002
4.424089e+003,8.989644e-002
4.427946e+003,9.147117e-002
4.431804e+003,9.587213e-002
4.435661e+003,9.883572e-002
4.439518e+003,9.661646e-002
4.443375e+003,9.737232e-002
4.447232e+003,1.003898e-001
4.451089e+003,9.774924e-002
4.454946e+003,9.110848e-002
4.458803e+003,9.549328e-002
4.462660e+003,1.042583e-001
4.466518e+003,1.082445e-001
4.470375e+003,1.126872e-001
4.474231e+003,1.129620e-001
4.478089e+003,1.108886e-001
4.481946e+003,1.191028e-001
4.485803e+003,1.199770e-001
4.489660e+003,1.059740e-001
4.493517e+003,1.048990e-001
4.497375e+003,1.066231e-001
4.501231e+003,1.083396e-001
4.505088e+003,1.055441e-001
4.508946e+003,1.046399e-001
4.512803e+003,1.101092e-001
4.516660e+003,1.091655e-001
4.520517e+003,1.022078e-001
4.524374e+003,1.080807e-001
4.528231e+003,1.136563e-001
4.532088e+003,1.154302e-001
4.535945e+003,1.085559e-001
4.539802e+003,9.995395e-002
4.543660e+003,1.009492e-001
4.547517e+003,1.060604e-001
4.551374e+003,9.946969e-002
4.555231e+003,1.007867e-001
4.559088e+003,1.016064e-001
4.562945e+003,9.868777e-002
4.566802e+003,1.003155e-001
4.570659e+003,1.031268e-001
4.574516e+003,1.007333e-001
4.578374e+003,9.274387e-002
4.582230e+003,9.168424e-002
4.586087e+003,9.978849e-002
4.589945e+003,1.072689e-001
4.593802e+003,1.017530e-001
4.597659e+003,9.015473e-002
4.601516e+003,9.241618e-002
4.605373e+003,9.827741e-002
4.609230e+003,9.353015e-002
4.613087e+003,9.034480e-002
4.616944e+003,8.911763e-002
4.620801e+003,9.037556e-002
4.624659e+003,9.495335e-002
4.628516e+003,9.962220e-002
4.632373e+003,9.749564e-002
4.636230e+003,9.416251e-002
4.640087e+003,1.034498e-001
4.643944e+003,1.027586e-001
4.647801e+003,1.000847e-001
4.651658e+003,1.039568e-001
4.655515e+003,1.037823e-001
4.659373e+003,9.974325e-002
4.663229e+003,9.509055e-002
4.667086e+003,1.057240e-001
4.670944e+003,1.164335e-001
4.674801e+003,1.151527e-001
4.678658e+003,1.120563e-001
4.682515e+003,1.147333e-001
4.686372e+003,1.168418e-001
4.690229e+003,1.177784e-001
4.694086e+003,1.138983e-001
4.697943e+003,1.137809e-001
4.701800e+003,1.061761e-001
4.705658e+003,9.567430e-002
4.709515e+003,9.396430e-002
4.713372e+003,1.126489e-001
4.717229e+003,1.146731e-001
4.721086e+003,1.094599e-001
4.724943e+003,1.165762e-001
4.728800e+003,1.136083e-001
4.732657e+003,1.082122e-001
4.736514e+003,9.965013e-002
4.740372e+003,1.014594e-001
4.744229e+003,9.920738e-002
4.748085e+003,9.116272e-002
4.751943e+003,8.804437e-002
4.755800e+003,9.566133e-002
4.759657e+003,9.260905e-002
4.763514e+003,8.697841e-002
4.767371e+003,9.405856e-002
4.771228e+003,9.491612e-002
4.775085e+003,9.588845e-002
4.778942e+003,9.742369e-002
4.782799e+003,9.717326e-002
4.786657e+003,1.012677e-001
4.790514e+003,1.131502e-001
4.794371e+003,1.189907e-001
4.798228e+003,1.130371e-001
4.802085e+003,1.031670e-001
4.805942e+003,9.739330e-002
4.809799e+003,9.708471e-002
4.813656e+003,1.080048e-001
4.817513e+003,1.229769e-001
4.821371e+003,1.210419e-001
4.825228e+003,1.061776e-001
4.829084e+003,1.059921e-001
4.832942e+003,1.175612e-001
4.836799e+003,1.143927e-001
4.840656e+003,1.113304e-001
4.844513e+003,1.141287e-001
4.848370e+003,1.158058e-001
4.852227e+003,1.213847e-001
4.856084e+003,1.147938e-001
4.859941e+003,1.040847e-001
4.863798e+003,1.019778e-001
4.867656e+003,9.848994e-002
4.871513e+003,1.029184e-001
4.875370e+003,1.108554e-001
4.879227e+003,1.092944e-001
4.883084e+003,1.085155e-001
4.886941e+003,1.125288e-001
4.890798e+003,1.137709e-001
4.894655e+003,1.139744e-001
4.898512e+003,1.081069e-001
4.902370e+003,9.882624e-002
4.906227e+003,9.731000e-002
4.910083e+003,1.131111e-001
4.913941e+003,1.145933e-001
4.917798e+003,1.050018e-001
4.921655e+003,9.931336e-002
4.925512e+003,9.898647e-002
4.929369e+003,1.033472e-001
4.933226e+003,1.023160e-001
4.937083e+003,1.000774e-001
4.940940e+003,1.056533e-001
4.944797e+003,1.138885e-001
4.948655e+003,1.073849e-001
4.952512e+003,1.048724e-001
4.956369e+003,1.088421e-001
4.960226e+003,1.056813e-001
4.964083e+003,1.018512e-001
4.967940e+003,1.036263e-001
4.971797e+003,1.048266e-001
4.975654e+003,9.528799e-002
4.979511e+003,9.700023e-002
4.983369e+003,1.018333e-001
4.987226e+003,8.834928e-002
4.991083e+003,9.082348e-002
4.994940e+003,1.110601e-001
4.998797e+003,1.209061e-001
5.002654e+003,1.196351e-001
5.006511e+003,1.148410e-001
5.010368e+003,1.167256e-001
5.014225e+003,1.204082e-001
5.018083e+003,1.231455e-001
5.021939e+003,1.212635e-001
5.025796e+003,1.209176e-001
5.029654e+003,1.209297e-001
5.033511e+003,1.249758e-001
5.037368e+003,1.192552e-001
5.041225e+003,1.223493e-001
5.045082e+003,1.301428e-001
5.048939e+003,1.221364e-001
5.052796e+003,1.200410e-001
5.056653e+003,1.183125e-001
5.060510e+003,1.057554e-001
5.064368e+003,1.108092e-001
5.068225e+003,1.165818e-001
5.072082e+003,1.160289e-001
5.075939e+003,1.112452e-001
5.079796e+003,1.087447e-001
5.083653e+003,1.108880e-001
5.087510e+003,1.164547e-001
5.091367e+003,1.195503e-001
5.095224e+003,1.206143e-001
5.099082e+003,1.176904e-001
5.102938e+003,1.103339e-001
5.106795e+003,1.144032e-001
5.110653e+003,1.132227e-001
5.114510e+003,1.180139e-001
5.118367e+003,1.184832e-001
5.122224e+003,1.102038e-001
5.126081e+003,1.078529e-001
5.129938e+003,1.099565e-001
5.133795e+003,1.169948e-001
5.137652e+003,1.230975e-001
5.141509e+003,1.245531e-001
5.145367e+003,1.220234e-001
5.149224e+003,1.195698e-001
5.153081e+003,1.137855e-001
5.156938e+003,1.132782e-001
5.160795e+003,1.254320e-001
5.164652e+003,1.296529e-001
5.168509e+003,1.334774e-001
5.172366e+003,1.311757e-001
5.176223e+003,1.336528e-001
5.180081e+003,1.273263e-001
5.183938e+003,1.203700e-001
5.187794e+003,1.211658e-001
5.191652e+003,1.261709e-001
5.195509e+003,1.279184e-001
5.199366e+003,1.310247e-001
5.203223e+003,1.312323e-001
5.207080e+003,1.319457e-001
5.210937e+003,1.229552e-001
5.214794e+003,1.187861e-001
5.218651e+003,1.291581e-001
5.222508e+003,1.282558e-001
5.226366e+003,1.255087e-001
5.230223e+003,1.274612e-001
5.234080e+003,1.245095e-001
5.237937e+003,1.168762e-001
5.241794e+003,1.235723e-001
5.245651e+003,1.338726e-001
5.249508e+003,1.303641e-001
5.253365e+003,1.319692e-001
5.257222e+003,1.220056e-001
5.261080e+003,1.174267e-001
5.264937e+003,1.274568e-001
5.268793e+003,1.231339e-001
5.272651e+003,1.221309e-001
5.276508e+003,1.269235e-001
5.280365e+003,1.206131e-001
5.284222e+003,1.062521e-001
5.288079e+003,1.073718e-001
5.291936e+003,1.143849e-001
5.295793e+003,1.108325e-001
5.299650e+003,1.032378e-001
5.303507e+003,1.072733e-001
5.307365e+003,1.077618e-001
5.311222e+003,1.052936e-001
5.315079e+003,1.118066e-001
5.318936e+003,1.206190e-001
5.322793e+003,1.325837e-001
5.326650e+003,1.337954e-001
5.330507e+003,1.272268e-001
5.334364e+003,1.207109e-001
5.338221e+003,1.168880e-001
5.342079e+003,1.216029e-001
5.345936e+003,1.194886e-001
5.349792e+003,1.099461e-001
5.353650e+003,1.089848e-001
5.357507e+003,1.169002e-001
5.361364e+003,1.304860e-001
5.365221e+003,1.367707e-001
5.369078e+003,1.347216e-001
5.372935e+003,1.205147e-001
5.376792e+003,1.186473e-001
5.380649e+003,1.244720e-001
5.384506e+003,1.196678e-001
5.388364e+003,1.106520e-001
5.392221e+003,1.129439e-001
5.396078e+003,1.381737e-001
5.399935e+003,1.493988e-001
5.403792e+003,1.264142e-001
5.407649e+003,1.100135e-001
5.411506e+003,1.208454e-001
5.415363e+003,1.284252e-001
5.419220e+003,1.280928e-001
5.423078e+003,1.335606e-001
5.426935e+003,1.307925e-001
5.430792e+003,1.137343e-001
5.434649e+003,1.233173e-001
5.438506e+003,1.250862e-001
5.442363e+003,1.203098e-001
5.446220e+003,1.266844e-001
5.450077e+003,1.166888e-001
5.453934e+003,1.152990e-001
5.457792e+003,1.093957e-001
5.461648e+003,1.077678e-001
5.465505e+003,1.186914e-001
5.469363e+003,1.181195e-001
5.473220e+003,1.133626e-001
5.477077e+003,1.002620e-001
5.480934e+003,9.641816e-002
5.484791e+003,1.128880e-001
5.488648e+003,1.160663e-001
5.492505e+003,1.138718e-001
5.496362e+003,1.251512e-001
5.500219e+003,1.332748e-001
5.504077e+003,1.312977e-001
5.507934e+003,1.291557e-001
5.511791e+003,1.270155e-001
5.515648e+003,1.179509e-001
5.519505e+003,1.058967e-001
5.523362e+003,1.105829e-001
5.527219e+003,1.101264e-001
5.531076e+003,1.016097e-001
5.534933e+003,1.058980e-001
5.538791e+003,1.192454e-001
5.542647e+003,1.319631e-001
5.546504e+003,1.357475e-001
5.550362e+003,1.432369e-001
5.554219e+003,1.456216e-001
5.558076e+003,1.305937e-001
5.561933e+003,1.136606e-001
5.565790e+003,1.177166e-001
5.569647e+003,1.344847e-001
5.573504e+003,1.454279e-001
5.577361e+003,1.481407e-001
5.581218e+003,1.478162e-001
5.585076e+003,1.380781e-001
5.588933e+003,1.255323e-001
5.592790e+003,1.358284e-001
5.596647e+003,1.401553e-001
5.600504e+003,1.278796e-001
5.604361e+003,1.150619e-001
5.608218e+003,1.147773e-001
5.612075e+003,1.200098e-001
5.615932e+003,1.291946e-001
5.619790e+003,1.330662e-001
5.623646e+003,1.134619e-001
5.627503e+003,1.113715e-001
5.631361e+003,1.228368e-001
5.635218e+003,1.169698e-001
5.639075e+003,1.286272e-001
5.642932e+003,1.379752e-001
5.646789e+003,1.390414e-001
5.650646e+003,1.206901e-001
5.654503e+003,1.134146e-001
5.658360e+003,1.210289e-001
5.662217e+003,1.197478e-001
5.666075e+003,1.093966e-001
5.669932e+003,1.026451e-001
5.673789e+003,1.077715e-001
5.677646e+003,1.233302e-001
5.681503e+003,1.183510e-001
5.685360e+003,1.039596e-001
5.689217e+003,1.056030e-001
5.693074e+003,1.062210e-001
5.696931e+003,1.057001e-001
5.700789e+003,1.075491e-001
5.704646e+003,1.175231e-001
5.708502e+003,1.235622e-001
5.712360e+003,1.134077e-001
5.716217e+003,1.173614e-001
5.720074e+003,1.248494e-001
5.723931e+003,1.146128e-001
5.727788e+003,1.109686e-001
5.731645e+003,1.289292e-001
5.735502e+003,1.525244e-001
5.739359e+003,1.483996e-001
5.743216e+003,1.331101e-001
5.747074e+003,1.203765e-001
5.750931e+003,1.235748e-001
5.754788e+003,1.288980e-001
5.758645e+003,1.199530e-001
5.762502e+003,1.101787e-001
5.766359e+003,1.149790e-001
5.770216e+003,1.231155e-001
5.774073e+003,1.322395e-001
5.777930e+003,1.351802e-001
5.781788e+003,1.287035e-001
5.785645e+003,1.220089e-001
5.789501e+003,1.212635e-001
5.793359e+003,1.185792e-001
5.797216e+003,1.189070e-001
5.801073e+003,1.053309e-001
5.804930e+003,1.128108e-001
5.808787e+003,1.271381e-001
5.812644e+003,1.255965e-001
5.816501e+003,1.187807e-001
5.820358e+003,1.241971e-001
5.824215e+003,1.324327e-001
5.828073e+003,1.174119e-001
5.831930e+003,1.120640e-001
5.835787e+003,1.213093e-001
5.839644e+003,1.115410e-001
5.843501e+003,1.129826e-001
5.847358e+003,1.267872e-001
5.851215e+003,1.175389e-001
5.855072e+003,1.182479e-001
5.858929e+003,1.285376e-001
5.862787e+003,1.278864e-001
5.866644e+003,1.309084e-001
5.870500e+003,1.383421e-001
5.874358e+003,1.346754e-001
5.878215e+003,1.235809e-001
5.882072e+003,1.239321e-001
5.885929e+003,1.284981e-001
5.889786e+003,1.298154e-001
5.893643e+003,1.172502e-001
5.897500e+003,1.144479e-001
5.901357e+003,1.199213e-001
5.905214e+003,1.207351e-001
5.909072e+003,1.212899e-001
5.912929e+003,1.214655e-001
5.916786e+003,1.257760e-001
5.920643e+003,1.275324e-001
5.924500e+003,1.432820e-001
5.928357e+003,1.424360e-001
5.932214e+003,1.277287e-001
5.936071e+003,1.360548e-001
5.939928e+003,1.562963e-001
5.943786e+003,1.418885e-001
5.947643e+003,1.283571e-001
5.951500e+003,1.331681e-001
5.955357e+003,1.366064e-001
5.959214e+003,1.386695e-001
5.963071e+003,1.501943e-001
5.966928e+003,1.505150e-001
5.970785e+003,1.374796e-001
5.974642e+003,1.222888e-001
5.978500e+003,1.158505e-001
5.982356e+003,1.201836e-001
5.986213e+003,1.224252e-001
5.990071e+003,1.185102e-001
5.993928e+003,1.215502e-001
5.997785e+003,1.325791e-001
6.001642e+003,1.284841e-001
6.005499e+003,1.211486e-001
6.009356e+003,1.293976e-001
6.013213e+003,1.376077e-001
6.017070e+003,1.424269e-001
6.020927e+003,1.398021e-001
6.024785e+003,1.346626e-001
6.028642e+003,1.197104e-001
6.032499e+003,1.067428e-001
6.036356e+003,1.003919e-001
6.040213e+003,1.014001e-001
6.044070e+003,1.039317e-001
6.047927e+003,1.136348e-001
6.051784e+003,1.142148e-001
6.055641e+003,1.269489e-001
6.059499e+003,1.393091e-001
6.063355e+003,1.252502e-001
6.067212e+003,1.221054e-001
6.071070e+003,1.210763e-001
6.074927e+003,1.236724e-001
6.078784e+003,1.236093e-001
6.082641e+003,1.159731e-001
6.086498e+003,1.371095e-001
6.090355e+003,1.394769e-001
6.094212e+003,1.229918e-001
6.098069e+003,1.269107e-001
6.101926e+003,1.179264e-001
6.105784e+003,1.248593e-001
6.109641e+003,1.472355e-001
6.113498e+003,1.548766e-001
6.117355e+003,1.622201e-001
6.121212e+003,1.594203e-001
6.125069e+003,1.621698e-001
6.128926e+003,1.569375e-001
6.132783e+003,1.355957e-001
6.136640e+003,1.333837e-001
6.140498e+003,1.197173e-001
6.144354e+003,1.313996e-001
6.148211e+003,1.503562e-001
6.152069e+003,1.464324e-001
6.155926e+003,1.186996e-001
6.159783e+003,8.795729e-002
6.163640e+003,8.887223e-002
6.167497e+003,1.117555e-001
6.171354e+003,1.176951e-001
6.175211e+003,1.248919e-001
6.179068e+003,1.355784e-001
6.182925e+003,1.259676e-001
6.186783e+003,1.147092e-001
6.190640e+003,1.177733e-001
6.194497e+003,1.119504e-001
6.198354e+003,1.220322e-001
6.202211e+003,1.338872e-001
6.206068e+003,1.170060e-001
6.209925e+003,1.116729e-001
6.213782e+003,1.334056e-001
6.217639e+003,1.294005e-001
6.221497e+003,1.277141e-001
6.225354e+003,1.297121e-001
6.229210e+003,1.437109e-001
6.233068e+003,1.430647e-001
6.236925e+003,1.405023e-001
6.240782e+003,1.482897e-001
6.244639e+003,1.441548e-001
6.248496e+003,1.355654e-001
6.252353e+003,1.403055e-001
6.256210e+003,1.431703e-001
6.260067e+003,1.304211e-001
6.263924e+003,1.160071e-001
6.267782e+003,1.056981e-001
6.271639e+003,1.336197e-001
6.275496e+003,1.538107e-001
6.279353e+003,1.616311e-001
6.283210e+003,1.636068e-001
6.287067e+003,1.620496e-001
6.290924e+003,1.612520e-001
6.294781e+003,1.557681e-001
6.298638e+003,1.391681e-001
6.302496e+003,1.311049e-001
6.306353e+003,1.350189e-001
6.310209e+003,1.355506e-001
6.314067e+003,1.460924e-001
6.317924e+003,1.570300e-001
6.321781e+003,1.514730e-001
6.325638e+003,1.454352e-001
6.329495e+003,1.367016e-001
6.333352e+003,1.272863e-001
6.337209e+003,1.060463e-001
6.341066e+003,9.573402e-002
6.344923e+003,1.227494e-001
6.348780e+003,1.483875e-001
6.352638e+003,1.392584e-001
6.356495e+003,1.296616e-001
6.360352e+003,1.113197e-001
6.364209e+003,1.127409e-001
6.368066e+003,1.370642e-001
6.371923e+003,1.544541e-001
6.375780e+003,1.551218e-001
6.379637e+003,1.402472e-001
6.383494e+003,1.368978e-001
6.387352e+003,1.224197e-001
6.391208e+003,1.061051e-001
6.395065e+003,1.034753e-001
6.398923e+003,1.193565e-001
6.402780e+003,1.196892e-001
6.406637e+003,1.113747e-001
6.410494e+003,1.103520e-001
6.414351e+003,1.012020e-001
6.418208e+003,1.094839e-001
6.422065e+003,1.292763e-001
6.425922e+003,1.485973e-001
6.429779e+003,1.483514e-001
6.433637e+003,1.167198e-001
6.437494e+003,1.231952e-001
6.441351e+003,1.263819e-001
6.445208e+003,1.092962e-001
6.449065e+003,1.150822e-001
6.452922e+003,1.303076e-001
6.456779e+003,1.292451e-001
6.460636e+003,1.372577e-001
6.464493e+003,1.494255e-001
6.468351e+003,1.689709e-001
6.472208e+003,1.709711e-001
6.476064e+003,1.504857e-001
6.479922e+003,1.343977e-001
6.483779e+003,1.302595e-001
6.487636e+003,1.472979e-001
6.491493e+003,1.441896e-001
6.495350e+003,1.244032e-001
6.499207e+003,1.278081e-001
6.503064e+003,1.475056e-001
6.506921e+003,1.304339e-001
6.510778e+003,1.129972e-001
6.514636e+003,1.414450e-001
6.518493e+003,1.472400e-001
6.522350e+003,1.351134e-001
6.526207e+003,1.439791e-001
6.530064e+003,1.535299e-001
6.533921e+003,1.573715e-001
6.537778e+003,1.494648e-001
6.541635e+003,1.393126e-001
6.545492e+003,1.348561e-001
6.549350e+003,1.484101e-001
6.553207e+003,1.678271e-001
6.557063e+003,1.664603e-001
6.560921e+003,1.567769e-001
6.564778e+003,1.563511e-001
6.568635e+003,1.405116e-001
6.572492e+003,1.270160e-001
6.576349e+003,1.208598e-001
6.580206e+003,1.198141e-001
6.584063e+003,1.371649e-001
6.587920e+003,1.573635e-001
6.591777e+003,1.551332e-001
6.595635e+003,1.256118e-001
6.599492e+003,1.227901e-001
6.603349e+003,1.349187e-001
6.607206e+003,1.100942e-001
6.611063e+003,7.511289e-002
6.614920e+003,1.026849e-001
6.618777e+003,1.383790e-001
6.622634e+003,1.466984e-001
6.626491e+003,1.535660e-001
6.630349e+003,1.377139e-001
6.634206e+003,1.209775e-001
6.638063e+003,1.442211e-001
6.641920e+003,1.371243e-001
6.645777e+003,1.204073e-001
6.649634e+003,1.380389e-001
6.653491e+003,1.269672e-001
6.657348e+003,1.214840e-001
6.661205e+003,1.503907e-001
6.665063e+003,1.686187e-001
6.668919e+003,1.567882e-001
6.672776e+003,1.274671e-001
6.676634e+003,9.355937e-002
6.680491e+003,9.417617e-002
6.684348e+003,1.272084e-001
6.688205e+003,1.652354e-001
6.692062e+003,1.600310e-001
6.695919e+003,1.402620e-001
6.699776e+003,1.401123e-001
6.703633e+003,1.375901e-001
6.707490e+003,1.624181e-001
6.711348e+003,1.716921e-001
6.715205e+003,1.494901e-001
6.719062e+003,1.375578e-001
6.722919e+003,1.282926e-001
6.726776e+003,1.300442e-001
6.730633e+003,1.426033e-001
6.734490e+003,1.418014e-001
6.738347e+003,1.473437e-001
6.742204e+003,1.344212e-001
6.746062e+003,1.386393e-001
6.749918e+003,1.505488e-001
6.753775e+003,1.317028e-001
6.757633e+003,1.106710e-001
6.761490e+003,1.060532e-001
6.765347e+003,1.211784e-001
6.769204e+003,1.436273e-001
6.773061e+003,1.490848e-001
6.776918e+003,1.466807e-001
6.780775e+003,1.678460e-001
6.784632e+003,1.398207e-001
6.788489e+003,1.415638e-001
6.792347e+003,1.584896e-001
6.796204e+003,1.456963e-001
6.800061e+003,1.306125e-001
6.803918e+003,1.149616e-001
6.807775e+003,1.253211e-001
6.811632e+003,1.497051e-001
6.815489e+003,1.654773e-001
6.819346e+003,1.714575e-001
6.823203e+003,1.601304e-001
6.827061e+003,1.722046e-001
6.830917e+003,1.768166e-001
6.834774e+003,1.691649e-001
6.838632e+003,1.424688e-001
6.842489e+003,1.466265e-001
6.846346e+003,1.459574e-001
6.850203e+003,1.377674e-001
6.854060e+003,1.449015e-001
6.857917e+003,1.534545e-001
6.861774e+003,1.366712e-001
6.865631e+003,1.164882e-001
6.869488e+003,1.112227e-001
6.873346e+003,1.028024e-001
6.877203e+003,1.125966e-001
6.881060e+003,1.220352e-001
6.884917e+003,1.137613e-001
6.888774e+003,7.913571e-002
6.892631e+003,5.826582e-002
6.896488e+003,1.033940e-001
6.900345e+003,1.244389e-001
6.904202e+003,1.365846e-001
6.908060e+003,1.812891e-001
6.911917e+003,1.823284e-001
6.915773e+003,1.277671e-001
6.919631e+003,9.711085e-002
6.923488e+003,1.205220e-001
6.927345e+003,1.676249e-001
6.931202e+003,1.868741e-001
6.935059e+003,1.163099e-001
6.938916e+003,9.783805e-002
6.942773e+003,1.693626e-001
6.946630e+003,1.786377e-001
6.950487e+003,1.235581e-001
6.954345e+003,9.862905e-002
6.958202e+003,1.291498e-001
6.962059e+003,1.627028e-001
6.965916e+003,1.575916e-001
6.969773e+003,1.166535e-001
6.973630e+003,8.331245e-002
6.977487e+003,1.046235e-001
6.981344e+003,1.501357e-001
6.985201e+003,1.517130e-001
6.989059e+003,1.361898e-001
6.992916e+003,1.662141e-001
6.996772e+003,1.626385e-001
7.000630e+003,1.266075e-001
7.004487e+003,8.810923e-002
7.008344e+003,1.102946e-001
7.012201e+003,1.451227e-001
7.016058e+003,1.713575e-001
7.019915e+003,1.760888e-001
7.023772e+003,1.716596e-001
7.027629e+003,1.834372e-001
7.031486e+003,1.416653e-001
7.035344e+003,1.281050e-001
7.039201e+003,1.846809e-001
7.043058e+003,1.704485e-001
7.046915e+003,8.144414e-002
7.050772e+003,8.273938e-002
7.054629e+003,1.151652e-001
7.058486e+003,9.934080e-002
7.062343e+003,1.048875e-001
7.066200e+003,1.192440e-001
7.070058e+003,1.312385e-001
7.073915e+003,1.212743e-001
7.077771e+003,1.242381e-001
7.081629e+003,1.267184e-001
7.085486e+003,9.733711e-002
7.089343e+003,1.120833e-001
7.093200e+003,7.365174e-002
7.097057e+003,5.570748e-002
7.100914e+003,1.272829e-001
7.104771e+003,1.469538e-001
7.108628e+003,1.563103e-001
7.112485e+003,1.161828e-001
7.116343e+003,1.107909e-001
7.120200e+003,1.515009e-001
7.124057e+003,1.560772e-001
7.127914e+003,1.758694e-001
7.131771e+003,1.540024e-001
7.135628e+003,1.052293e-001
7.139485e+003,1.457577e-001
7.143342e+003,1.900001e-001
7.147199e+003,1.897123e-001
7.151057e+003,1.750541e-001
7.154914e+003,1.593017e-001
7.158771e+003,1.527164e-001
7.162628e+003,1.506033e-001
7.166485e+003,1.344090e-001
7.170342e+003,1.380569e-001
7.174199e+003,1.390925e-001
7.178056e+003,1.433553e-001
7.181913e+003,1.399200e-001
7.185771e+003,1.116169e-001
7.189627e+003,9.815943e-002
7.193484e+003,1.759469e-001
7.197342e+003,2.199503e-001
7.201199e+003,1.771334e-001
7.205056e+003,1.216512e-001
7.208913e+003,9.445972e-002
7.212770e+003,1.222867e-001
7.216627e+003,1.177160e-001
7.220484e+003,1.520361e-001
7.224341e+003,2.232417e-001
7.228198e+003,1.998137e-001
7.232056e+003,1.551155e-001
7.235913e+003,1.915092e-001
7.239770e+003,2.048298e-001
7.243627e+003,1.653083e-001
7.247484e+003,1.825584e-001
7.251341e+003,1.144938e-001
7.255198e+003,3.910444e-002
7.259055e+003,8.112531e-002
7.262912e+003,1.236797e-001
7.266770e+003,1.123466e-001
7.270626e+003,8.151753e-002
7.274483e+003,1.246382e-001
7.278341e+003,1.660192e-001
7.282198e+003,1.262424e-001
7.286055e+003,1.218219e-001
7.289912e+003,1.539020e-001
7.293769e+003,1.581387e-001
7.297626e+003,1.413973e-001
7.301483e+003,1.136685e-001
7.305340e+003,9.902105e-002
7.309197e+003,1.183960e-001
7.313055e+003,1.410162e-001
7.316912e+003,1.278692e-001
7.320769e+003,1.354589e-001
7.324626e+003,1.264571e-001
7.328483e+003,1.185734e-001
7.332340e+003,1.295708e-001
7.336197e+003,1.396196e-001
7.340054e+003,1.411576e-001
7.343911e+003,1.733052e-001
7.347769e+003,1.750767e-001
7.351625e+003,1.458308e-001
7.355482e+003,1.301776e-001
7.359340e+003,1.149398e-001
7.363197e+003,1.548568e-001
7.367054e+003,1.850415e-001
7.370911e+003,2.269487e-001
7.374768e+003,2.803833e-001
7.378625e+003,1.708742e-001
7.382482e+003,1.440015e-001
7.386339e+003,2.108732e-001
7.390196e+003,1.856097e-001
7.394054e+003,1.804139e-001
7.397911e+003,1.754931e-001
7.401768e+003,1.597360e-001
7.405625e+003,1.710264e-001
7.409482e+003,1.722403e-001
7.413339e+003,1.006206e-001
7.417196e+003,5.329967e-002
7.421053e+003,1.385663e-001
7.424910e+003,1.690937e-001
7.428768e+003,1.154862e-001
7.432625e+003,1.544039e-001
7.436481e+003,1.818004e-001
7.440339e+003,1.716522e-001
7.444196e+003,1.394477e-001
7.448053e+003,1.250068e-001
7.451910e+003,1.794043e-001
7.455767e+003,1.564814e-001
7.459624e+003,8.223340e-002
7.463481e+003,1.311410e-001
7.467338e+003,2.092765e-001
7.471195e+003,1.807827e-001
7.475053e+003,1.063718e-001
7.478910e+003,8.990308e-002
7.482767e+003,1.569065e-001
7.486624e+003,2.054347e-001
7.490481e+003,2.016896e-001
7.494338e+003,1.832759e-001
7.498195e+003,1.768437e-001
7.502052e+003,1.477544e-001
7.505909e+003,8.265179e-002
7.509767e+003,2.133597e-003
7.513624e+003,2.372957e-002
7.517480e+003,9.535141e-002
7.521338e+003,1.312360e-001
7.525195e+003,1.590210e-001
7.529052e+003,1.318940e-001
7.532909e+003,6.117136e-002
7.536766e+003,7.439808e-002
7.540623e+003,1.643711e-001
7.544480e+003,1.444956e-001
7.548337e+003,8.192515e-002
7.552194e+003,1.252688e-001
7.556052e+003,1.370246e-001
7.559909e+003,7.907990e-002
7.563766e+003,1.028706e-001
7.567623e+003,1.145679e-001
7.571480e+003,1.324268e-001
7.575337e+003,1.228103e-001
7.579194e+003,9.195818e-002
7.583051e+003,1.386183e-001
7.586908e+003,1.298845e-001
7.590766e+003,1.190402e-001
7.594623e+003,1.305527e-001
7.598479e+003,1.663987e-001
7.602337e+003,1.421357e-001
7.606194e+003,1.907134e-001
7.610051e+003,1.793057e-001
7.613908e+003,1.744374e-001
7.617765e+003,1.690165e-001
7.621622e+003,1.982753e-001
7.625479e+003,1.588369e-001
7.629336e+003,1.359802e-001
7.633193e+003,1.363194e-001
7.637051e+003,1.232620e-001
7.640908e+003,1.209492e-001
7.644765e+003,8.079522e-002
7.648622e+003,8.160677e-002
7.652479e+003,5.703790e-002
7.656336e+003,1.353104e-001
7.660193e+003,2.771036e-001
7.664050e+003,2.518632e-001
7.667907e+003,1.840105e-001
7.671765e+003,8.365555e-002
7.675622e+003,3.351367e-002
7.679479e+003,3.996805e-002
7.683336e+003,1.201230e-001
7.687193e+003,1.601126e-001
7.691050e+003,1.300531e-001
7.694907e+003,9.721835e-002
7.698764e+003,1.103024e-001
7.702621e+003,1.604300e-001
7.706479e+003,2.792567e-001
7.710335e+003,3.488356e-001
7.714192e+003,2.237368e-001
7.718050e+003,9.394937e-002
7.721907e+003,7.244075e-002
7.725764e+003,8.784821e-002
7.729621e+003,1.223447e-001
7.733478e+003,1.442706e-001
7.737335e+003,1.492893e-001
7.741192e+003,7.581946e-002
7.745049e+003,-2.526441e-002
7.748906e+003,3.598479e-003
7.752764e+003,8.465599e-002
7.756621e+003,1.550054e-001
7.760478e+003,1.442873e-001
7.764335e+003,9.729429e-002
7.768192e+003,7.424206e-002
7.772049e+003,1.361639e-001
7.775906e+003,2.066856e-001
7.779763e+003,1.398540e-001
7.783620e+003,8.575235e-002
7.787478e+003,1.300377e-001
7.791334e+003,1.948690e-001
7.795191e+003,1.402697e-001
7.799049e+003,2.089291e-001
7.802906e+003,2.545947e-001
7.806763e+003,3.350965e-001
7.810620e+003,3.188102e-001
7.814477e+003,1.691490e-001
7.818334e+003,1.375141e-001
7.822191e+003,1.675275e-001
7.826048e+003,2.030118e-001
7.829905e+003,2.296374e-001
7.833763e+003,2.117193e-001
7.837620e+003,2.130082e-001
7.841477e+003,3.203875e-001
7.845334e+003,2.217459e-001
7.849191e+003,-9.884392e-003
7.853048e+003,1.012946e-001
7.856905e+003,2.384336e-001
7.860762e+003,2.370883e-001
7.864619e+003,2.979238e-001
7.868477e+003,2.853522e-001
7.872333e+003,2.050996e-001
7.876190e+003,1.082027e-001
7.880048e+003,1.764142e-002
7.883905e+003,3.869701e-002
7.887762e+003,1.564243e-001
7.891619e+003,1.242817e-001
7.895476e+003,2.676944e-002
7.899333e+003,-1.021974e-002
7.903190e+003,-2.396346e-002
7.907047e+003,6.339771e-002
7.910904e+003,2.090688e-001
7.914762e+003,2.447956e-001
7.918619e+003,2.047414e-001
7.922476e+003,1.985279e-001
7.926333e+003,2.466083e-001
7.930190e+003,3.487643e-001
7.934047e+003,2.595424e-001
7.937904e+003,2.321108e-001
7.941761e+003,9.058977e-002
7.945618e+003,3.842301e-002
7.949476e+003,2.954458e-001
7.953333e+003,4.170548e-001
7.957189e+003,1.997564e-001
7.961047e+003,4.356093e-002
7.964904e+003,8.018930e-002
7.968761e+003,3.329494e-001
7.972618e+003,5.708961e-001
7.976475e+003,4.263735e-001
7.980332e+003,2.376309e-001
7.984189e+003,1.964485e-001
7.988046e+003,3.079660e-001
7.991903e+003,2.841591e-001
7.995761e+003,1.123514e-001
7.999618e+003,1.231409e-001
