4.011380e+002,6.000000e+000
4.049951e+002,6.000000e+000
4.088522e+002,6.000000e+000
4.127093e+002,2.069017e-001
4.165664e+002,6.000000e+000
4.204235e+002,-6.670186e-001
4.242806e+002,6.000000e+000
4.281377e+002,7.815299e-001
4.319948e+002,6.000000e+000
4.358519e+002,6.000000e+000
4.397090e+002,6.000000e+000
4.435661e+002,-5.390874e-001
4.474232e+002,6.416864e-002
4.512803e+002,-7.767941e-001
4.551374e+002,-9.173810e-002
4.589945e+002,-5.409567e-001
4.628516e+002,6.000000e+000
4.667087e+002,2.379961e-001
4.705658e+002,6.000000e+000
4.744229e+002,6.000000e+000
4.782800e+002,5.415478e-001
4.821371e+002,-7.468293e-001
4.859941e+002,-1.009179e-001
4.898513e+002,-9.305665e-001
4.937083e+002,6.000000e+000
4.975654e+002,6.000000e+000
5.014225e+002,6.000000e+000
5.052796e+002,6.703110e-001
5.091367e+002,6.000000e+000
5.129938e+002,6.000000e+000
5.168509e+002,6.000000e+000
5.207080e+002,-7.569685e-002
5.245651e+002,6.000000e+000
5.284222e+002,3.357366e-001
5.322793e+002,6.000000e+000
5.361364e+002,2.426482e-001
5.399935e+002,6.000000e+000
5.438506e+002,6.000000e+000
5.477077e+002,2.550963e-001
5.515648e+002,-2.691965e-001
5.554219e+002,7.550748e-001
5.592790e+002,-8.878662e-002
5.631361e+002,6.000000e+000
5.669932e+002,6.000000e+000
5.708503e+002,6.000000e+000
5.747074e+002,6.000000e+000
5.785645e+002,6.000000e+000
5.824216e+002,6.000000e+000
5.862787e+002,1.045830e+000
5.901357e+002,-2.049395e-001
5.939929e+002,6.000000e+000
5.978499e+002,6.560522e-001
6.017070e+002,6.000000e+000
6.055641e+002,-4.170649e-001
6.094212e+002,6.000000e+000
6.132783e+002,6.000000e+000
6.171354e+002,6.000000e+000
6.209925e+002,-2.225249e-001
6.248496e+002,6.000000e+000
6.287067e+002,6.000000e+000
6.325638e+002,6.000000e+000
6.364209e+002,6.000000e+000
6.402780e+002,7.476045e-001
6.441351e+002,6.000000e+000
6.479922e+002,6.000000e+000
6.518493e+002,6.000000e+000
6.557064e+002,-1.259219e+000
6.595635e+002,6.000000e+000
6.634205e+002,1.339541e+000
6.672777e+002,6.000000e+000
6.711348e+002,6.000000e+000
6.749918e+002,6.000000e+000
6.788490e+002,-1.210836e+000
6.827061e+002,-7.408382e-001
6.865631e+002,6.000000e+000
6.904203e+002,6.000000e+000
6.942773e+002,6.000000e+000
6.981344e+002,3.301573e-001
7.019916e+002,6.000000e+000
7.058486e+002,1.526037e+000
7.097057e+002,-1.541189e-001
7.135629e+002,6.000000e+000
7.174199e+002,6.000000e+000
7.212770e+002,-2.785961e-001
7.251342e+002,2.409740e-001
7.289912e+002,1.190822e+000
7.328483e+002,6.000000e+000
7.367054e+002,6.000000e+000
7.405625e+002,4.997923e-001
7.444196e+002,-4.869889e-001
7.482767e+002,6.000000e+000
7.521338e+002,-8.778267e-001
7.559908e+002,9.987588e-002
7.598480e+002,-8.692042e-001
7.637051e+002,6.000000e+000
7.675621e+002,6.000000e+000
7.714193e+002,6.000000e+000
7.752764e+002,6.000000e+000
7.791334e+002,6.000000e+000
7.829905e+002,6.000000e+000
7.868477e+002,3.721856e-001
7.907047e+002,6.000000e+000
7.945618e+002,6.000000e+000
7.984189e+002,6.000000e+000
8.022760e+002,6.000000e+000
8.061331e+002,3.421010e-001
8.099902e+002,6.000000e+000
8.138473e+002,1.138736e+000
8.177044e+002,3.139249e-001
8.215615e+002,4.155553e-001
8.254186e+002,7.849671e-001
8.292757e+002,7.981665e-001
8.331328e+002,8.958836e-001
8.369899e+002,6.709914e-001
8.408470e+002,6.000000e+000
8.447041e+002,5.428408e-001
8.485612e+002,5.741573e-001
8.524183e+002,6.000000e+000
8.562754e+002,6.000000e+000
8.601324e+002,6.000000e+000
8.639896e+002,8.210316e-001
8.678467e+002,8.043976e-001
8.717037e+002,9.925697e-001
8.755609e+002,1.039533e+000
8.794180e+002,1.671581e+000
8.832750e+002,1.378573e+000
8.871321e+002,9.887586e-001
8.909893e+002,1.398159e+000
8.948463e+002,1.381051e+000
8.987034e+002,6.000000e+000
9.025605e+002,6.000000e+000
9.064176e+002,6.000000e+000
9.102747e+002,1.424070e+000
9.141318e+002,1.934698e+000
9.179889e+002,6.000000e+000
9.218461e+002,6.000000e+000
9.257031e+002,1.745237e+000
9.295602e+002,2.023625e+000
9.334174e+002,6.000000e+000
9.372744e+002,6.000000e+000
9.411315e+002,2.383846e+000
9.449886e+002,6.000000e+000
9.488457e+002,6.000000e+000
9.527028e+002,6.000000e+000
9.565599e+002,2.212742e+000
9.604170e+002,1.748361e+000
9.642740e+002,1.841698e+000
9.681312e+002,2.037666e+000
9.719883e+002,2.153687e+000
9.758453e+002,1.714267e+000
9.797025e+002,1.928447e+000
9.835596e+002,6.000000e+000
9.874166e+002,6.000000e+000
9.912738e+002,3.243371e+000
9.951309e+002,2.062059e+000
9.989879e+002,6.000000e+000
1.002845e+003,2.679645e+000
1.006702e+003,1.699575e+000
1.010559e+003,1.740308e+000
1.014416e+003,6.000000e+000
1.018273e+003,6.000000e+000
1.022130e+003,2.583583e+000
1.025988e+003,2.005857e+000
1.029845e+003,1.843179e+000
1.033702e+003,1.778204e+000
1.037559e+003,1.654809e+000
1.041416e+003,1.597995e+000
1.045273e+003,1.621394e+000
1.049130e+003,1.641956e+000
1.052987e+003,1.514300e+000
1.056844e+003,1.384348e+000
1.060702e+003,1.488037e+000
1.064559e+003,1.693130e+000
1.068416e+003,1.656370e+000
1.072273e+003,1.453050e+000
1.076130e+003,1.487422e+000
1.079987e+003,1.459643e+000
1.083844e+003,1.264214e+000
1.087701e+003,1.206416e+000
1.091558e+003,1.188097e+000
1.095415e+003,1.221634e+000
1.099272e+003,1.361646e+000
1.103130e+003,1.324445e+000
1.106987e+003,1.233398e+000
1.110844e+003,1.217056e+000
1.114701e+003,1.147571e+000
1.118558e+003,1.128778e+000
1.122415e+003,1.147683e+000
1.126272e+003,1.122296e+000
1.130129e+003,1.121717e+000
1.133986e+003,1.155133e+000
1.137843e+003,1.146865e+000
1.141701e+003,1.078328e+000
1.145558e+003,1.027046e+000
1.149415e+003,9.969889e-001
1.153272e+003,9.893420e-001
1.157129e+003,1.049606e+000
1.160986e+003,1.089958e+000
1.164843e+003,1.065758e+000
1.168700e+003,1.054088e+000
1.172557e+003,1.037974e+000
1.176414e+003,9.927551e-001
1.180271e+003,9.802831e-001
1.184129e+003,1.030398e+000
1.187986e+003,1.033756e+000
1.191843e+003,9.880034e-001
1.195700e+003,9.673362e-001
1.199557e+003,9.783818e-001
1.203414e+003,9.884684e-001
1.207271e+003,9.424312e-001
1.211128e+003,8.955425e-001
1.214985e+003,8.646590e-001
1.218842e+003,8.425808e-001
1.222699e+003,8.046934e-001
1.226557e+003,7.513723e-001
1.230414e+003,7.009003e-001
1.234271e+003,6.710722e-001
1.238128e+003,6.429717e-001
1.241985e+003,6.183130e-001
1.245842e+003,5.961235e-001
1.249699e+003,5.713748e-001
1.253556e+003,5.425085e-001
1.257413e+003,5.155088e-001
1.261271e+003,5.013067e-001
1.265128e+003,4.830043e-001
1.268985e+003,4.611405e-001
1.272842e+003,4.471888e-001
1.276699e+003,4.368987e-001
1.280556e+003,4.230332e-001
1.284413e+003,4.169510e-001
1.288270e+003,4.075325e-001
1.292127e+003,3.902705e-001
1.295984e+003,3.800202e-001
1.299841e+003,3.699742e-001
1.303698e+003,3.589011e-001
1.307556e+003,3.506025e-001
1.311413e+003,3.401155e-001
1.315270e+003,3.303422e-001
1.319127e+003,3.276111e-001
1.322984e+003,3.225394e-001
1.326841e+003,3.126229e-001
1.330698e+003,3.114843e-001
1.334555e+003,3.132847e-001
1.338412e+003,3.073426e-001
1.342270e+003,3.029672e-001
1.346127e+003,2.961588e-001
1.349984e+003,2.924049e-001
1.353841e+003,2.917719e-001
1.357698e+003,2.913649e-001
1.361555e+003,2.906503e-001
1.365412e+003,2.837939e-001
1.369269e+003,2.796257e-001
1.373126e+003,2.820785e-001
1.376983e+003,2.904547e-001
1.380840e+003,2.997042e-001
1.384698e+003,3.030301e-001
1.388555e+003,3.065107e-001
1.392412e+003,3.198342e-001
1.396269e+003,3.270317e-001
1.400126e+003,3.305303e-001
1.403983e+003,3.391704e-001
1.407840e+003,3.476123e-001
1.411697e+003,3.575416e-001
1.415554e+003,3.642113e-001
1.419411e+003,3.708178e-001
1.423269e+003,3.759443e-001
1.427126e+003,3.756809e-001
1.430983e+003,3.773454e-001
1.434840e+003,3.771041e-001
1.438697e+003,3.775682e-001
1.442554e+003,3.711533e-001
1.446411e+003,3.644741e-001
1.450268e+003,3.636542e-001
1.454125e+003,3.612025e-001
1.457982e+003,3.518627e-001
1.461839e+003,3.426071e-001
1.465697e+003,3.398885e-001
1.469554e+003,3.436233e-001
1.473411e+003,3.450881e-001
1.477268e+003,3.460146e-001
1.481125e+003,3.455699e-001
1.484982e+003,3.486571e-001
1.488839e+003,3.548400e-001
1.492696e+003,3.623878e-001
1.496553e+003,3.691047e-001
1.500411e+003,3.732440e-001
1.504268e+003,3.766620e-001
1.508125e+003,3.802787e-001
1.511982e+003,3.829912e-001
1.515839e+003,3.830077e-001
1.519696e+003,3.792539e-001
1.523553e+003,3.719870e-001
1.527410e+003,3.692018e-001
1.531267e+003,3.665585e-001
1.535124e+003,3.616222e-001
1.538981e+003,3.569540e-001
1.542839e+003,3.527770e-001
1.546696e+003,3.483590e-001
1.550553e+003,3.437862e-001
1.554410e+003,3.313531e-001
1.558267e+003,3.199713e-001
1.562124e+003,3.161741e-001
1.565981e+003,3.095796e-001
1.569838e+003,3.036665e-001
1.573695e+003,2.977210e-001
1.577552e+003,2.944645e-001
1.581410e+003,2.961675e-001
1.585267e+003,2.949055e-001
1.589124e+003,2.913309e-001
1.592981e+003,2.970471e-001
1.596838e+003,3.036466e-001
1.600695e+003,3.105889e-001
1.604552e+003,3.185787e-001
1.608409e+003,3.255979e-001
1.612266e+003,3.349853e-001
1.616123e+003,3.493586e-001
1.619980e+003,3.649824e-001
1.623838e+003,3.780678e-001
1.627695e+003,3.933235e-001
1.631552e+003,4.042381e-001
1.635409e+003,4.070898e-001
1.639266e+003,4.093648e-001
1.643123e+003,4.095036e-001
1.646980e+003,3.998564e-001
1.650837e+003,3.907588e-001
1.654694e+003,3.829586e-001
1.658551e+003,3.776883e-001
1.662409e+003,3.695604e-001
1.666266e+003,3.570023e-001
1.670123e+003,3.475956e-001
1.673980e+003,3.425655e-001
1.677837e+003,3.303100e-001
1.681694e+003,3.205892e-001
1.685551e+003,3.148032e-001
1.689408e+003,3.051366e-001
1.693265e+003,2.954035e-001
1.697122e+003,2.892962e-001
1.700979e+003,2.849953e-001
1.704837e+003,2.828461e-001
1.708694e+003,2.779445e-001
1.712551e+003,2.760676e-001
1.716408e+003,2.729262e-001
1.720265e+003,2.734685e-001
1.724122e+003,2.737880e-001
1.727979e+003,2.742511e-001
1.731836e+003,2.780897e-001
1.735693e+003,2.813101e-001
1.739550e+003,2.804792e-001
1.743408e+003,2.789002e-001
1.747265e+003,2.815707e-001
1.751122e+003,2.828436e-001
1.754979e+003,2.887800e-001
1.758836e+003,2.954350e-001
1.762693e+003,2.954048e-001
1.766550e+003,2.914083e-001
1.770407e+003,2.891479e-001
1.774264e+003,2.894830e-001
1.778121e+003,2.873075e-001
1.781979e+003,2.845208e-001
1.785836e+003,2.802921e-001
1.789693e+003,2.757775e-001
1.793550e+003,2.715628e-001
1.797407e+003,2.667624e-001
1.801264e+003,2.596014e-001
1.805121e+003,2.565392e-001
1.808978e+003,2.580022e-001
1.812835e+003,2.584644e-001
1.816692e+003,2.545741e-001
1.820549e+003,2.487108e-001
1.824407e+003,2.471460e-001
1.828264e+003,2.498540e-001
1.832121e+003,2.500388e-001
1.835978e+003,2.498138e-001
1.839835e+003,2.518800e-001
1.843692e+003,2.513597e-001
1.847549e+003,2.476298e-001
1.851406e+003,2.470688e-001
1.855263e+003,2.488226e-001
1.859120e+003,2.468985e-001
1.862978e+003,2.458254e-001
1.866835e+003,2.471131e-001
1.870692e+003,2.492263e-001
1.874549e+003,2.520508e-001
1.878406e+003,2.503326e-001
1.882263e+003,2.485603e-001
1.886120e+003,2.508375e-001
1.889977e+003,2.538840e-001
1.893834e+003,2.548320e-001
1.897691e+003,2.531237e-001
1.901548e+003,2.478461e-001
1.905406e+003,2.419751e-001
1.909263e+003,2.425645e-001
1.913120e+003,2.429600e-001
1.916977e+003,2.402919e-001
1.920834e+003,2.394443e-001
1.924691e+003,2.384982e-001
1.928548e+003,2.338978e-001
1.932405e+003,2.276307e-001
1.936262e+003,2.239857e-001
1.940119e+003,2.199048e-001
1.943977e+003,2.167594e-001
1.947834e+003,2.169754e-001
1.951691e+003,2.162838e-001
1.955548e+003,2.165520e-001
1.959405e+003,2.157297e-001
1.963262e+003,2.127941e-001
1.967119e+003,2.123839e-001
1.970976e+003,2.146224e-001
1.974833e+003,2.153906e-001
1.978690e+003,2.143500e-001
1.982547e+003,2.178390e-001
1.986405e+003,2.198985e-001
1.990262e+003,2.210699e-001
1.994119e+003,2.258097e-001
1.997976e+003,2.274527e-001
2.001833e+003,2.272639e-001
2.005690e+003,2.294441e-001
2.009547e+003,2.333954e-001
2.013404e+003,2.351137e-001
2.017261e+003,2.294240e-001
2.021118e+003,2.271121e-001
2.024976e+003,2.312462e-001
2.028833e+003,2.307740e-001
2.032690e+003,2.285902e-001
2.036547e+003,2.249821e-001
2.040404e+003,2.213585e-001
2.044261e+003,2.206144e-001
2.048118e+003,2.149450e-001
2.051975e+003,2.066139e-001
2.055832e+003,2.043228e-001
2.059689e+003,2.025989e-001
2.063546e+003,1.989481e-001
2.067404e+003,1.966317e-001
2.071261e+003,1.960872e-001
2.075118e+003,1.970329e-001
2.078975e+003,1.968531e-001
2.082832e+003,1.934515e-001
2.086689e+003,1.897535e-001
2.090546e+003,1.918744e-001
2.094403e+003,1.966442e-001
2.098260e+003,1.991700e-001
2.102117e+003,1.992886e-001
2.105975e+003,2.018868e-001
2.109832e+003,2.053488e-001
2.113689e+003,2.058918e-001
2.117546e+003,2.042838e-001
2.121403e+003,2.060275e-001
2.125260e+003,2.107053e-001
2.129117e+003,2.133367e-001
2.132974e+003,2.150174e-001
2.136831e+003,2.142000e-001
2.140688e+003,2.143947e-001
2.144545e+003,2.169133e-001
2.148403e+003,2.157978e-001
2.152260e+003,2.131536e-001
2.156117e+003,2.115860e-001
2.159974e+003,2.095232e-001
2.163831e+003,2.072901e-001
2.167688e+003,2.065045e-001
2.171545e+003,2.065523e-001
2.175402e+003,2.040606e-001
2.179259e+003,1.985087e-001
2.183116e+003,1.955134e-001
2.186974e+003,1.960372e-001
2.190831e+003,1.951237e-001
2.194688e+003,1.944398e-001
2.198545e+003,1.932932e-001
2.202402e+003,1.921689e-001
2.206259e+003,1.904414e-001
2.210116e+003,1.906108e-001
2.213973e+003,1.904717e-001
2.217830e+003,1.893143e-001
2.221688e+003,1.895104e-001
2.225544e+003,1.936234e-001
2.229402e+003,1.960469e-001
2.233259e+003,1.959230e-001
2.237116e+003,1.960945e-001
2.240973e+003,1.996479e-001
2.244830e+003,2.066040e-001
2.248687e+003,2.142046e-001
2.252544e+003,2.135942e-001
2.256401e+003,2.122038e-001
2.260258e+003,2.125080e-001
2.264115e+003,2.114768e-001
2.267973e+003,2.139545e-001
2.271830e+003,2.181955e-001
2.275687e+003,2.189357e-001
2.279544e+003,2.176791e-001
2.283401e+003,2.185124e-001
2.287258e+003,2.164484e-001
2.291115e+003,2.129864e-001
2.294972e+003,2.137414e-001
2.298829e+003,2.135229e-001
2.302687e+003,2.130987e-001
2.306543e+003,2.115493e-001
2.310401e+003,2.082228e-001
2.314258e+003,2.018145e-001
2.318115e+003,1.977626e-001
2.321972e+003,2.001622e-001
2.325829e+003,1.954146e-001
2.329686e+003,1.895152e-001
2.333543e+003,1.928692e-001
2.337400e+003,1.920045e-001
2.341257e+003,1.899899e-001
2.345115e+003,1.949107e-001
2.348972e+003,1.967675e-001
2.352829e+003,1.943545e-001
2.356686e+003,1.915400e-001
2.360543e+003,1.956453e-001
2.364400e+003,1.977254e-001
2.368257e+003,1.969685e-001
2.372114e+003,1.980313e-001
2.375971e+003,2.049969e-001
2.379828e+003,2.135033e-001
2.383686e+003,2.167634e-001
2.387542e+003,2.184434e-001
2.391400e+003,2.162174e-001
2.395257e+003,2.177227e-001
2.399114e+003,2.222724e-001
2.402971e+003,2.230760e-001
2.406828e+003,2.196806e-001
2.410685e+003,2.168999e-001
2.414542e+003,2.176241e-001
2.418399e+003,2.165684e-001
2.422256e+003,2.143033e-001
2.426114e+003,2.121054e-001
2.429971e+003,2.095100e-001
2.433828e+003,2.096063e-001
2.437685e+003,2.088264e-001
2.441542e+003,2.056932e-001
2.445399e+003,2.032756e-001
2.449256e+003,1.984662e-001
2.453113e+003,1.950286e-001
2.456970e+003,1.950558e-001
2.460827e+003,1.961852e-001
2.464684e+003,1.970120e-001
2.468542e+003,1.950372e-001
2.472399e+003,1.923202e-001
2.476256e+003,1.948832e-001
2.480113e+003,1.947556e-001
2.483970e+003,1.894970e-001
2.487827e+003,1.895415e-001
2.491684e+003,1.970291e-001
2.495541e+003,2.031790e-001
2.499398e+003,2.032579e-001
2.503255e+003,2.036905e-001
2.507113e+003,2.056244e-001
2.510969e+003,2.064791e-001
2.514827e+003,2.094276e-001
2.518684e+003,2.132759e-001
2.522541e+003,2.157767e-001
2.526398e+003,2.176777e-001
2.530255e+003,2.156233e-001
2.534112e+003,2.165292e-001
2.537969e+003,2.204889e-001
2.541826e+003,2.207518e-001
2.545683e+003,2.196379e-001
2.549541e+003,2.197166e-001
2.553398e+003,2.207774e-001
2.557255e+003,2.175375e-001
2.561112e+003,2.157829e-001
2.564969e+003,2.144648e-001
2.568826e+003,2.108377e-001
2.572683e+003,2.103079e-001
2.576540e+003,2.092002e-001
2.580397e+003,2.068335e-001
2.584254e+003,2.050194e-001
2.588112e+003,2.032601e-001
2.591969e+003,2.025650e-001
2.595826e+003,2.027161e-001
2.599683e+003,2.024977e-001
2.603540e+003,2.012701e-001
2.607397e+003,2.012995e-001
2.611254e+003,2.028570e-001
2.615111e+003,2.078009e-001
2.618968e+003,2.104242e-001
2.622825e+003,2.135713e-001
2.626682e+003,2.174050e-001
2.630540e+003,2.177652e-001
2.634397e+003,2.207071e-001
2.638254e+003,2.249242e-001
2.642111e+003,2.280040e-001
2.645968e+003,2.316760e-001
2.649825e+003,2.327901e-001
2.653682e+003,2.337663e-001
2.657539e+003,2.345688e-001
2.661396e+003,2.373775e-001
2.665253e+003,2.409965e-001
2.669111e+003,2.427333e-001
2.672968e+003,2.451761e-001
2.676825e+003,2.441959e-001
2.680682e+003,2.440409e-001
2.684539e+003,2.443799e-001
2.688396e+003,2.424217e-001
2.692253e+003,2.400980e-001
2.696110e+003,2.413478e-001
2.699967e+003,2.451317e-001
2.703824e+003,2.463383e-001
2.707681e+003,2.464945e-001
2.711539e+003,2.450660e-001
2.715396e+003,2.446439e-001
2.719253e+003,2.455211e-001
2.723110e+003,2.431758e-001
2.726967e+003,2.421287e-001
2.730824e+003,2.437681e-001
2.734681e+003,2.435507e-001
2.738538e+003,2.454071e-001
2.742395e+003,2.488716e-001
2.746252e+003,2.498645e-001
2.750110e+003,2.523600e-001
2.753967e+003,2.582794e-001
2.757824e+003,2.632762e-001
2.761681e+003,2.651717e-001
2.765538e+003,2.690243e-001
2.769395e+003,2.747060e-001
2.773252e+003,2.760524e-001
2.777109e+003,2.768890e-001
2.780966e+003,2.778811e-001
2.784823e+003,2.800855e-001
2.788680e+003,2.864693e-001
2.792538e+003,2.911190e-001
2.796395e+003,2.929161e-001
2.800252e+003,2.927970e-001
2.804109e+003,2.936894e-001
2.807966e+003,2.949451e-001
2.811823e+003,2.953594e-001
2.815680e+003,2.947076e-001
2.819537e+003,2.949490e-001
2.823394e+003,2.975087e-001
2.827251e+003,3.002507e-001
2.831109e+003,2.995259e-001
2.834966e+003,2.979386e-001
2.838823e+003,2.951251e-001
2.842680e+003,2.968034e-001
2.846537e+003,3.024283e-001
2.850394e+003,3.044617e-001
2.854251e+003,3.014121e-001
2.858108e+003,3.008404e-001
2.861965e+003,3.030313e-001
2.865823e+003,3.024304e-001
2.869679e+003,3.020751e-001
2.873537e+003,3.056081e-001
2.877394e+003,3.076791e-001
2.881251e+003,3.130150e-001
2.885108e+003,3.185501e-001
2.888965e+003,3.193544e-001
2.892822e+003,3.250020e-001
2.896679e+003,3.292938e-001
2.900536e+003,3.279220e-001
2.904393e+003,3.294060e-001
2.908250e+003,3.356448e-001
2.912108e+003,3.444935e-001
2.915965e+003,3.517460e-001
2.919822e+003,3.541630e-001
2.923679e+003,3.564544e-001
2.927536e+003,3.627146e-001
2.931393e+003,3.641236e-001
2.935250e+003,3.633250e-001
2.939107e+003,3.645802e-001
2.942964e+003,3.600841e-001
2.946822e+003,3.611410e-001
2.950678e+003,3.662724e-001
2.954536e+003,3.677951e-001
2.958393e+003,3.655057e-001
2.962250e+003,3.663689e-001
2.966107e+003,3.683600e-001
2.969964e+003,3.712703e-001
2.973821e+003,3.722556e-001
2.977678e+003,3.755147e-001
2.981535e+003,3.801039e-001
2.985392e+003,3.787875e-001
2.989250e+003,3.763376e-001
2.993107e+003,3.751576e-001
2.996964e+003,3.793699e-001
3.000821e+003,3.859625e-001
3.004678e+003,3.890695e-001
3.008535e+003,3.874495e-001
3.012392e+003,3.890942e-001
3.016249e+003,3.940067e-001
3.020106e+003,3.982371e-001
3.023963e+003,4.039948e-001
3.027821e+003,4.089847e-001
3.031677e+003,4.110306e-001
3.035535e+003,4.104792e-001
3.039392e+003,4.126417e-001
3.043249e+003,4.168411e-001
3.047106e+003,4.218523e-001
3.050963e+003,4.268602e-001
3.054820e+003,4.330013e-001
3.058677e+003,4.333136e-001
3.062534e+003,4.313965e-001
3.066391e+003,4.346765e-001
3.070249e+003,4.403289e-001
3.074106e+003,4.417427e-001
3.077963e+003,4.438951e-001
3.081820e+003,4.488657e-001
3.085677e+003,4.494866e-001
3.089534e+003,4.508026e-001
3.093391e+003,4.509888e-001
3.097248e+003,4.553080e-001
3.101105e+003,4.608967e-001
3.104962e+003,4.610136e-001
3.108820e+003,4.591515e-001
3.112677e+003,4.656308e-001
3.116534e+003,4.712452e-001
3.120391e+003,4.685977e-001
3.124248e+003,4.683147e-001
3.128105e+003,4.735466e-001
3.131962e+003,4.800180e-001
3.135819e+003,4.850468e-001
3.139676e+003,4.854808e-001
3.143533e+003,4.868093e-001
3.147390e+003,4.885065e-001
3.151248e+003,4.917353e-001
3.155105e+003,4.949983e-001
3.158962e+003,4.965674e-001
3.162819e+003,5.035397e-001
3.166676e+003,5.029323e-001
3.170533e+003,5.020038e-001
3.174390e+003,5.056614e-001
3.178247e+003,5.150288e-001
3.182104e+003,5.214729e-001
3.185961e+003,5.244144e-001
3.189819e+003,5.267928e-001
3.193676e+003,5.270035e-001
3.197533e+003,5.293972e-001
3.201390e+003,5.304613e-001
3.205247e+003,5.284548e-001
3.209104e+003,5.313135e-001
3.212961e+003,5.417730e-001
3.216818e+003,5.486060e-001
3.220675e+003,5.481982e-001
3.224532e+003,5.472354e-001
3.228389e+003,5.469185e-001
3.232247e+003,5.466171e-001
3.236104e+003,5.475976e-001
3.239961e+003,5.491157e-001
3.243818e+003,5.532495e-001
3.247675e+003,5.549026e-001
3.251532e+003,5.557821e-001
3.255389e+003,5.598859e-001
3.259246e+003,5.570740e-001
3.263103e+003,5.581253e-001
3.266960e+003,5.647810e-001
3.270818e+003,5.690671e-001
3.274675e+003,5.655864e-001
3.278532e+003,5.709965e-001
3.282389e+003,5.700164e-001
3.286246e+003,5.694132e-001
3.290103e+003,5.753797e-001
3.293960e+003,5.769367e-001
3.297817e+003,5.785668e-001
3.301674e+003,5.822647e-001
3.305531e+003,5.838135e-001
3.309388e+003,5.877977e-001
3.313246e+003,5.924383e-001
3.317103e+003,5.922595e-001
3.320960e+003,6.005627e-001
3.324817e+003,6.058729e-001
3.328674e+003,6.076446e-001
3.332531e+003,6.063069e-001
3.336388e+003,6.048810e-001
3.340245e+003,6.098395e-001
3.344102e+003,6.144524e-001
3.347959e+003,6.221095e-001
3.351817e+003,6.298823e-001
3.355674e+003,6.297188e-001
3.359531e+003,6.251965e-001
3.363388e+003,6.246234e-001
3.367245e+003,6.263606e-001
3.371102e+003,6.343884e-001
3.374959e+003,6.398477e-001
3.378816e+003,6.327817e-001
3.382673e+003,6.221070e-001
3.386530e+003,6.233117e-001
3.390387e+003,6.326421e-001
3.394245e+003,6.428013e-001
3.398102e+003,6.473306e-001
3.401959e+003,6.445310e-001
3.405816e+003,6.419542e-001
3.409673e+003,6.399883e-001
3.413530e+003,6.484125e-001
3.417387e+003,6.516522e-001
3.421244e+003,6.554610e-001
3.425101e+003,6.538334e-001
3.428958e+003,6.444531e-001
3.432815e+003,6.461251e-001
3.436673e+003,6.548272e-001
3.440530e+003,6.533312e-001
3.444387e+003,6.580034e-001
3.448244e+003,6.627913e-001
3.452101e+003,6.562738e-001
3.455958e+003,6.494089e-001
3.459815e+003,6.564459e-001
3.463672e+003,6.730863e-001
3.467529e+003,6.734592e-001
3.471386e+003,6.667538e-001
3.475244e+003,6.705155e-001
3.479101e+003,6.767358e-001
3.482958e+003,6.738841e-001
3.486815e+003,6.719878e-001
3.490672e+003,6.716394e-001
3.494529e+003,6.755673e-001
3.498386e+003,6.771556e-001
3.502243e+003,6.773104e-001
3.506100e+003,6.826279e-001
3.509958e+003,6.765943e-001
3.513814e+003,6.723338e-001
3.517672e+003,6.727384e-001
3.521529e+003,6.693370e-001
3.525386e+003,6.657757e-001
3.529243e+003,6.726371e-001
3.533100e+003,6.860763e-001
3.536957e+003,6.771531e-001
3.540814e+003,6.664554e-001
3.544671e+003,6.669438e-001
3.548528e+003,6.675279e-001
3.552385e+003,6.634544e-001
3.556243e+003,6.592273e-001
3.560100e+003,6.553996e-001
3.563957e+003,6.597167e-001
3.567814e+003,6.612374e-001
3.571671e+003,6.540778e-001
3.575528e+003,6.526929e-001
3.579385e+003,6.397327e-001
3.583242e+003,6.313628e-001
3.587099e+003,6.340653e-001
3.590957e+003,6.262169e-001
3.594813e+003,6.099367e-001
3.598671e+003,5.955259e-001
3.602528e+003,5.806686e-001
3.606385e+003,5.793900e-001
3.610242e+003,5.728993e-001
3.614099e+003,5.491434e-001
3.617956e+003,5.322266e-001
3.621813e+003,5.184357e-001
3.625670e+003,4.974578e-001
3.629527e+003,4.715589e-001
3.633385e+003,4.486785e-001
3.637242e+003,4.310869e-001
3.641099e+003,4.130337e-001
3.644956e+003,3.916724e-001
3.648813e+003,3.713589e-001
3.652670e+003,3.519632e-001
3.656527e+003,3.296513e-001
3.660384e+003,3.091569e-001
3.664241e+003,2.943708e-001
3.668098e+003,2.808498e-001
3.671956e+003,2.709745e-001
3.675813e+003,2.560441e-001
3.679670e+003,2.435232e-001
3.683527e+003,2.353821e-001
3.687384e+003,2.285316e-001
3.691241e+003,2.215211e-001
3.695098e+003,2.151933e-001
3.698955e+003,2.066196e-001
3.702812e+003,1.995614e-001
3.706669e+003,1.956761e-001
3.710526e+003,1.919953e-001
3.714384e+003,1.883097e-001
3.718241e+003,1.835368e-001
3.722098e+003,1.797021e-001
3.725955e+003,1.744876e-001
3.729812e+003,1.756169e-001
3.733669e+003,1.776358e-001
3.737526e+003,1.770238e-001
3.741383e+003,1.736237e-001
3.745240e+003,1.709386e-001
3.749097e+003,1.715153e-001
3.752955e+003,1.734483e-001
3.756812e+003,1.746141e-001
3.760669e+003,1.776630e-001
3.764526e+003,1.776348e-001
3.768383e+003,1.772685e-001
3.772240e+003,1.757101e-001
3.776097e+003,1.746013e-001
3.779954e+003,1.757992e-001
3.783811e+003,1.758361e-001
3.787668e+003,1.756698e-001
3.791525e+003,1.748374e-001
3.795383e+003,1.738521e-001
3.799240e+003,1.756102e-001
3.803097e+003,1.748319e-001
3.806954e+003,1.706079e-001
3.810811e+003,1.696727e-001
3.814668e+003,1.697092e-001
3.818525e+003,1.694550e-001
3.822382e+003,1.687645e-001
3.826239e+003,1.666145e-001
3.830096e+003,1.643966e-001
3.833954e+003,1.621406e-001
3.837811e+003,1.592075e-001
3.841668e+003,1.576646e-001
3.845525e+003,1.601080e-001
3.849382e+003,1.588355e-001
3.853239e+003,1.562321e-001
3.857096e+003,1.568223e-001
3.860953e+003,1.604449e-001
3.864810e+003,1.613320e-001
3.868667e+003,1.638905e-001
3.872524e+003,1.653936e-001
3.876382e+003,1.686004e-001
3.880239e+003,1.693276e-001
3.884096e+003,1.670434e-001
3.887953e+003,1.690892e-001
3.891810e+003,1.719246e-001
3.895667e+003,1.693010e-001
3.899524e+003,1.683135e-001
3.903381e+003,1.734945e-001
3.907238e+003,1.756062e-001
3.911095e+003,1.724438e-001
3.914953e+003,1.683197e-001
3.918810e+003,1.707452e-001
3.922667e+003,1.721961e-001
3.926524e+003,1.712952e-001
3.930381e+003,1.700283e-001
3.934238e+003,1.706461e-001
3.938095e+003,1.688878e-001
3.941952e+003,1.650220e-001
3.945809e+003,1.656904e-001
3.949667e+003,1.652445e-001
3.953523e+003,1.641882e-001
3.957381e+003,1.630058e-001
3.961238e+003,1.560714e-001
3.965095e+003,1.536462e-001
3.968952e+003,1.563470e-001
3.972809e+003,1.543211e-001
3.976666e+003,1.515106e-001
3.980523e+003,1.518971e-001
3.984380e+003,1.542335e-001
3.988237e+003,1.574067e-001
3.992094e+003,1.589894e-001
3.995952e+003,1.599672e-001
3.999809e+003,1.609106e-001
4.003666e+003,1.620286e-001
4.007523e+003,1.649389e-001
4.011380e+003,1.704654e-001
4.015237e+003,1.680147e-001
4.019094e+003,1.656805e-001
4.022951e+003,1.678474e-001
4.026808e+003,1.708083e-001
4.030666e+003,1.726124e-001
4.034522e+003,1.744312e-001
4.038380e+003,1.730388e-001
4.042237e+003,1.711670e-001
4.046094e+003,1.678502e-001
4.049951e+003,1.656915e-001
4.053808e+003,1.672951e-001
4.057665e+003,1.711909e-001
4.061522e+003,1.681170e-001
4.065379e+003,1.655812e-001
4.069236e+003,1.648124e-001
4.073094e+003,1.635603e-001
4.076951e+003,1.639956e-001
4.080808e+003,1.605631e-001
4.084665e+003,1.565248e-001
4.088522e+003,1.548593e-001
4.092379e+003,1.506618e-001
4.096236e+003,1.518686e-001
4.100093e+003,1.593587e-001
4.103950e+003,1.618434e-001
4.107808e+003,1.579627e-001
4.111665e+003,1.494965e-001
4.115521e+003,1.454594e-001
4.119379e+003,1.516040e-001
4.123236e+003,1.553592e-001
4.127093e+003,1.533336e-001
4.130950e+003,1.519711e-001
4.134807e+003,1.544241e-001
4.138664e+003,1.579939e-001
4.142521e+003,1.616325e-001
4.146378e+003,1.588617e-001
4.150235e+003,1.559802e-001
4.154093e+003,1.573902e-001
4.157950e+003,1.580802e-001
4.161807e+003,1.600718e-001
4.165664e+003,1.638878e-001
4.169521e+003,1.652587e-001
4.173378e+003,1.666312e-001
4.177235e+003,1.707237e-001
4.181092e+003,1.736790e-001
4.184949e+003,1.742380e-001
4.188807e+003,1.726225e-001
4.192664e+003,1.684211e-001
4.196521e+003,1.639016e-001
4.200378e+003,1.630936e-001
4.204235e+003,1.640819e-001
4.208092e+003,1.640046e-001
4.211949e+003,1.616683e-001
4.215806e+003,1.631235e-001
4.219663e+003,1.655747e-001
4.223521e+003,1.608395e-001
4.227377e+003,1.529645e-001
4.231234e+003,1.536671e-001
4.235092e+003,1.580754e-001
4.238949e+003,1.576041e-001
4.242806e+003,1.479041e-001
4.246663e+003,1.463692e-001
4.250520e+003,1.535225e-001
4.254377e+003,1.576765e-001
4.258234e+003,1.556707e-001
4.262091e+003,1.566963e-001
4.265948e+003,1.573742e-001
4.269806e+003,1.544823e-001
4.273663e+003,1.550715e-001
4.277520e+003,1.552209e-001
4.281377e+003,1.555259e-001
4.285234e+003,1.600028e-001
4.289091e+003,1.626435e-001
4.292948e+003,1.606320e-001
4.296805e+003,1.635451e-001
4.300662e+003,1.689465e-001
4.304520e+003,1.714968e-001
4.308376e+003,1.688208e-001
4.312233e+003,1.688414e-001
4.316091e+003,1.706051e-001
4.319948e+003,1.672240e-001
4.323805e+003,1.657544e-001
4.327662e+003,1.681927e-001
4.331519e+003,1.709556e-001
4.335376e+003,1.669052e-001
4.339233e+003,1.625120e-001
4.343090e+003,1.621234e-001
4.346947e+003,1.609960e-001
4.350805e+003,1.596806e-001
4.354662e+003,1.596458e-001
4.358519e+003,1.609770e-001
4.362376e+003,1.575120e-001
4.366233e+003,1.551671e-001
4.370090e+003,1.586224e-001
4.373947e+003,1.571867e-001
4.377804e+003,1.521070e-001
4.381661e+003,1.533127e-001
4.385519e+003,1.546447e-001
4.389375e+003,1.561511e-001
4.393232e+003,1.523919e-001
4.397090e+003,1.507524e-001
4.400947e+003,1.565994e-001
4.404804e+003,1.590065e-001
4.408661e+003,1.613272e-001
4.412518e+003,1.627895e-001
4.416375e+003,1.562566e-001
4.420232e+003,1.546592e-001
4.424089e+003,1.656596e-001
4.427946e+003,1.706083e-001
4.431804e+003,1.696062e-001
4.435661e+003,1.685400e-001
4.439518e+003,1.588632e-001
4.443375e+003,1.595522e-001
4.447232e+003,1.755761e-001
4.451089e+003,1.817434e-001
4.454946e+003,1.764145e-001
4.458803e+003,1.669783e-001
4.462660e+003,1.687157e-001
4.466518e+003,1.748168e-001
4.470375e+003,1.730292e-001
4.474231e+003,1.708892e-001
4.478089e+003,1.677640e-001
4.481946e+003,1.700603e-001
4.485803e+003,1.726904e-001
4.489660e+003,1.668258e-001
4.493517e+003,1.638460e-001
4.497375e+003,1.629954e-001
4.501231e+003,1.595591e-001
4.505088e+003,1.575615e-001
4.508946e+003,1.573913e-001
4.512803e+003,1.578790e-001
4.516660e+003,1.558904e-001
4.520517e+003,1.507351e-001
4.524374e+003,1.507614e-001
4.528231e+003,1.549734e-001
4.532088e+003,1.622868e-001
4.535945e+003,1.665510e-001
4.539802e+003,1.667874e-001
4.543660e+003,1.666690e-001
4.547517e+003,1.671380e-001
4.551374e+003,1.647959e-001
4.555231e+003,1.673947e-001
4.559088e+003,1.731084e-001
4.562945e+003,1.698859e-001
4.566802e+003,1.674816e-001
4.570659e+003,1.707560e-001
4.574516e+003,1.718544e-001
4.578374e+003,1.676175e-001
4.582230e+003,1.622898e-001
4.586087e+003,1.638456e-001
4.589945e+003,1.675453e-001
4.593802e+003,1.690827e-001
4.597659e+003,1.752963e-001
4.601516e+003,1.753643e-001
4.605373e+003,1.683572e-001
4.609230e+003,1.634776e-001
4.613087e+003,1.678275e-001
4.616944e+003,1.680660e-001
4.620801e+003,1.681123e-001
4.624659e+003,1.674557e-001
4.628516e+003,1.634635e-001
4.632373e+003,1.622260e-001
4.636230e+003,1.632090e-001
4.640087e+003,1.638137e-001
4.643944e+003,1.627260e-001
4.647801e+003,1.582396e-001
4.651658e+003,1.574480e-001
4.655515e+003,1.551406e-001
4.659373e+003,1.534736e-001
4.663229e+003,1.564190e-001
4.667086e+003,1.543221e-001
4.670944e+003,1.516197e-001
4.674801e+003,1.541155e-001
4.678658e+003,1.571244e-001
4.682515e+003,1.568679e-001
4.686372e+003,1.574059e-001
4.690229e+003,1.594100e-001
4.694086e+003,1.640745e-001
4.697943e+003,1.688402e-001
4.701800e+003,1.726419e-001
4.705658e+003,1.704283e-001
4.709515e+003,1.702264e-001
4.713372e+003,1.702901e-001
4.717229e+003,1.655755e-001
4.721086e+003,1.671729e-001
4.724943e+003,1.708516e-001
4.728800e+003,1.749853e-001
4.732657e+003,1.727741e-001
4.736514e+003,1.664693e-001
4.740372e+003,1.658149e-001
4.744229e+003,1.684767e-001
4.748085e+003,1.722551e-001
4.751943e+003,1.706784e-001
4.755800e+003,1.677243e-001
4.759657e+003,1.712302e-001
4.763514e+003,1.692656e-001
4.767371e+003,1.655106e-001
4.771228e+003,1.612273e-001
4.775085e+003,1.588831e-001
4.778942e+003,1.584919e-001
4.782799e+003,1.574102e-001
4.786657e+003,1.578970e-001
4.790514e+003,1.582382e-001
4.794371e+003,1.635863e-001
4.798228e+003,1.658454e-001
4.802085e+003,1.676268e-001
4.805942e+003,1.679985e-001
4.809799e+003,1.644031e-001
4.813656e+003,1.685393e-001
4.817513e+003,1.708943e-001
4.821371e+003,1.654379e-001
4.825228e+003,1.607513e-001
4.829084e+003,1.668094e-001
4.832942e+003,1.657781e-001
4.836799e+003,1.674568e-001
4.840656e+003,1.677616e-001
4.844513e+003,1.661746e-001
4.848370e+003,1.648109e-001
4.852227e+003,1.695955e-001
4.856084e+003,1.720228e-001
4.859941e+003,1.697348e-001
4.863798e+003,1.703023e-001
4.867656e+003,1.732693e-001
4.871513e+003,1.728187e-001
4.875370e+003,1.730434e-001
4.879227e+003,1.739973e-001
4.883084e+003,1.714520e-001
4.886941e+003,1.756984e-001
4.890798e+003,1.738101e-001
4.894655e+003,1.693805e-001
4.898512e+003,1.666280e-001
4.902370e+003,1.618808e-001
4.906227e+003,1.695030e-001
4.910083e+003,1.758834e-001
4.913941e+003,1.722194e-001
4.917798e+003,1.729202e-001
4.921655e+003,1.660938e-001
4.925512e+003,1.614260e-001
4.929369e+003,1.624673e-001
4.933226e+003,1.598233e-001
4.937083e+003,1.581173e-001
4.940940e+003,1.640523e-001
4.944797e+003,1.687244e-001
4.948655e+003,1.730958e-001
4.952512e+003,1.675966e-001
4.956369e+003,1.692071e-001
4.960226e+003,1.757420e-001
4.964083e+003,1.692781e-001
4.967940e+003,1.636553e-001
4.971797e+003,1.652469e-001
4.975654e+003,1.705852e-001
4.979511e+003,1.773683e-001
4.983369e+003,1.840667e-001
4.987226e+003,1.849701e-001
4.991083e+003,1.790450e-001
4.994940e+003,1.710134e-001
4.998797e+003,1.728226e-001
5.002654e+003,1.854217e-001
5.006511e+003,1.818866e-001
5.010368e+003,1.761658e-001
5.014225e+003,1.742489e-001
5.018083e+003,1.755263e-001
5.021939e+003,1.729034e-001
5.025796e+003,1.714845e-001
5.029654e+003,1.713008e-001
5.033511e+003,1.688972e-001
5.037368e+003,1.695545e-001
5.041225e+003,1.645876e-001
5.045082e+003,1.652914e-001
5.048939e+003,1.652168e-001
5.052796e+003,1.619625e-001
5.056653e+003,1.702094e-001
5.060510e+003,1.695341e-001
5.064368e+003,1.587613e-001
5.068225e+003,1.552829e-001
5.072082e+003,1.558526e-001
5.075939e+003,1.583290e-001
5.079796e+003,1.616993e-001
5.083653e+003,1.687280e-001
5.087510e+003,1.759235e-001
5.091367e+003,1.747724e-001
5.095224e+003,1.704007e-001
5.099082e+003,1.698009e-001
5.102938e+003,1.729700e-001
5.106795e+003,1.741943e-001
5.110653e+003,1.670217e-001
5.114510e+003,1.707178e-001
5.118367e+003,1.713791e-001
5.122224e+003,1.774156e-001
5.126081e+003,1.821326e-001
5.129938e+003,1.841899e-001
5.133795e+003,1.863637e-001
5.137652e+003,1.788007e-001
5.141509e+003,1.785578e-001
5.145367e+003,1.901819e-001
5.149224e+003,1.917042e-001
5.153081e+003,1.841625e-001
5.156938e+003,1.807896e-001
5.160795e+003,1.841339e-001
5.164652e+003,1.815341e-001
5.168509e+003,1.833892e-001
5.172366e+003,1.819196e-001
5.176223e+003,1.870329e-001
5.180081e+003,1.799552e-001
5.183938e+003,1.741107e-001
5.187794e+003,1.763669e-001
5.191652e+003,1.755092e-001
5.195509e+003,1.674748e-001
5.199366e+003,1.631126e-001
5.203223e+003,1.689224e-001
5.207080e+003,1.702297e-001
5.210937e+003,1.632771e-001
5.214794e+003,1.641948e-001
5.218651e+003,1.730729e-001
5.222508e+003,1.769846e-001
5.226366e+003,1.688031e-001
5.230223e+003,1.669129e-001
5.234080e+003,1.704377e-001
5.237937e+003,1.684315e-001
5.241794e+003,1.700866e-001
5.245651e+003,1.698475e-001
5.249508e+003,1.650576e-001
5.253365e+003,1.682441e-001
5.257222e+003,1.749797e-001
5.261080e+003,1.863818e-001
5.264937e+003,1.875331e-001
5.268793e+003,1.812283e-001
5.272651e+003,1.825483e-001
5.276508e+003,1.847777e-001
5.280365e+003,1.764231e-001
5.284222e+003,1.686185e-001
5.288079e+003,1.698636e-001
5.291936e+003,1.799160e-001
5.295793e+003,1.806265e-001
5.299650e+003,1.790226e-001
5.303507e+003,1.881949e-001
5.307365e+003,1.874073e-001
5.311222e+003,1.807114e-001
5.315079e+003,1.786159e-001
5.318936e+003,1.764108e-001
5.322793e+003,1.671921e-001
5.326650e+003,1.619227e-001
5.330507e+003,1.640090e-001
5.334364e+003,1.666797e-001
5.338221e+003,1.740006e-001
5.342079e+003,1.789889e-001
5.345936e+003,1.727641e-001
5.349792e+003,1.634999e-001
5.353650e+003,1.643147e-001
5.357507e+003,1.725563e-001
5.361364e+003,1.779124e-001
5.365221e+003,1.800266e-001
5.369078e+003,1.783248e-001
5.372935e+003,1.808760e-001
5.376792e+003,1.830050e-001
5.380649e+003,1.748346e-001
5.384506e+003,1.712749e-001
5.388364e+003,1.764451e-001
5.392221e+003,1.784416e-001
5.396078e+003,1.738882e-001
5.399935e+003,1.636460e-001
5.403792e+003,1.679313e-001
5.407649e+003,1.737999e-001
5.411506e+003,1.849782e-001
5.415363e+003,1.865562e-001
5.419220e+003,1.781455e-001
5.423078e+003,1.775957e-001
5.426935e+003,1.856191e-001
5.430792e+003,1.795677e-001
5.434649e+003,1.668661e-001
5.438506e+003,1.667405e-001
5.442363e+003,1.681628e-001
5.446220e+003,1.716146e-001
5.450077e+003,1.730665e-001
5.453934e+003,1.645142e-001
5.457792e+003,1.717060e-001
5.461648e+003,1.772559e-001
5.465505e+003,1.748790e-001
5.469363e+003,1.732495e-001
5.473220e+003,1.785849e-001
5.477077e+003,1.800416e-001
5.480934e+003,1.729745e-001
5.484791e+003,1.757632e-001
5.488648e+003,1.704809e-001
5.492505e+003,1.612941e-001
5.496362e+003,1.645592e-001
5.500219e+003,1.641097e-001
5.504077e+003,1.640350e-001
5.507934e+003,1.781252e-001
5.511791e+003,1.909193e-001
5.515648e+003,1.807119e-001
5.519505e+003,1.769533e-001
5.523362e+003,1.779057e-001
5.527219e+003,1.804743e-001
5.531076e+003,1.824332e-001
5.534933e+003,1.850277e-001
5.538791e+003,1.786518e-001
5.542647e+003,1.748109e-001
5.546504e+003,1.788477e-001
5.550362e+003,1.809708e-001
5.554219e+003,1.730020e-001
5.558076e+003,1.651648e-001
5.561933e+003,1.711440e-001
5.565790e+003,1.782811e-001
5.569647e+003,1.704312e-001
5.573504e+003,1.651236e-001
5.577361e+003,1.682980e-001
5.581218e+003,1.765185e-001
5.585076e+003,1.723358e-001
5.588933e+003,1.635782e-001
5.592790e+003,1.718331e-001
5.596647e+003,1.781906e-001
5.600504e+003,1.701920e-001
5.604361e+003,1.667489e-001
5.608218e+003,1.696794e-001
5.612075e+003,1.708155e-001
5.615932e+003,1.677032e-001
5.619790e+003,1.628863e-001
5.623646e+003,1.620758e-001
5.627503e+003,1.666925e-001
5.631361e+003,1.707931e-001
5.635218e+003,1.729575e-001
5.639075e+003,1.683321e-001
5.642932e+003,1.601225e-001
5.646789e+003,1.642209e-001
5.650646e+003,1.799568e-001
5.654503e+003,1.785865e-001
5.658360e+003,1.722911e-001
5.662217e+003,1.797123e-001
5.666075e+003,1.827997e-001
5.669932e+003,1.708595e-001
5.673789e+003,1.765582e-001
5.677646e+003,1.872463e-001
5.681503e+003,1.839506e-001
5.685360e+003,1.878581e-001
5.689217e+003,1.833101e-001
5.693074e+003,1.697629e-001
5.696931e+003,1.750409e-001
5.700789e+003,1.864020e-001
5.704646e+003,1.827452e-001
5.708502e+003,1.796366e-001
5.712360e+003,1.731980e-001
5.716217e+003,1.773555e-001
5.720074e+003,1.757287e-001
5.723931e+003,1.693497e-001
5.727788e+003,1.693803e-001
5.731645e+003,1.740225e-001
5.735502e+003,1.761313e-001
5.739359e+003,1.684221e-001
5.743216e+003,1.629738e-001
5.747074e+003,1.558913e-001
5.750931e+003,1.698732e-001
5.754788e+003,1.833416e-001
5.758645e+003,1.762835e-001
5.762502e+003,1.684629e-001
5.766359e+003,1.616800e-001
5.770216e+003,1.596431e-001
5.774073e+003,1.703403e-001
5.777930e+003,1.736757e-001
5.781788e+003,1.775106e-001
5.785645e+003,1.849668e-001
5.789501e+003,1.806120e-001
5.793359e+003,1.894162e-001
5.797216e+003,1.953198e-001
5.801073e+003,1.837453e-001
5.804930e+003,1.738237e-001
5.808787e+003,1.658612e-001
5.812644e+003,1.714699e-001
5.816501e+003,1.815747e-001
5.820358e+003,1.810109e-001
5.824215e+003,1.720672e-001
5.828073e+003,1.802302e-001
5.831930e+003,1.887830e-001
5.835787e+003,1.705852e-001
5.839644e+003,1.628495e-001
5.843501e+003,1.675743e-001
5.847358e+003,1.699547e-001
5.851215e+003,1.728397e-001
5.855072e+003,1.766947e-001
5.858929e+003,1.920566e-001
5.862787e+003,1.959375e-001
5.866644e+003,1.756472e-001
5.870500e+003,1.710944e-001
5.874358e+003,1.776541e-001
5.878215e+003,1.795533e-001
5.882072e+003,1.704761e-001
5.885929e+003,1.621582e-001
5.889786e+003,1.696541e-001
5.893643e+003,1.792183e-001
5.897500e+003,1.807687e-001
5.901357e+003,1.833767e-001
5.905214e+003,1.805866e-001
5.909072e+003,1.720118e-001
5.912929e+003,1.744829e-001
5.916786e+003,1.694412e-001
5.920643e+003,1.703320e-001
5.924500e+003,1.743781e-001
5.928357e+003,1.644548e-001
5.932214e+003,1.624088e-001
5.936071e+003,1.781967e-001
5.939928e+003,1.912906e-001
5.943786e+003,1.863992e-001
5.947643e+003,1.756903e-001
5.951500e+003,1.783540e-001
5.955357e+003,1.775512e-001
5.959214e+003,1.696174e-001
5.963071e+003,1.763497e-001
5.966928e+003,1.779196e-001
5.970785e+003,1.882203e-001
5.974642e+003,1.973064e-001
5.978500e+003,1.921710e-001
5.982356e+003,1.820104e-001
5.986213e+003,1.778627e-001
5.990071e+003,1.827091e-001
5.993928e+003,1.882064e-001
5.997785e+003,1.755296e-001
6.001642e+003,1.735125e-001
6.005499e+003,1.722848e-001
6.009356e+003,1.663186e-001
6.013213e+003,1.617924e-001
6.017070e+003,1.610494e-001
6.020927e+003,1.687428e-001
6.024785e+003,1.818025e-001
6.028642e+003,1.810933e-001
6.032499e+003,1.803040e-001
6.036356e+003,1.886497e-001
6.040213e+003,1.833182e-001
6.044070e+003,1.723861e-001
6.047927e+003,1.665510e-001
6.051784e+003,1.710001e-001
6.055641e+003,1.700830e-001
6.059499e+003,1.728421e-001
6.063355e+003,1.858155e-001
6.067212e+003,1.726432e-001
6.071070e+003,1.575776e-001
6.074927e+003,1.729526e-001
6.078784e+003,1.856585e-001
6.082641e+003,1.843446e-001
6.086498e+003,1.865260e-001
6.090355e+003,1.901854e-001
6.094212e+003,1.901996e-001
6.098069e+003,1.811348e-001
6.101926e+003,1.697316e-001
6.105784e+003,1.739462e-001
6.109641e+003,1.741973e-001
6.113498e+003,1.758723e-001
6.117355e+003,1.689013e-001
6.121212e+003,1.581209e-001
6.125069e+003,1.732867e-001
6.128926e+003,1.836434e-001
6.132783e+003,1.748396e-001
6.136640e+003,1.811623e-001
6.140498e+003,1.791153e-001
6.144354e+003,1.719876e-001
6.148211e+003,1.806388e-001
6.152069e+003,1.775773e-001
6.155926e+003,1.696651e-001
6.159783e+003,1.649223e-001
6.163640e+003,1.774500e-001
6.167497e+003,1.885639e-001
6.171354e+003,1.897446e-001
6.175211e+003,1.801778e-001
6.179068e+003,1.755946e-001
6.182925e+003,1.852152e-001
6.186783e+003,1.833161e-001
6.190640e+003,1.772594e-001
6.194497e+003,1.830373e-001
6.198354e+003,1.731763e-001
6.202211e+003,1.683062e-001
6.206068e+003,1.732418e-001
6.209925e+003,1.795038e-001
6.213782e+003,1.699159e-001
6.217639e+003,1.655158e-001
6.221497e+003,1.672998e-001
6.225354e+003,1.629442e-001
6.229210e+003,1.676158e-001
6.233068e+003,1.756632e-001
6.236925e+003,1.699832e-001
6.240782e+003,1.639595e-001
6.244639e+003,1.684208e-001
6.248496e+003,1.717339e-001
6.252353e+003,1.776923e-001
6.256210e+003,1.708152e-001
6.260067e+003,1.627953e-001
6.263924e+003,1.635285e-001
6.267782e+003,1.762137e-001
6.271639e+003,1.740291e-001
6.275496e+003,1.727963e-001
6.279353e+003,1.815553e-001
6.283210e+003,1.828222e-001
6.287067e+003,1.615891e-001
6.290924e+003,1.601880e-001
6.294781e+003,1.768511e-001
6.298638e+003,1.806991e-001
6.302496e+003,1.735957e-001
6.306353e+003,1.780443e-001
6.310209e+003,1.699587e-001
6.314067e+003,1.608853e-001
6.317924e+003,1.773856e-001
6.321781e+003,1.888131e-001
6.325638e+003,1.844490e-001
6.329495e+003,1.692949e-001
6.333352e+003,1.667778e-001
6.337209e+003,1.819197e-001
6.341066e+003,1.804962e-001
6.344923e+003,1.776942e-001
6.348780e+003,1.718741e-001
6.352638e+003,1.657294e-001
6.356495e+003,1.738403e-001
6.360352e+003,1.678610e-001
6.364209e+003,1.570449e-001
6.368066e+003,1.671125e-001
6.371923e+003,1.719841e-001
6.375780e+003,1.698367e-001
6.379637e+003,1.716033e-001
6.383494e+003,1.804321e-001
6.387352e+003,1.803850e-001
6.391208e+003,1.761058e-001
6.395065e+003,1.928031e-001
6.398923e+003,1.901623e-001
6.402780e+003,1.901612e-001
6.406637e+003,2.021186e-001
6.410494e+003,1.830099e-001
6.414351e+003,1.729445e-001
6.418208e+003,1.554374e-001
6.422065e+003,1.488491e-001
6.425922e+003,1.782153e-001
6.429779e+003,1.922166e-001
6.433637e+003,1.848120e-001
6.437494e+003,1.891748e-001
6.441351e+003,1.860826e-001
6.445208e+003,1.738602e-001
6.449065e+003,1.636820e-001
6.452922e+003,1.731115e-001
6.456779e+003,1.844376e-001
6.460636e+003,1.758002e-001
6.464493e+003,1.577863e-001
6.468351e+003,1.689901e-001
6.472208e+003,1.748915e-001
6.476064e+003,1.642482e-001
6.479922e+003,1.803538e-001
6.483779e+003,1.943813e-001
6.487636e+003,2.008309e-001
6.491493e+003,1.855949e-001
6.495350e+003,1.710372e-001
6.499207e+003,1.787703e-001
6.503064e+003,1.933292e-001
6.506921e+003,2.093864e-001
6.510778e+003,2.020052e-001
6.514636e+003,1.955781e-001
6.518493e+003,1.967995e-001
6.522350e+003,2.116792e-001
6.526207e+003,2.109881e-001
6.530064e+003,1.848484e-001
6.533921e+003,1.834512e-001
6.537778e+003,1.800695e-001
6.541635e+003,1.731747e-001
6.545492e+003,1.487067e-001
6.549350e+003,1.341818e-001
6.553207e+003,1.424250e-001
6.557063e+003,1.676799e-001
6.560921e+003,1.597519e-001
6.564778e+003,1.540855e-001
6.568635e+003,1.834178e-001
6.572492e+003,2.083114e-001
6.576349e+003,1.987036e-001
6.580206e+003,1.699648e-001
6.584063e+003,1.783948e-001
6.587920e+003,1.792829e-001
6.591777e+003,1.707394e-001
6.595635e+003,1.842764e-001
6.599492e+003,1.796466e-001
6.603349e+003,1.683649e-001
6.607206e+003,1.710367e-001
6.611063e+003,1.681842e-001
6.614920e+003,1.641048e-001
6.618777e+003,1.717220e-001
6.622634e+003,1.800510e-001
6.626491e+003,1.724758e-001
6.630349e+003,1.753812e-001
6.634206e+003,1.776300e-001
6.638063e+003,1.839458e-001
6.641920e+003,1.896404e-001
6.645777e+003,1.808498e-001
6.649634e+003,1.837457e-001
6.653491e+003,1.938312e-001
6.657348e+003,1.962691e-001
6.661205e+003,1.941783e-001
6.665063e+003,2.018341e-001
6.668919e+003,1.973996e-001
6.672776e+003,1.740271e-001
6.676634e+003,1.758550e-001
6.680491e+003,1.886887e-001
6.684348e+003,1.830685e-001
6.688205e+003,1.808715e-001
6.692062e+003,1.779088e-001
6.695919e+003,1.920864e-001
6.699776e+003,1.840494e-001
6.703633e+003,1.567411e-001
6.707490e+003,1.465054e-001
6.711348e+003,1.557162e-001
6.715205e+003,1.692654e-001
6.719062e+003,1.618364e-001
6.722919e+003,1.921655e-001
6.726776e+003,2.075970e-001
6.730633e+003,1.974763e-001
6.734490e+003,1.888419e-001
6.738347e+003,1.752734e-001
6.742204e+003,1.702144e-001
6.746062e+003,1.725484e-001
6.749918e+003,1.666400e-001
6.753775e+003,1.643043e-001
6.757633e+003,1.662131e-001
6.761490e+003,1.609648e-001
6.765347e+003,1.539870e-001
6.769204e+003,1.678632e-001
6.773061e+003,1.893075e-001
6.776918e+003,1.954027e-001
6.780775e+003,1.981334e-001
6.784632e+003,2.002772e-001
6.788489e+003,1.945359e-001
6.792347e+003,1.752734e-001
6.796204e+003,1.680623e-001
6.800061e+003,1.720919e-001
6.803918e+003,1.819371e-001
6.807775e+003,1.969213e-001
6.811632e+003,1.910287e-001
6.815489e+003,1.914139e-001
6.819346e+003,1.850969e-001
6.823203e+003,1.655995e-001
6.827061e+003,1.590707e-001
6.830917e+003,1.737584e-001
6.834774e+003,1.742694e-001
6.838632e+003,1.671374e-001
6.842489e+003,1.635160e-001
6.846346e+003,1.799871e-001
6.850203e+003,2.009586e-001
6.854060e+003,1.869348e-001
6.857917e+003,1.756365e-001
6.861774e+003,1.689246e-001
6.865631e+003,1.849541e-001
6.869488e+003,1.940765e-001
6.873346e+003,1.631869e-001
6.877203e+003,1.573060e-001
6.881060e+003,1.686410e-001
6.884917e+003,1.636530e-001
6.888774e+003,1.567738e-001
6.892631e+003,1.647947e-001
6.896488e+003,1.961706e-001
6.900345e+003,1.998713e-001
6.904202e+003,1.765786e-001
6.908060e+003,1.744439e-001
6.911917e+003,1.836274e-001
6.915773e+003,1.935771e-001
6.919631e+003,2.028458e-001
6.923488e+003,1.916538e-001
6.927345e+003,1.978567e-001
6.931202e+003,1.965457e-001
6.935059e+003,1.753727e-001
6.938916e+003,1.767402e-001
6.942773e+003,1.693899e-001
6.946630e+003,1.890685e-001
6.950487e+003,2.002395e-001
6.954345e+003,1.788165e-001
6.958202e+003,1.607335e-001
6.962059e+003,1.704211e-001
6.965916e+003,1.866641e-001
6.969773e+003,2.124226e-001
6.973630e+003,2.235278e-001
6.977487e+003,2.177836e-001
6.981344e+003,2.056318e-001
6.985201e+003,1.809869e-001
6.989059e+003,1.716192e-001
6.992916e+003,1.937234e-001
6.996772e+003,1.991955e-001
7.000630e+003,1.878465e-001
7.004487e+003,1.803282e-001
7.008344e+003,1.694252e-001
7.012201e+003,1.888307e-001
7.016058e+003,2.023160e-001
7.019915e+003,2.030241e-001
7.023772e+003,1.991839e-001
7.027629e+003,2.018897e-001
7.031486e+003,2.120499e-001
7.035344e+003,2.113418e-001
7.039201e+003,2.012425e-001
7.043058e+003,1.965942e-001
7.046915e+003,1.661701e-001
7.050772e+003,1.587148e-001
7.054629e+003,2.046214e-001
7.058486e+003,2.141713e-001
7.062343e+003,2.219001e-001
7.066200e+003,2.070050e-001
7.070058e+003,1.951816e-001
7.073915e+003,1.950354e-001
7.077771e+003,2.101878e-001
7.081629e+003,2.215045e-001
7.085486e+003,2.129094e-001
7.089343e+003,1.870158e-001
7.093200e+003,1.775863e-001
7.097057e+003,1.553745e-001
7.100914e+003,1.481909e-001
7.104771e+003,1.578751e-001
7.108628e+003,1.824309e-001
7.112485e+003,2.403950e-001
7.116343e+003,2.580978e-001
7.120200e+003,2.263852e-001
7.124057e+003,1.909697e-001
7.127914e+003,1.855818e-001
7.131771e+003,1.944366e-001
7.135628e+003,2.346175e-001
7.139485e+003,2.249642e-001
7.143342e+003,1.897005e-001
7.147199e+003,1.786978e-001
7.151057e+003,1.715406e-001
7.154914e+003,1.655394e-001
7.158771e+003,1.484743e-001
7.162628e+003,1.336291e-001
7.166485e+003,1.561321e-001
7.170342e+003,1.811071e-001
7.174199e+003,2.101778e-001
7.178056e+003,2.256865e-001
7.181913e+003,2.180411e-001
7.185771e+003,1.869744e-001
7.189627e+003,1.990827e-001
7.193484e+003,2.193218e-001
7.197342e+003,1.642044e-001
7.201199e+003,1.483477e-001
7.205056e+003,1.736661e-001
7.208913e+003,1.887467e-001
7.212770e+003,2.168529e-001
7.216627e+003,2.136614e-001
7.220484e+003,2.127835e-001
7.224341e+003,1.942082e-001
7.228198e+003,1.871846e-001
7.232056e+003,1.678280e-001
7.235913e+003,1.735676e-001
7.239770e+003,1.983137e-001
7.243627e+003,2.108892e-001
7.247484e+003,1.954118e-001
7.251341e+003,1.635215e-001
7.255198e+003,1.435594e-001
7.259055e+003,1.623547e-001
7.262912e+003,2.119807e-001
7.266770e+003,2.089011e-001
7.270626e+003,1.644669e-001
7.274483e+003,1.196969e-001
7.278341e+003,1.111385e-001
7.282198e+003,1.269252e-001
7.286055e+003,1.504514e-001
7.289912e+003,1.519847e-001
7.293769e+003,1.484343e-001
7.297626e+003,1.571725e-001
7.301483e+003,1.756844e-001
7.305340e+003,1.920964e-001
7.309197e+003,1.830249e-001
7.313055e+003,1.827153e-001
7.316912e+003,2.200869e-001
7.320769e+003,2.278567e-001
7.324626e+003,2.194041e-001
7.328483e+003,1.879507e-001
7.332340e+003,1.760206e-001
7.336197e+003,2.133612e-001
7.340054e+003,1.654704e-001
7.343911e+003,1.176139e-001
7.347769e+003,1.369357e-001
7.351625e+003,1.527563e-001
7.355482e+003,1.663309e-001
7.359340e+003,1.807360e-001
7.363197e+003,2.276139e-001
7.367054e+003,2.607257e-001
7.370911e+003,1.790746e-001
7.374768e+003,1.644148e-001
7.378625e+003,1.779706e-001
7.382482e+003,1.783288e-001
7.386339e+003,1.588529e-001
7.390196e+003,1.736899e-001
7.394054e+003,2.241576e-001
7.397911e+003,2.129158e-001
7.401768e+003,2.347911e-001
7.405625e+003,2.416467e-001
7.409482e+003,1.824690e-001
7.413339e+003,1.540946e-001
7.417196e+003,1.697088e-001
7.421053e+003,1.890604e-001
7.424910e+003,1.979023e-001
7.428768e+003,2.128260e-001
7.432625e+003,1.864748e-001
7.436481e+003,1.716467e-001
7.440339e+003,1.659211e-001
7.444196e+003,1.470915e-001
7.448053e+003,1.487591e-001
7.451910e+003,1.316399e-001
7.455767e+003,1.452983e-001
7.459624e+003,1.437939e-001
7.463481e+003,1.397676e-001
7.467338e+003,1.856144e-001
7.471195e+003,1.902335e-001
7.475053e+003,1.705175e-001
7.478910e+003,1.695387e-001
7.482767e+003,1.831281e-001
7.486624e+003,1.769022e-001
7.490481e+003,1.653609e-001
7.494338e+003,1.637493e-001
7.498195e+003,1.652575e-001
7.502052e+003,1.810012e-001
7.505909e+003,1.648182e-001
7.509767e+003,9.696514e-002
7.513624e+003,1.053192e-001
7.517480e+003,1.722041e-001
7.521338e+003,1.688792e-001
7.525195e+003,1.596426e-001
7.529052e+003,2.032023e-001
7.532909e+003,2.127604e-001
7.536766e+003,1.983277e-001
7.540623e+003,1.811957e-001
7.544480e+003,2.018253e-001
7.548337e+003,2.243998e-001
7.552194e+003,2.034031e-001
7.556052e+003,1.957415e-001
7.559909e+003,1.903929e-001
7.563766e+003,1.663000e-001
7.567623e+003,1.362886e-001
7.571480e+003,1.276562e-001
7.575337e+003,1.731100e-001
7.579194e+003,2.038288e-001
7.583051e+003,2.087360e-001
7.586908e+003,2.382689e-001
7.590766e+003,2.188412e-001
7.594623e+003,1.727108e-001
7.598479e+003,1.584763e-001
7.602337e+003,1.458516e-001
7.606194e+003,1.199041e-001
7.610051e+003,1.238484e-001
7.613908e+003,1.667109e-001
7.617765e+003,2.148592e-001
7.621622e+003,1.728771e-001
7.625479e+003,2.077918e-001
7.629336e+003,2.259504e-001
7.633193e+003,2.097419e-001
7.637051e+003,1.699725e-001
7.640908e+003,1.542438e-001
7.644765e+003,1.560247e-001
7.648622e+003,1.529652e-001
7.652479e+003,1.910636e-001
7.656336e+003,2.538673e-001
7.660193e+003,2.133314e-001
7.664050e+003,1.738603e-001
7.667907e+003,1.941825e-001
7.671765e+003,2.025126e-001
7.675622e+003,1.476936e-001
7.679479e+003,1.312982e-001
7.683336e+003,1.682765e-001
7.687193e+003,2.268756e-001
7.691050e+003,2.292627e-001
7.694907e+003,2.180790e-001
7.698764e+003,2.365569e-001
7.702621e+003,2.123534e-001
7.706479e+003,2.102648e-001
7.710335e+003,1.912429e-001
7.714192e+003,1.552938e-001
7.718050e+003,1.124604e-001
7.721907e+003,9.801266e-002
7.725764e+003,1.937659e-001
7.729621e+003,2.454779e-001
7.733478e+003,2.559518e-001
7.737335e+003,2.854527e-001
7.741192e+003,2.981118e-001
7.745049e+003,3.107106e-001
7.748906e+003,3.124470e-001
7.752764e+003,2.918967e-001
7.756621e+003,2.741385e-001
7.760478e+003,2.974415e-001
7.764335e+003,2.998501e-001
7.768192e+003,2.764092e-001
7.772049e+003,2.558897e-001
7.775906e+003,2.046536e-001
7.779763e+003,1.325500e-001
7.783620e+003,1.513061e-001
7.787478e+003,1.913268e-001
7.791334e+003,2.948146e-001
7.795191e+003,2.781959e-001
7.799049e+003,1.171441e-001
7.802906e+003,1.113260e-001
7.806763e+003,1.379436e-001
7.810620e+003,1.426456e-001
7.814477e+003,1.145377e-001
7.818334e+003,1.803072e-001
7.822191e+003,1.851492e-001
7.826048e+003,1.028406e-001
7.829905e+003,1.314770e-001
7.833763e+003,1.475007e-001
7.837620e+003,1.247236e-001
7.841477e+003,1.618823e-001
7.845334e+003,1.241508e-001
7.849191e+003,7.951296e-002
7.853048e+003,8.810971e-002
7.856905e+003,1.614655e-001
7.860762e+003,2.538679e-001
7.864619e+003,2.397748e-001
7.868477e+003,2.125688e-001
7.872333e+003,2.317858e-001
7.876190e+003,2.234659e-001
7.880048e+003,1.964843e-001
7.883905e+003,1.693771e-001
7.887762e+003,1.866927e-001
7.891619e+003,1.891839e-001
7.895476e+003,1.475879e-001
7.899333e+003,7.920867e-002
7.903190e+003,-6.525350e-002
7.907047e+003,-3.594898e-002
7.910904e+003,1.451536e-001
7.914762e+003,2.381108e-001
7.918619e+003,1.963902e-001
7.922476e+003,1.549299e-001
7.926333e+003,7.894909e-002
7.930190e+003,8.465865e-002
7.934047e+003,1.060013e-001
7.937904e+003,1.027763e-001
7.941761e+003,1.737306e-001
7.945618e+003,3.040246e-001
7.949476e+003,2.319252e-001
7.953333e+003,1.390822e-001
7.957189e+003,1.320527e-001
7.961047e+003,1.536183e-001
7.964904e+003,9.762547e-002
7.968761e+003,4.050709e-002
7.972618e+003,7.077033e-002
7.976475e+003,2.713779e-001
7.980332e+003,2.974320e-001
7.984189e+003,2.192793e-001
7.988046e+003,2.784349e-001
7.991903e+003,2.514601e-001
7.995761e+003,2.406191e-001
7.999618e+003,3.606189e-001
