4.011380e+002,6.000000e+000
4.049951e+002,6.000000e+000
4.088522e+002,6.000000e+000
4.127093e+002,6.000000e+000
4.165664e+002,2.580360e-001
4.204235e+002,4.224039e-001
4.242806e+002,6.000000e+000
4.281377e+002,1.239704e-001
4.319948e+002,6.000000e+000
4.358519e+002,6.000000e+000
4.397090e+002,6.000000e+000
4.435661e+002,6.000000e+000
4.474232e+002,6.000000e+000
4.512803e+002,-2.566346e-001
4.551374e+002,6.000000e+000
4.589945e+002,6.000000e+000
4.628516e+002,6.000000e+000
4.667087e+002,6.000000e+000
4.705658e+002,6.000000e+000
4.744229e+002,6.000000e+000
4.782800e+002,6.000000e+000
4.821371e+002,6.000000e+000
4.859941e+002,6.000000e+000
4.898513e+002,6.000000e+000
4.937083e+002,6.000000e+000
4.975654e+002,6.000000e+000
5.014225e+002,6.000000e+000
5.052796e+002,6.000000e+000
5.091367e+002,-8.995281e-001
5.129938e+002,6.000000e+000
5.168509e+002,6.000000e+000
5.207080e+002,2.114521e-002
5.245651e+002,2.015387e-001
5.284222e+002,-7.074442e-002
5.322793e+002,-1.032842e-001
5.361364e+002,4.056060e-001
5.399935e+002,6.000000e+000
5.438506e+002,6.000000e+000
5.477077e+002,6.000000e+000
5.515648e+002,-1.222919e-001
5.554219e+002,-3.351499e-002
5.592790e+002,-2.018473e-001
5.631361e+002,-1.599993e+000
5.669932e+002,6.000000e+000
5.708503e+002,6.000000e+000
5.747074e+002,6.000000e+000
5.785645e+002,6.000000e+000
5.824216e+002,9.278207e-001
5.862787e+002,7.491376e-001
5.901357e+002,6.000000e+000
5.939929e+002,-3.591447e-001
5.978499e+002,-9.642784e-001
6.017070e+002,6.000000e+000
6.055641e+002,-1.189363e+000
6.094212e+002,-1.666239e+000
6.132783e+002,-1.527746e+000
6.171354e+002,6.721709e-001
6.209925e+002,6.000000e+000
6.248496e+002,9.042004e-002
6.287067e+002,3.620767e-002
6.325638e+002,6.000000e+000
6.364209e+002,6.000000e+000
6.402780e+002,-1.360265e-001
6.441351e+002,-2.760804e-001
6.479922e+002,-6.425854e-001
6.518493e+002,6.000000e+000
6.557064e+002,6.000000e+000
6.595635e+002,6.000000e+000
6.634205e+002,6.000000e+000
6.672777e+002,6.000000e+000
6.711348e+002,6.000000e+000
6.749918e+002,6.000000e+000
6.788490e+002,6.000000e+000
6.827061e+002,6.000000e+000
6.865631e+002,-2.873273e-001
6.904203e+002,4.192195e-002
6.942773e+002,-1.156991e+000
6.981344e+002,-1.584116e-001
7.019916e+002,6.000000e+000
7.058486e+002,6.000000e+000
7.097057e+002,6.000000e+000
7.135629e+002,6.000000e+000
7.174199e+002,6.000000e+000
7.212770e+002,-3.870332e-001
7.251342e+002,6.000000e+000
7.289912e+002,6.000000e+000
7.328483e+002,8.460218e-001
7.367054e+002,-2.163990e-001
7.405625e+002,-2.044963e-001
7.444196e+002,5.125328e-001
7.482767e+002,6.000000e+000
7.521338e+002,1.038236e+000
7.559908e+002,4.237037e-001
7.598480e+002,6.000000e+000
7.637051e+002,6.000000e+000
7.675621e+002,-2.741866e-001
7.714193e+002,-7.314211e-001
7.752764e+002,-9.111605e-001
7.791334e+002,6.000000e+000
7.829905e+002,6.000000e+000
7.868477e+002,6.000000e+000
7.907047e+002,6.000000e+000
7.945618e+002,7.229259e-001
7.984189e+002,6.000000e+000
8.022760e+002,6.000000e+000
8.061331e+002,6.000000e+000
8.099902e+002,6.000000e+000
8.138473e+002,-9.389557e-001
8.177044e+002,-1.874563e-001
8.215615e+002,6.000000e+000
8.254186e+002,6.000000e+000
8.292757e+002,6.000000e+000
8.331328e+002,6.000000e+000
8.369899e+002,7.840162e-001
8.408470e+002,7.798958e-001
8.447041e+002,1.103081e+000
8.485612e+002,1.472780e+000
8.524183e+002,2.195227e+000
8.562754e+002,1.044728e+000
8.601324e+002,1.326433e+000
8.639896e+002,1.836838e+000
8.678467e+002,1.711092e+000
8.717037e+002,6.000000e+000
8.755609e+002,2.041865e+000
8.794180e+002,1.665852e+000
8.832750e+002,1.524844e+000
8.871321e+002,1.740107e+000
8.909893e+002,2.273799e+000
8.948463e+002,6.000000e+000
8.987034e+002,2.084698e+000
9.025605e+002,6.000000e+000
9.064176e+002,6.000000e+000
9.102747e+002,6.000000e+000
9.141318e+002,1.527048e+000
9.179889e+002,1.814647e+000
9.218461e+002,6.000000e+000
9.257031e+002,1.964789e+000
9.295602e+002,1.643846e+000
9.334174e+002,6.000000e+000
9.372744e+002,6.000000e+000
9.411315e+002,6.000000e+000
9.449886e+002,1.816943e+000
9.488457e+002,1.609706e+000
9.527028e+002,3.793922e+000
9.565599e+002,1.975512e+000
9.604170e+002,1.531650e+000
9.642740e+002,1.533521e+000
9.681312e+002,6.000000e+000
9.719883e+002,6.000000e+000
9.758453e+002,6.000000e+000
9.797025e+002,6.000000e+000
9.835596e+002,6.000000e+000
9.874166e+002,1.836627e+000
9.912738e+002,1.679818e+000
9.951309e+002,1.783402e+000
9.989879e+002,1.830326e+000
1.002845e+003,1.971754e+000
1.006702e+003,6.000000e+000
1.010559e+003,6.000000e+000
1.014416e+003,3.595780e+000
1.018273e+003,6.000000e+000
1.022130e+003,2.163795e+000
1.025988e+003,1.743864e+000
1.029845e+003,1.901302e+000
1.033702e+003,2.661426e+000
1.037559e+003,4.461008e+000
1.041416e+003,3.100688e+000
1.045273e+003,1.798023e+000
1.049130e+003,1.914552e+000
1.052987e+003,2.069894e+000
1.056844e+003,1.691740e+000
1.060702e+003,1.686808e+000
1.064559e+003,1.694864e+000
1.068416e+003,1.706727e+000
1.072273e+003,1.676977e+000
1.076130e+003,1.608398e+000
1.079987e+003,1.591755e+000
1.083844e+003,1.480890e+000
1.087701e+003,1.447449e+000
1.091558e+003,1.527501e+000
1.095415e+003,1.570762e+000
1.099272e+003,1.599125e+000
1.103130e+003,1.585515e+000
1.106987e+003,1.640708e+000
1.110844e+003,2.043484e+000
1.114701e+003,2.080980e+000
1.118558e+003,1.534956e+000
1.122415e+003,1.448905e+000
1.126272e+003,1.533276e+000
1.130129e+003,1.384582e+000
1.133986e+003,1.311624e+000
1.137843e+003,1.380198e+000
1.141701e+003,1.480402e+000
1.145558e+003,1.504450e+000
1.149415e+003,1.453236e+000
1.153272e+003,1.434982e+000
1.157129e+003,1.409463e+000
1.160986e+003,1.436904e+000
1.164843e+003,1.461817e+000
1.168700e+003,1.435761e+000
1.172557e+003,1.369350e+000
1.176414e+003,1.359829e+000
1.180271e+003,1.353801e+000
1.184129e+003,1.386323e+000
1.187986e+003,1.476489e+000
1.191843e+003,1.460490e+000
1.195700e+003,1.414923e+000
1.199557e+003,1.447731e+000
1.203414e+003,1.427920e+000
1.207271e+003,1.312991e+000
1.211128e+003,1.329238e+000
1.214985e+003,1.371518e+000
1.218842e+003,1.308960e+000
1.222699e+003,1.219844e+000
1.226557e+003,1.133103e+000
1.230414e+003,1.087092e+000
1.234271e+003,1.002928e+000
1.238128e+003,9.298186e-001
1.241985e+003,8.859459e-001
1.245842e+003,8.289047e-001
1.249699e+003,7.966691e-001
1.253556e+003,7.717370e-001
1.257413e+003,7.219119e-001
1.261271e+003,6.801409e-001
1.265128e+003,6.667075e-001
1.268985e+003,6.462373e-001
1.272842e+003,6.225711e-001
1.276699e+003,5.996641e-001
1.280556e+003,5.735180e-001
1.284413e+003,5.573494e-001
1.288270e+003,5.469480e-001
1.292127e+003,5.371382e-001
1.295984e+003,5.203870e-001
1.299841e+003,5.104567e-001
1.303698e+003,5.047542e-001
1.307556e+003,4.928781e-001
1.311413e+003,4.904302e-001
1.315270e+003,4.888548e-001
1.319127e+003,4.803369e-001
1.322984e+003,4.731961e-001
1.326841e+003,4.740272e-001
1.330698e+003,4.689447e-001
1.334555e+003,4.596322e-001
1.338412e+003,4.491312e-001
1.342270e+003,4.460231e-001
1.346127e+003,4.488249e-001
1.349984e+003,4.499999e-001
1.353841e+003,4.541402e-001
1.357698e+003,4.552135e-001
1.361555e+003,4.519854e-001
1.365412e+003,4.618085e-001
1.369269e+003,4.693006e-001
1.373126e+003,4.651946e-001
1.376983e+003,4.726127e-001
1.380840e+003,4.912271e-001
1.384698e+003,5.168540e-001
1.388555e+003,5.229711e-001
1.392412e+003,5.305381e-001
1.396269e+003,5.527900e-001
1.400126e+003,5.707019e-001
1.403983e+003,5.856252e-001
1.407840e+003,6.010586e-001
1.411697e+003,6.227257e-001
1.415554e+003,6.337538e-001
1.419411e+003,6.417474e-001
1.423269e+003,6.571138e-001
1.427126e+003,6.673011e-001
1.430983e+003,6.594093e-001
1.434840e+003,6.678730e-001
1.438697e+003,6.781400e-001
1.442554e+003,6.688255e-001
1.446411e+003,6.567979e-001
1.450268e+003,6.393723e-001
1.454125e+003,6.291764e-001
1.457982e+003,6.281616e-001
1.461839e+003,6.161258e-001
1.465697e+003,6.097583e-001
1.469554e+003,6.104460e-001
1.473411e+003,6.147954e-001
1.477268e+003,6.238159e-001
1.481125e+003,6.223679e-001
1.484982e+003,6.217693e-001
1.488839e+003,6.358520e-001
1.492696e+003,6.609135e-001
1.496553e+003,6.652030e-001
1.500411e+003,6.579075e-001
1.504268e+003,6.596158e-001
1.508125e+003,6.705667e-001
1.511982e+003,6.832212e-001
1.515839e+003,6.894088e-001
1.519696e+003,6.808721e-001
1.523553e+003,6.580428e-001
1.527410e+003,6.436287e-001
1.531267e+003,6.323512e-001
1.535124e+003,6.265182e-001
1.538981e+003,6.166144e-001
1.542839e+003,6.001815e-001
1.546696e+003,5.794237e-001
1.550553e+003,5.607132e-001
1.554410e+003,5.509331e-001
1.558267e+003,5.415409e-001
1.562124e+003,5.227192e-001
1.565981e+003,5.101781e-001
1.569838e+003,5.086825e-001
1.573695e+003,5.070019e-001
1.577552e+003,5.043954e-001
1.581410e+003,5.011252e-001
1.585267e+003,5.049508e-001
1.589124e+003,5.122863e-001
1.592981e+003,5.218053e-001
1.596838e+003,5.240598e-001
1.600695e+003,5.325432e-001
1.604552e+003,5.614800e-001
1.608409e+003,5.923828e-001
1.612266e+003,6.193970e-001
1.616123e+003,6.459036e-001
1.619980e+003,6.727344e-001
1.623838e+003,7.036842e-001
1.627695e+003,7.192128e-001
1.631552e+003,7.356516e-001
1.635409e+003,7.427062e-001
1.639266e+003,7.413850e-001
1.643123e+003,7.410279e-001
1.646980e+003,7.270010e-001
1.650837e+003,7.112814e-001
1.654694e+003,6.962366e-001
1.658551e+003,6.824218e-001
1.662409e+003,6.533470e-001
1.666266e+003,6.231577e-001
1.670123e+003,6.026604e-001
1.673980e+003,5.776353e-001
1.677837e+003,5.446051e-001
1.681694e+003,5.157554e-001
1.685551e+003,4.961285e-001
1.689408e+003,4.803102e-001
1.693265e+003,4.665964e-001
1.697122e+003,4.505846e-001
1.700979e+003,4.388617e-001
1.704837e+003,4.295282e-001
1.708694e+003,4.228451e-001
1.712551e+003,4.164276e-001
1.716408e+003,4.083152e-001
1.720265e+003,4.036879e-001
1.724122e+003,4.022682e-001
1.727979e+003,4.013216e-001
1.731836e+003,3.934172e-001
1.735693e+003,3.879133e-001
1.739550e+003,3.878465e-001
1.743408e+003,3.883630e-001
1.747265e+003,3.867390e-001
1.751122e+003,3.850180e-001
1.754979e+003,3.820024e-001
1.758836e+003,3.798171e-001
1.762693e+003,3.804252e-001
1.766550e+003,3.790049e-001
1.770407e+003,3.777115e-001
1.774264e+003,3.758739e-001
1.778121e+003,3.744613e-001
1.781979e+003,3.793403e-001
1.785836e+003,3.800435e-001
1.789693e+003,3.786321e-001
1.793550e+003,3.742833e-001
1.797407e+003,3.693160e-001
1.801264e+003,3.700374e-001
1.805121e+003,3.710735e-001
1.808978e+003,3.665581e-001
1.812835e+003,3.631562e-001
1.816692e+003,3.637784e-001
1.820549e+003,3.609737e-001
1.824407e+003,3.578129e-001
1.828264e+003,3.576496e-001
1.832121e+003,3.583342e-001
1.835978e+003,3.592575e-001
1.839835e+003,3.591160e-001
1.843692e+003,3.577855e-001
1.847549e+003,3.557047e-001
1.851406e+003,3.542284e-001
1.855263e+003,3.535403e-001
1.859120e+003,3.507704e-001
1.862978e+003,3.516712e-001
1.866835e+003,3.555312e-001
1.870692e+003,3.533311e-001
1.874549e+003,3.506231e-001
1.878406e+003,3.458473e-001
1.882263e+003,3.465994e-001
1.886120e+003,3.479739e-001
1.889977e+003,3.465177e-001
1.893834e+003,3.406933e-001
1.897691e+003,3.364698e-001
1.901548e+003,3.379125e-001
1.905406e+003,3.429348e-001
1.909263e+003,3.475014e-001
1.913120e+003,3.435919e-001
1.916977e+003,3.410017e-001
1.920834e+003,3.445222e-001
1.924691e+003,3.407920e-001
1.928548e+003,3.375362e-001
1.932405e+003,3.384727e-001
1.936262e+003,3.411504e-001
1.940119e+003,3.347242e-001
1.943977e+003,3.258978e-001
1.947834e+003,3.274723e-001
1.951691e+003,3.292314e-001
1.955548e+003,3.282696e-001
1.959405e+003,3.249421e-001
1.963262e+003,3.216923e-001
1.967119e+003,3.245773e-001
1.970976e+003,3.250127e-001
1.974833e+003,3.236557e-001
1.978690e+003,3.203493e-001
1.982547e+003,3.157986e-001
1.986405e+003,3.127428e-001
1.990262e+003,3.131438e-001
1.994119e+003,3.174250e-001
1.997976e+003,3.180998e-001
2.001833e+003,3.169851e-001
2.005690e+003,3.144738e-001
2.009547e+003,3.115962e-001
2.013404e+003,3.145349e-001
2.017261e+003,3.171548e-001
2.021118e+003,3.146500e-001
2.024976e+003,3.131261e-001
2.028833e+003,3.144665e-001
2.032690e+003,3.136159e-001
2.036547e+003,3.106242e-001
2.040404e+003,3.083130e-001
2.044261e+003,3.068572e-001
2.048118e+003,3.050394e-001
2.051975e+003,3.021288e-001
2.055832e+003,2.984073e-001
2.059689e+003,2.999500e-001
2.063546e+003,3.031130e-001
2.067404e+003,3.037700e-001
2.071261e+003,3.024202e-001
2.075118e+003,3.032287e-001
2.078975e+003,3.031920e-001
2.082832e+003,3.008223e-001
2.086689e+003,2.996929e-001
2.090546e+003,3.006574e-001
2.094403e+003,2.994879e-001
2.098260e+003,3.014876e-001
2.102117e+003,2.999571e-001
2.105975e+003,2.980779e-001
2.109832e+003,2.972486e-001
2.113689e+003,2.977633e-001
2.117546e+003,2.975276e-001
2.121403e+003,2.938954e-001
2.125260e+003,2.923667e-001
2.129117e+003,2.938794e-001
2.132974e+003,2.951213e-001
2.136831e+003,2.960464e-001
2.140688e+003,2.972144e-001
2.144545e+003,3.000407e-001
2.148403e+003,2.994333e-001
2.152260e+003,3.001710e-001
2.156117e+003,3.033593e-001
2.159974e+003,3.078733e-001
2.163831e+003,3.092349e-001
2.167688e+003,3.075604e-001
2.171545e+003,3.059617e-001
2.175402e+003,3.025439e-001
2.179259e+003,3.007847e-001
2.183116e+003,3.024518e-001
2.186974e+003,2.996106e-001
2.190831e+003,2.991631e-001
2.194688e+003,3.031628e-001
2.198545e+003,3.057139e-001
2.202402e+003,3.055249e-001
2.206259e+003,3.041405e-001
2.210116e+003,3.033427e-001
2.213973e+003,3.009051e-001
2.217830e+003,2.976147e-001
2.221688e+003,3.030109e-001
2.225544e+003,3.066696e-001
2.229402e+003,3.081806e-001
2.233259e+003,3.125228e-001
2.237116e+003,3.149324e-001
2.240973e+003,3.110740e-001
2.244830e+003,3.122396e-001
2.248687e+003,3.172645e-001
2.252544e+003,3.140652e-001
2.256401e+003,3.105356e-001
2.260258e+003,3.153016e-001
2.264115e+003,3.189494e-001
2.267973e+003,3.175901e-001
2.271830e+003,3.131331e-001
2.275687e+003,3.123467e-001
2.279544e+003,3.126162e-001
2.283401e+003,3.125180e-001
2.287258e+003,3.143280e-001
2.291115e+003,3.181927e-001
2.294972e+003,3.192768e-001
2.298829e+003,3.202912e-001
2.302687e+003,3.234164e-001
2.306543e+003,3.250242e-001
2.310401e+003,3.255917e-001
2.314258e+003,3.246790e-001
2.318115e+003,3.264484e-001
2.321972e+003,3.268881e-001
2.325829e+003,3.264395e-001
2.329686e+003,3.290255e-001
2.333543e+003,3.316036e-001
2.337400e+003,3.273399e-001
2.341257e+003,3.241213e-001
2.345115e+003,3.244894e-001
2.348972e+003,3.249164e-001
2.352829e+003,3.226372e-001
2.356686e+003,3.179900e-001
2.360543e+003,3.170329e-001
2.364400e+003,3.183503e-001
2.368257e+003,3.209307e-001
2.372114e+003,3.268426e-001
2.375971e+003,3.270105e-001
2.379828e+003,3.281782e-001
2.383686e+003,3.342049e-001
2.387542e+003,3.362677e-001
2.391400e+003,3.354134e-001
2.395257e+003,3.373730e-001
2.399114e+003,3.346569e-001
2.402971e+003,3.294733e-001
2.406828e+003,3.308236e-001
2.410685e+003,3.319438e-001
2.414542e+003,3.302191e-001
2.418399e+003,3.283956e-001
2.422256e+003,3.283635e-001
2.426114e+003,3.288934e-001
2.429971e+003,3.260758e-001
2.433828e+003,3.222619e-001
2.437685e+003,3.204531e-001
2.441542e+003,3.241729e-001
2.445399e+003,3.225430e-001
2.449256e+003,3.197626e-001
2.453113e+003,3.221054e-001
2.456970e+003,3.236740e-001
2.460827e+003,3.256252e-001
2.464684e+003,3.246382e-001
2.468542e+003,3.246501e-001
2.472399e+003,3.262885e-001
2.476256e+003,3.253011e-001
2.480113e+003,3.252736e-001
2.483970e+003,3.245464e-001
2.487827e+003,3.198588e-001
2.491684e+003,3.140741e-001
2.495541e+003,3.142698e-001
2.499398e+003,3.182786e-001
2.503255e+003,3.203394e-001
2.507113e+003,3.200037e-001
2.510969e+003,3.197711e-001
2.514827e+003,3.197282e-001
2.518684e+003,3.225317e-001
2.522541e+003,3.240439e-001
2.526398e+003,3.244634e-001
2.530255e+003,3.257401e-001
2.534112e+003,3.285840e-001
2.537969e+003,3.320222e-001
2.541826e+003,3.332187e-001
2.545683e+003,3.355018e-001
2.549541e+003,3.373336e-001
2.553398e+003,3.391308e-001
2.557255e+003,3.373230e-001
2.561112e+003,3.342345e-001
2.564969e+003,3.354934e-001
2.568826e+003,3.382709e-001
2.572683e+003,3.363588e-001
2.576540e+003,3.374672e-001
2.580397e+003,3.419499e-001
2.584254e+003,3.443017e-001
2.588112e+003,3.455824e-001
2.591969e+003,3.479757e-001
2.595826e+003,3.495907e-001
2.599683e+003,3.529872e-001
2.603540e+003,3.546158e-001
2.607397e+003,3.551588e-001
2.611254e+003,3.622646e-001
2.615111e+003,3.679967e-001
2.618968e+003,3.688370e-001
2.622825e+003,3.719353e-001
2.626682e+003,3.758682e-001
2.630540e+003,3.732897e-001
2.634397e+003,3.760334e-001
2.638254e+003,3.813313e-001
2.642111e+003,3.843215e-001
2.645968e+003,3.830477e-001
2.649825e+003,3.792491e-001
2.653682e+003,3.858855e-001
2.657539e+003,3.909645e-001
2.661396e+003,3.912708e-001
2.665253e+003,3.912368e-001
2.669111e+003,3.967881e-001
2.672968e+003,4.029286e-001
2.676825e+003,4.088232e-001
2.680682e+003,4.140241e-001
2.684539e+003,4.146633e-001
2.688396e+003,4.157012e-001
2.692253e+003,4.206922e-001
2.696110e+003,4.237458e-001
2.699967e+003,4.275772e-001
2.703824e+003,4.320680e-001
2.707681e+003,4.376244e-001
2.711539e+003,4.444445e-001
2.715396e+003,4.449174e-001
2.719253e+003,4.425272e-001
2.723110e+003,4.477061e-001
2.726967e+003,4.524737e-001
2.730824e+003,4.514364e-001
2.734681e+003,4.573397e-001
2.738538e+003,4.605377e-001
2.742395e+003,4.634341e-001
2.746252e+003,4.709478e-001
2.750110e+003,4.799264e-001
2.753967e+003,4.886670e-001
2.757824e+003,4.933055e-001
2.761681e+003,4.976343e-001
2.765538e+003,4.988365e-001
2.769395e+003,4.978069e-001
2.773252e+003,5.002918e-001
2.777109e+003,5.068309e-001
2.780966e+003,5.125735e-001
2.784823e+003,5.177695e-001
2.788680e+003,5.233462e-001
2.792538e+003,5.242971e-001
2.796395e+003,5.261201e-001
2.800252e+003,5.313987e-001
2.804109e+003,5.453989e-001
2.807966e+003,5.485200e-001
2.811823e+003,5.483704e-001
2.815680e+003,5.507747e-001
2.819537e+003,5.549588e-001
2.823394e+003,5.626361e-001
2.827251e+003,5.718177e-001
2.831109e+003,5.747281e-001
2.834966e+003,5.688166e-001
2.838823e+003,5.727258e-001
2.842680e+003,5.772755e-001
2.846537e+003,5.851695e-001
2.850394e+003,5.972153e-001
2.854251e+003,6.024168e-001
2.858108e+003,6.055812e-001
2.861965e+003,6.067610e-001
2.865823e+003,6.102253e-001
2.869679e+003,6.197326e-001
2.873537e+003,6.218236e-001
2.877394e+003,6.235661e-001
2.881251e+003,6.302229e-001
2.885108e+003,6.390625e-001
2.888965e+003,6.489320e-001
2.892822e+003,6.533753e-001
2.896679e+003,6.564622e-001
2.900536e+003,6.649208e-001
2.904393e+003,6.734662e-001
2.908250e+003,6.799226e-001
2.912108e+003,6.802549e-001
2.915965e+003,6.866259e-001
2.919822e+003,6.931622e-001
2.923679e+003,6.933164e-001
2.927536e+003,6.967925e-001
2.931393e+003,6.893415e-001
2.935250e+003,6.962753e-001
2.939107e+003,7.153130e-001
2.942964e+003,7.230277e-001
2.946822e+003,7.203758e-001
2.950678e+003,7.260081e-001
2.954536e+003,7.305134e-001
2.958393e+003,7.315874e-001
2.962250e+003,7.361006e-001
2.966107e+003,7.513869e-001
2.969964e+003,7.711163e-001
2.973821e+003,7.751591e-001
2.977678e+003,7.729664e-001
2.981535e+003,7.736981e-001
2.985392e+003,7.756000e-001
2.989250e+003,7.926022e-001
2.993107e+003,7.940248e-001
2.996964e+003,8.001328e-001
3.000821e+003,8.170451e-001
3.004678e+003,8.279601e-001
3.008535e+003,8.388821e-001
3.012392e+003,8.431914e-001
3.016249e+003,8.419715e-001
3.020106e+003,8.485240e-001
3.023963e+003,8.640526e-001
3.027821e+003,8.666229e-001
3.031677e+003,8.657895e-001
3.035535e+003,8.678729e-001
3.039392e+003,8.812819e-001
3.043249e+003,8.922964e-001
3.047106e+003,8.895410e-001
3.050963e+003,8.943138e-001
3.054820e+003,9.156574e-001
3.058677e+003,9.186924e-001
3.062534e+003,9.155358e-001
3.066391e+003,9.209252e-001
3.070249e+003,9.255244e-001
3.074106e+003,9.399697e-001
3.077963e+003,9.513435e-001
3.081820e+003,9.647328e-001
3.085677e+003,9.818869e-001
3.089534e+003,9.801292e-001
3.093391e+003,9.710944e-001
3.097248e+003,9.765410e-001
3.101105e+003,9.743445e-001
3.104962e+003,9.763806e-001
3.108820e+003,1.005591e+000
3.112677e+003,1.017876e+000
3.116534e+003,1.011509e+000
3.120391e+003,1.030512e+000
3.124248e+003,1.045256e+000
3.128105e+003,1.034741e+000
3.131962e+003,1.036809e+000
3.135819e+003,1.041015e+000
3.139676e+003,1.044102e+000
3.143533e+003,1.055121e+000
3.147390e+003,1.064261e+000
3.151248e+003,1.070184e+000
3.155105e+003,1.078081e+000
3.158962e+003,1.094204e+000
3.162819e+003,1.119863e+000
3.166676e+003,1.136614e+000
3.170533e+003,1.149115e+000
3.174390e+003,1.143995e+000
3.178247e+003,1.124785e+000
3.182104e+003,1.135205e+000
3.185961e+003,1.141099e+000
3.189819e+003,1.141821e+000
3.193676e+003,1.156094e+000
3.197533e+003,1.191931e+000
3.201390e+003,1.223503e+000
3.205247e+003,1.198401e+000
3.209104e+003,1.175193e+000
3.212961e+003,1.193369e+000
3.216818e+003,1.209529e+000
3.220675e+003,1.207466e+000
3.224532e+003,1.216012e+000
3.228389e+003,1.223357e+000
3.232247e+003,1.234713e+000
3.236104e+003,1.241512e+000
3.239961e+003,1.253103e+000
3.243818e+003,1.299084e+000
3.247675e+003,1.311738e+000
3.251532e+003,1.284220e+000
3.255389e+003,1.277281e+000
3.259246e+003,1.275083e+000
3.263103e+003,1.264348e+000
3.266960e+003,1.302302e+000
3.270818e+003,1.302342e+000
3.274675e+003,1.311374e+000
3.278532e+003,1.348653e+000
3.282389e+003,1.319688e+000
3.286246e+003,1.297103e+000
3.290103e+003,1.332573e+000
3.293960e+003,1.346185e+000
3.297817e+003,1.331910e+000
3.301674e+003,1.308559e+000
3.305531e+003,1.269711e+000
3.309388e+003,1.278826e+000
3.313246e+003,1.334627e+000
3.317103e+003,1.357230e+000
3.320960e+003,1.340291e+000
3.324817e+003,1.352021e+000
3.328674e+003,1.396185e+000
3.332531e+003,1.423855e+000
3.336388e+003,1.385968e+000
3.340245e+003,1.359774e+000
3.344102e+003,1.393291e+000
3.347959e+003,1.393703e+000
3.351817e+003,1.372507e+000
3.355674e+003,1.350658e+000
3.359531e+003,1.361837e+000
3.363388e+003,1.388796e+000
3.367245e+003,1.433564e+000
3.371102e+003,1.452222e+000
3.374959e+003,1.454676e+000
3.378816e+003,1.459247e+000
3.382673e+003,1.501621e+000
3.386530e+003,1.485091e+000
3.390387e+003,1.469368e+000
3.394245e+003,1.556262e+000
3.398102e+003,1.604605e+000
3.401959e+003,1.512900e+000
3.405816e+003,1.440996e+000
3.409673e+003,1.482107e+000
3.413530e+003,1.545433e+000
3.417387e+003,1.541500e+000
3.421244e+003,1.515826e+000
3.425101e+003,1.493422e+000
3.428958e+003,1.507878e+000
3.432815e+003,1.538490e+000
3.436673e+003,1.575444e+000
3.440530e+003,1.531227e+000
3.444387e+003,1.467732e+000
3.448244e+003,1.463886e+000
3.452101e+003,1.495811e+000
3.455958e+003,1.524324e+000
3.459815e+003,1.525085e+000
3.463672e+003,1.512505e+000
3.467529e+003,1.528788e+000
3.471386e+003,1.547350e+000
3.475244e+003,1.553360e+000
3.479101e+003,1.556164e+000
3.482958e+003,1.529867e+000
3.486815e+003,1.529230e+000
3.490672e+003,1.503644e+000
3.494529e+003,1.522183e+000
3.498386e+003,1.603762e+000
3.502243e+003,1.666659e+000
3.506100e+003,1.671488e+000
3.509958e+003,1.557570e+000
3.513814e+003,1.490577e+000
3.517672e+003,1.474835e+000
3.521529e+003,1.535242e+000
3.525386e+003,1.586580e+000
3.529243e+003,1.575608e+000
3.533100e+003,1.535365e+000
3.536957e+003,1.542012e+000
3.540814e+003,1.539588e+000
3.544671e+003,1.499938e+000
3.548528e+003,1.455648e+000
3.552385e+003,1.475442e+000
3.556243e+003,1.507905e+000
3.560100e+003,1.529814e+000
3.563957e+003,1.534480e+000
3.567814e+003,1.495926e+000
3.571671e+003,1.460944e+000
3.575528e+003,1.482156e+000
3.579385e+003,1.521170e+000
3.583242e+003,1.514665e+000
3.587099e+003,1.396536e+000
3.590957e+003,1.323607e+000
3.594813e+003,1.361610e+000
3.598671e+003,1.345195e+000
3.602528e+003,1.289172e+000
3.606385e+003,1.250255e+000
3.610242e+003,1.221133e+000
3.614099e+003,1.192166e+000
3.617956e+003,1.144188e+000
3.621813e+003,1.076509e+000
3.625670e+003,1.008550e+000
3.629527e+003,9.658427e-001
3.633385e+003,9.054134e-001
3.637242e+003,8.535284e-001
3.641099e+003,7.975529e-001
3.644956e+003,7.354339e-001
3.648813e+003,6.784642e-001
3.652670e+003,6.222465e-001
3.656527e+003,5.720112e-001
3.660384e+003,5.250141e-001
3.664241e+003,4.764450e-001
3.668098e+003,4.319140e-001
3.671956e+003,4.055164e-001
3.675813e+003,3.830203e-001
3.679670e+003,3.567904e-001
3.683527e+003,3.320729e-001
3.687384e+003,3.111730e-001
3.691241e+003,2.943900e-001
3.695098e+003,2.789692e-001
3.698955e+003,2.671069e-001
3.702812e+003,2.559980e-001
3.706669e+003,2.450298e-001
3.710526e+003,2.388697e-001
3.714384e+003,2.335844e-001
3.718241e+003,2.259936e-001
3.722098e+003,2.147227e-001
3.725955e+003,2.108006e-001
3.729812e+003,2.077122e-001
3.733669e+003,2.042484e-001
3.737526e+003,2.020937e-001
3.741383e+003,1.960901e-001
3.745240e+003,1.925857e-001
3.749097e+003,1.965101e-001
3.752955e+003,1.974877e-001
3.756812e+003,1.954165e-001
3.760669e+003,1.967812e-001
3.764526e+003,1.975098e-001
3.768383e+003,1.952672e-001
3.772240e+003,1.927061e-001
3.776097e+003,1.883077e-001
3.779954e+003,1.873954e-001
3.783811e+003,1.880122e-001
3.787668e+003,1.875529e-001
3.791525e+003,1.868905e-001
3.795383e+003,1.865763e-001
3.799240e+003,1.844771e-001
3.803097e+003,1.830982e-001
3.806954e+003,1.855199e-001
3.810811e+003,1.841217e-001
3.814668e+003,1.784626e-001
3.818525e+003,1.782384e-001
3.822382e+003,1.793519e-001
3.826239e+003,1.822904e-001
3.830096e+003,1.816511e-001
3.833954e+003,1.765953e-001
3.837811e+003,1.761115e-001
3.841668e+003,1.790242e-001
3.845525e+003,1.783671e-001
3.849382e+003,1.754256e-001
3.853239e+003,1.748510e-001
3.857096e+003,1.776787e-001
3.860953e+003,1.802909e-001
3.864810e+003,1.801755e-001
3.868667e+003,1.789461e-001
3.872524e+003,1.773449e-001
3.876382e+003,1.758489e-001
3.880239e+003,1.788544e-001
3.884096e+003,1.786513e-001
3.887953e+003,1.760104e-001
3.891810e+003,1.782135e-001
3.895667e+003,1.816263e-001
3.899524e+003,1.745612e-001
3.903381e+003,1.690141e-001
3.907238e+003,1.764334e-001
3.911095e+003,1.807793e-001
3.914953e+003,1.797717e-001
3.918810e+003,1.805827e-001
3.922667e+003,1.785599e-001
3.926524e+003,1.753008e-001
3.930381e+003,1.701671e-001
3.934238e+003,1.670734e-001
3.938095e+003,1.702282e-001
3.941952e+003,1.728814e-001
3.945809e+003,1.736331e-001
3.949667e+003,1.769055e-001
3.953523e+003,1.776965e-001
3.957381e+003,1.737414e-001
3.961238e+003,1.728338e-001
3.965095e+003,1.761114e-001
3.968952e+003,1.767628e-001
3.972809e+003,1.738243e-001
3.976666e+003,1.674479e-001
3.980523e+003,1.693799e-001
3.984380e+003,1.701805e-001
3.988237e+003,1.684303e-001
3.992094e+003,1.708626e-001
3.995952e+003,1.714244e-001
3.999809e+003,1.669752e-001
4.003666e+003,1.650434e-001
4.007523e+003,1.677758e-001
4.011380e+003,1.694735e-001
4.015237e+003,1.684876e-001
4.019094e+003,1.703854e-001
4.022951e+003,1.769215e-001
4.026808e+003,1.771908e-001
4.030666e+003,1.677638e-001
4.034522e+003,1.653317e-001
4.038380e+003,1.684462e-001
4.042237e+003,1.672061e-001
4.046094e+003,1.664804e-001
4.049951e+003,1.696036e-001
4.053808e+003,1.674770e-001
4.057665e+003,1.647984e-001
4.061522e+003,1.673628e-001
4.065379e+003,1.670689e-001
4.069236e+003,1.632179e-001
4.073094e+003,1.635886e-001
4.076951e+003,1.668915e-001
4.080808e+003,1.684416e-001
4.084665e+003,1.635934e-001
4.088522e+003,1.598653e-001
4.092379e+003,1.624459e-001
4.096236e+003,1.641750e-001
4.100093e+003,1.594262e-001
4.103950e+003,1.587535e-001
4.107808e+003,1.611219e-001
4.111665e+003,1.606215e-001
4.115521e+003,1.628802e-001
4.119379e+003,1.644758e-001
4.123236e+003,1.608986e-001
4.127093e+003,1.611748e-001
4.130950e+003,1.652873e-001
4.134807e+003,1.649855e-001
4.138664e+003,1.610587e-001
4.142521e+003,1.606153e-001
4.146378e+003,1.598774e-001
4.150235e+003,1.598807e-001
4.154093e+003,1.586548e-001
4.157950e+003,1.579022e-001
4.161807e+003,1.578169e-001
4.165664e+003,1.600560e-001
4.169521e+003,1.577675e-001
4.173378e+003,1.535283e-001
4.177235e+003,1.528207e-001
4.181092e+003,1.524958e-001
4.184949e+003,1.521595e-001
4.188807e+003,1.566612e-001
4.192664e+003,1.593766e-001
4.196521e+003,1.591974e-001
4.200378e+003,1.619137e-001
4.204235e+003,1.605110e-001
4.208092e+003,1.566480e-001
4.211949e+003,1.552932e-001
4.215806e+003,1.574144e-001
4.219663e+003,1.573528e-001
4.223521e+003,1.582749e-001
4.227377e+003,1.547799e-001
4.231234e+003,1.494516e-001
4.235092e+003,1.510516e-001
4.238949e+003,1.530150e-001
4.242806e+003,1.529081e-001
4.246663e+003,1.534512e-001
4.250520e+003,1.555222e-001
4.254377e+003,1.523570e-001
4.258234e+003,1.517174e-001
4.262091e+003,1.480959e-001
4.265948e+003,1.467759e-001
4.269806e+003,1.518702e-001
4.273663e+003,1.593792e-001
4.277520e+003,1.593454e-001
4.281377e+003,1.573502e-001
4.285234e+003,1.583987e-001
4.289091e+003,1.554380e-001
4.292948e+003,1.502950e-001
4.296805e+003,1.488213e-001
4.300662e+003,1.513669e-001
4.304520e+003,1.550322e-001
4.308376e+003,1.502530e-001
4.312233e+003,1.446069e-001
4.316091e+003,1.503587e-001
4.319948e+003,1.564373e-001
4.323805e+003,1.543773e-001
4.327662e+003,1.566461e-001
4.331519e+003,1.574214e-001
4.335376e+003,1.529299e-001
4.339233e+003,1.506596e-001
4.343090e+003,1.507329e-001
4.346947e+003,1.559039e-001
4.350805e+003,1.548533e-001
4.354662e+003,1.513385e-001
4.358519e+003,1.519310e-001
4.362376e+003,1.549124e-001
4.366233e+003,1.564359e-001
4.370090e+003,1.586312e-001
4.373947e+003,1.545913e-001
4.377804e+003,1.543005e-001
4.381661e+003,1.544232e-001
4.385519e+003,1.497936e-001
4.389375e+003,1.463556e-001
4.393232e+003,1.475441e-001
4.397090e+003,1.501381e-001
4.400947e+003,1.565009e-001
4.404804e+003,1.623707e-001
4.408661e+003,1.577115e-001
4.412518e+003,1.501170e-001
4.416375e+003,1.474905e-001
4.420232e+003,1.541758e-001
4.424089e+003,1.582193e-001
4.427946e+003,1.552918e-001
4.431804e+003,1.527767e-001
4.435661e+003,1.518395e-001
4.439518e+003,1.568560e-001
4.443375e+003,1.562663e-001
4.447232e+003,1.564958e-001
4.451089e+003,1.565074e-001
4.454946e+003,1.559967e-001
4.458803e+003,1.588353e-001
4.462660e+003,1.556445e-001
4.466518e+003,1.492753e-001
4.470375e+003,1.461823e-001
4.474231e+003,1.494994e-001
4.478089e+003,1.562311e-001
4.481946e+003,1.552691e-001
4.485803e+003,1.520732e-001
4.489660e+003,1.520535e-001
4.493517e+003,1.541849e-001
4.497375e+003,1.580628e-001
4.501231e+003,1.587522e-001
4.505088e+003,1.511789e-001
4.508946e+003,1.544909e-001
4.512803e+003,1.584686e-001
4.516660e+003,1.487561e-001
4.520517e+003,1.415783e-001
4.524374e+003,1.450522e-001
4.528231e+003,1.495704e-001
4.532088e+003,1.528792e-001
4.535945e+003,1.545290e-001
4.539802e+003,1.549075e-001
4.543660e+003,1.541261e-001
4.547517e+003,1.541722e-001
4.551374e+003,1.522730e-001
4.555231e+003,1.441106e-001
4.559088e+003,1.440583e-001
4.562945e+003,1.483991e-001
4.566802e+003,1.504429e-001
4.570659e+003,1.506579e-001
4.574516e+003,1.510205e-001
4.578374e+003,1.469621e-001
4.582230e+003,1.462994e-001
4.586087e+003,1.534653e-001
4.589945e+003,1.539054e-001
4.593802e+003,1.510434e-001
4.597659e+003,1.543218e-001
4.601516e+003,1.561618e-001
4.605373e+003,1.510583e-001
4.609230e+003,1.476567e-001
4.613087e+003,1.512278e-001
4.616944e+003,1.472622e-001
4.620801e+003,1.465309e-001
4.624659e+003,1.478964e-001
4.628516e+003,1.472677e-001
4.632373e+003,1.499907e-001
4.636230e+003,1.470324e-001
4.640087e+003,1.412420e-001
4.643944e+003,1.420130e-001
4.647801e+003,1.388392e-001
4.651658e+003,1.447383e-001
4.655515e+003,1.504842e-001
4.659373e+003,1.458189e-001
4.663229e+003,1.452408e-001
4.667086e+003,1.426968e-001
4.670944e+003,1.379127e-001
4.674801e+003,1.400824e-001
4.678658e+003,1.439868e-001
4.682515e+003,1.444447e-001
4.686372e+003,1.467318e-001
4.690229e+003,1.516477e-001
4.694086e+003,1.466978e-001
4.697943e+003,1.444632e-001
4.701800e+003,1.452708e-001
4.705658e+003,1.460009e-001
4.709515e+003,1.488048e-001
4.713372e+003,1.569546e-001
4.717229e+003,1.549746e-001
4.721086e+003,1.462879e-001
4.724943e+003,1.395121e-001
4.728800e+003,1.418880e-001
4.732657e+003,1.461475e-001
4.736514e+003,1.455232e-001
4.740372e+003,1.401082e-001
4.744229e+003,1.412261e-001
4.748085e+003,1.482023e-001
4.751943e+003,1.476242e-001
4.755800e+003,1.463575e-001
4.759657e+003,1.436488e-001
4.763514e+003,1.485178e-001
4.767371e+003,1.564238e-001
4.771228e+003,1.616789e-001
4.775085e+003,1.551879e-001
4.778942e+003,1.469249e-001
4.782799e+003,1.428739e-001
4.786657e+003,1.413386e-001
4.790514e+003,1.425088e-001
4.794371e+003,1.395265e-001
4.798228e+003,1.373984e-001
4.802085e+003,1.384605e-001
4.805942e+003,1.384587e-001
4.809799e+003,1.399892e-001
4.813656e+003,1.387560e-001
4.817513e+003,1.412455e-001
4.821371e+003,1.469342e-001
4.825228e+003,1.476566e-001
4.829084e+003,1.484525e-001
4.832942e+003,1.461051e-001
4.836799e+003,1.487102e-001
4.840656e+003,1.512163e-001
4.844513e+003,1.471925e-001
4.848370e+003,1.375641e-001
4.852227e+003,1.365754e-001
4.856084e+003,1.427980e-001
4.859941e+003,1.447136e-001
4.863798e+003,1.438460e-001
4.867656e+003,1.410057e-001
4.871513e+003,1.410796e-001
4.875370e+003,1.398391e-001
4.879227e+003,1.406941e-001
4.883084e+003,1.461928e-001
4.886941e+003,1.462692e-001
4.890798e+003,1.414595e-001
4.894655e+003,1.352657e-001
4.898512e+003,1.359333e-001
4.902370e+003,1.415368e-001
4.906227e+003,1.420605e-001
4.910083e+003,1.447245e-001
4.913941e+003,1.508530e-001
4.917798e+003,1.502251e-001
4.921655e+003,1.498123e-001
4.925512e+003,1.551683e-001
4.929369e+003,1.486587e-001
4.933226e+003,1.389923e-001
4.937083e+003,1.406343e-001
4.940940e+003,1.504547e-001
4.944797e+003,1.544222e-001
4.948655e+003,1.505439e-001
4.952512e+003,1.543714e-001
4.956369e+003,1.538527e-001
4.960226e+003,1.507348e-001
4.964083e+003,1.488210e-001
4.967940e+003,1.453570e-001
4.971797e+003,1.455351e-001
4.975654e+003,1.441928e-001
4.979511e+003,1.440222e-001
4.983369e+003,1.489987e-001
4.987226e+003,1.477942e-001
4.991083e+003,1.482024e-001
4.994940e+003,1.510932e-001
4.998797e+003,1.421419e-001
5.002654e+003,1.421174e-001
5.006511e+003,1.518530e-001
5.010368e+003,1.506914e-001
5.014225e+003,1.522927e-001
5.018083e+003,1.526777e-001
5.021939e+003,1.519641e-001
5.025796e+003,1.514683e-001
5.029654e+003,1.500013e-001
5.033511e+003,1.479459e-001
5.037368e+003,1.476915e-001
5.041225e+003,1.490566e-001
5.045082e+003,1.487864e-001
5.048939e+003,1.444502e-001
5.052796e+003,1.397285e-001
5.056653e+003,1.410593e-001
5.060510e+003,1.495204e-001
5.064368e+003,1.502702e-001
5.068225e+003,1.432084e-001
5.072082e+003,1.372747e-001
5.075939e+003,1.429806e-001
5.079796e+003,1.582227e-001
5.083653e+003,1.514232e-001
5.087510e+003,1.482970e-001
5.091367e+003,1.530932e-001
5.095224e+003,1.492419e-001
5.099082e+003,1.472647e-001
5.102938e+003,1.470890e-001
5.106795e+003,1.466234e-001
5.110653e+003,1.498297e-001
5.114510e+003,1.539184e-001
5.118367e+003,1.574956e-001
5.122224e+003,1.542405e-001
5.126081e+003,1.514321e-001
5.129938e+003,1.505163e-001
5.133795e+003,1.521870e-001
5.137652e+003,1.450884e-001
5.141509e+003,1.442085e-001
5.145367e+003,1.504632e-001
5.149224e+003,1.491008e-001
5.153081e+003,1.490311e-001
5.156938e+003,1.544105e-001
5.160795e+003,1.575053e-001
5.164652e+003,1.577174e-001
5.168509e+003,1.577697e-001
5.172366e+003,1.561467e-001
5.176223e+003,1.500195e-001
5.180081e+003,1.552305e-001
5.183938e+003,1.589084e-001
5.187794e+003,1.544785e-001
5.191652e+003,1.579634e-001
5.195509e+003,1.591886e-001
5.199366e+003,1.513083e-001
5.203223e+003,1.450964e-001
5.207080e+003,1.377414e-001
5.210937e+003,1.357237e-001
5.214794e+003,1.382140e-001
5.218651e+003,1.414230e-001
5.222508e+003,1.495437e-001
5.226366e+003,1.517872e-001
5.230223e+003,1.515713e-001
5.234080e+003,1.612583e-001
5.237937e+003,1.662102e-001
5.241794e+003,1.567643e-001
5.245651e+003,1.468080e-001
5.249508e+003,1.410259e-001
5.253365e+003,1.397809e-001
5.257222e+003,1.451558e-001
5.261080e+003,1.506152e-001
5.264937e+003,1.433698e-001
5.268793e+003,1.332920e-001
5.272651e+003,1.363619e-001
5.276508e+003,1.322985e-001
5.280365e+003,1.301510e-001
5.284222e+003,1.341725e-001
5.288079e+003,1.337681e-001
5.291936e+003,1.312223e-001
5.295793e+003,1.327042e-001
5.299650e+003,1.373824e-001
5.303507e+003,1.378108e-001
5.307365e+003,1.419042e-001
5.311222e+003,1.433239e-001
5.315079e+003,1.443041e-001
5.318936e+003,1.420391e-001
5.322793e+003,1.371599e-001
5.326650e+003,1.409024e-001
5.330507e+003,1.406717e-001
5.334364e+003,1.345709e-001
5.338221e+003,1.330140e-001
5.342079e+003,1.431804e-001
5.345936e+003,1.491829e-001
5.349792e+003,1.446891e-001
5.353650e+003,1.432251e-001
5.357507e+003,1.431863e-001
5.361364e+003,1.382921e-001
5.365221e+003,1.339868e-001
5.369078e+003,1.325636e-001
5.372935e+003,1.307535e-001
5.376792e+003,1.347118e-001
5.380649e+003,1.422224e-001
5.384506e+003,1.468172e-001
5.388364e+003,1.421933e-001
5.392221e+003,1.373123e-001
5.396078e+003,1.395106e-001
5.399935e+003,1.351005e-001
5.403792e+003,1.335409e-001
5.407649e+003,1.371438e-001
5.411506e+003,1.412377e-001
5.415363e+003,1.371615e-001
5.419220e+003,1.360577e-001
5.423078e+003,1.389369e-001
5.426935e+003,1.453150e-001
5.430792e+003,1.482450e-001
5.434649e+003,1.397926e-001
5.438506e+003,1.372790e-001
5.442363e+003,1.374122e-001
5.446220e+003,1.231779e-001
5.450077e+003,1.197746e-001
5.453934e+003,1.306989e-001
5.457792e+003,1.330657e-001
5.461648e+003,1.358547e-001
5.465505e+003,1.395213e-001
5.469363e+003,1.425800e-001
5.473220e+003,1.352968e-001
5.477077e+003,1.318624e-001
5.480934e+003,1.419645e-001
5.484791e+003,1.504867e-001
5.488648e+003,1.411412e-001
5.492505e+003,1.214276e-001
5.496362e+003,1.176822e-001
5.500219e+003,1.250435e-001
5.504077e+003,1.358951e-001
5.507934e+003,1.398385e-001
5.511791e+003,1.362681e-001
5.515648e+003,1.333565e-001
5.519505e+003,1.300274e-001
5.523362e+003,1.339681e-001
5.527219e+003,1.416782e-001
5.531076e+003,1.416730e-001
5.534933e+003,1.375931e-001
5.538791e+003,1.369798e-001
5.542647e+003,1.456818e-001
5.546504e+003,1.521648e-001
5.550362e+003,1.362527e-001
5.554219e+003,1.303339e-001
5.558076e+003,1.363343e-001
5.561933e+003,1.378699e-001
5.565790e+003,1.337169e-001
5.569647e+003,1.328330e-001
5.573504e+003,1.337636e-001
5.577361e+003,1.303385e-001
5.581218e+003,1.259549e-001
5.585076e+003,1.237061e-001
5.588933e+003,1.274170e-001
5.592790e+003,1.312459e-001
5.596647e+003,1.402825e-001
5.600504e+003,1.472682e-001
5.604361e+003,1.348269e-001
5.608218e+003,1.363551e-001
5.612075e+003,1.509989e-001
5.615932e+003,1.444832e-001
5.619790e+003,1.253893e-001
5.623646e+003,1.298709e-001
5.627503e+003,1.410669e-001
5.631361e+003,1.322561e-001
5.635218e+003,1.221371e-001
5.639075e+003,1.304827e-001
5.642932e+003,1.385125e-001
5.646789e+003,1.350836e-001
5.650646e+003,1.353643e-001
5.654503e+003,1.379181e-001
5.658360e+003,1.392433e-001
5.662217e+003,1.402724e-001
5.666075e+003,1.330383e-001
5.669932e+003,1.228007e-001
5.673789e+003,1.257912e-001
5.677646e+003,1.308091e-001
5.681503e+003,1.377156e-001
5.685360e+003,1.426597e-001
5.689217e+003,1.507772e-001
5.693074e+003,1.422954e-001
5.696931e+003,1.300843e-001
5.700789e+003,1.292775e-001
5.704646e+003,1.322632e-001
5.708502e+003,1.355113e-001
5.712360e+003,1.397635e-001
5.716217e+003,1.265675e-001
5.720074e+003,1.270560e-001
5.723931e+003,1.364966e-001
5.727788e+003,1.297634e-001
5.731645e+003,1.259629e-001
5.735502e+003,1.306978e-001
5.739359e+003,1.315304e-001
5.743216e+003,1.338616e-001
5.747074e+003,1.323363e-001
5.750931e+003,1.291869e-001
5.754788e+003,1.286741e-001
5.758645e+003,1.306426e-001
5.762502e+003,1.247941e-001
5.766359e+003,1.216417e-001
5.770216e+003,1.247020e-001
5.774073e+003,1.230152e-001
5.777930e+003,1.336167e-001
5.781788e+003,1.424171e-001
5.785645e+003,1.379345e-001
5.789501e+003,1.327369e-001
5.793359e+003,1.308667e-001
5.797216e+003,1.320460e-001
5.801073e+003,1.280611e-001
5.804930e+003,1.182895e-001
5.808787e+003,1.188881e-001
5.812644e+003,1.164357e-001
5.816501e+003,1.090525e-001
5.820358e+003,1.163016e-001
5.824215e+003,1.171842e-001
5.828073e+003,1.128807e-001
5.831930e+003,1.143962e-001
5.835787e+003,1.288012e-001
5.839644e+003,1.344481e-001
5.843501e+003,1.301953e-001
5.847358e+003,1.248076e-001
5.851215e+003,1.229702e-001
5.855072e+003,1.264724e-001
5.858929e+003,1.245833e-001
5.862787e+003,1.266820e-001
5.866644e+003,1.358121e-001
5.870500e+003,1.369863e-001
5.874358e+003,1.315200e-001
5.878215e+003,1.297423e-001
5.882072e+003,1.279856e-001
5.885929e+003,1.169697e-001
5.889786e+003,1.144168e-001
5.893643e+003,1.193469e-001
5.897500e+003,1.183948e-001
5.901357e+003,1.200994e-001
5.905214e+003,1.236338e-001
5.909072e+003,1.237834e-001
5.912929e+003,1.206297e-001
5.916786e+003,1.154689e-001
5.920643e+003,1.195552e-001
5.924500e+003,1.270503e-001
5.928357e+003,1.326924e-001
5.932214e+003,1.294913e-001
5.936071e+003,1.204658e-001
5.939928e+003,1.183254e-001
5.943786e+003,1.252243e-001
5.947643e+003,1.207073e-001
5.951500e+003,1.105607e-001
5.955357e+003,1.132207e-001
5.959214e+003,1.202469e-001
5.963071e+003,1.233111e-001
5.966928e+003,1.232192e-001
5.970785e+003,1.271238e-001
5.974642e+003,1.262100e-001
5.978500e+003,1.208873e-001
5.982356e+003,1.228239e-001
5.986213e+003,1.126861e-001
5.990071e+003,1.072403e-001
5.993928e+003,1.156286e-001
5.997785e+003,1.240443e-001
6.001642e+003,1.314599e-001
6.005499e+003,1.215507e-001
6.009356e+003,1.214389e-001
6.013213e+003,1.296439e-001
6.017070e+003,1.344897e-001
6.020927e+003,1.322192e-001
6.024785e+003,1.223220e-001
6.028642e+003,1.178769e-001
6.032499e+003,1.218452e-001
6.036356e+003,1.297798e-001
6.040213e+003,1.389505e-001
6.044070e+003,1.267360e-001
6.047927e+003,1.147892e-001
6.051784e+003,1.174812e-001
6.055641e+003,1.201527e-001
6.059499e+003,1.230005e-001
6.063355e+003,1.234959e-001
6.067212e+003,1.188127e-001
6.071070e+003,1.209015e-001
6.074927e+003,1.256192e-001
6.078784e+003,1.205079e-001
6.082641e+003,1.229701e-001
6.086498e+003,1.182348e-001
6.090355e+003,1.175325e-001
6.094212e+003,1.272263e-001
6.098069e+003,1.176672e-001
6.101926e+003,1.150234e-001
6.105784e+003,1.208658e-001
6.109641e+003,1.354666e-001
6.113498e+003,1.312940e-001
6.117355e+003,1.267861e-001
6.121212e+003,1.330192e-001
6.125069e+003,1.339033e-001
6.128926e+003,1.192503e-001
6.132783e+003,1.073123e-001
6.136640e+003,1.112437e-001
6.140498e+003,1.185971e-001
6.144354e+003,1.159968e-001
6.148211e+003,1.172263e-001
6.152069e+003,1.214133e-001
6.155926e+003,1.339742e-001
6.159783e+003,1.292119e-001
6.163640e+003,1.237693e-001
6.167497e+003,1.237933e-001
6.171354e+003,1.244150e-001
6.175211e+003,1.330388e-001
6.179068e+003,1.204952e-001
6.182925e+003,1.110661e-001
6.186783e+003,1.234085e-001
6.190640e+003,1.309884e-001
6.194497e+003,1.260560e-001
6.198354e+003,1.192956e-001
6.202211e+003,1.176710e-001
6.206068e+003,1.082463e-001
6.209925e+003,1.158251e-001
6.213782e+003,1.229740e-001
6.217639e+003,1.157234e-001
6.221497e+003,1.193723e-001
6.225354e+003,1.237501e-001
6.229210e+003,1.173389e-001
6.233068e+003,1.078493e-001
6.236925e+003,1.135143e-001
6.240782e+003,1.217147e-001
6.244639e+003,1.075928e-001
6.248496e+003,1.123755e-001
6.252353e+003,1.253005e-001
6.256210e+003,1.226849e-001
6.260067e+003,1.156388e-001
6.263924e+003,1.277950e-001
6.267782e+003,1.331497e-001
6.271639e+003,1.166875e-001
6.275496e+003,1.174264e-001
6.279353e+003,1.233767e-001
6.283210e+003,1.346006e-001
6.287067e+003,1.356469e-001
6.290924e+003,1.295984e-001
6.294781e+003,1.352397e-001
6.298638e+003,1.279539e-001
6.302496e+003,1.278560e-001
6.306353e+003,1.398218e-001
6.310209e+003,1.267435e-001
6.314067e+003,1.168645e-001
6.317924e+003,1.189560e-001
6.321781e+003,1.177860e-001
6.325638e+003,1.310011e-001
6.329495e+003,1.316894e-001
6.333352e+003,1.191732e-001
6.337209e+003,1.142825e-001
6.341066e+003,1.046559e-001
6.344923e+003,1.136651e-001
6.348780e+003,1.155274e-001
6.352638e+003,1.126638e-001
6.356495e+003,1.139474e-001
6.360352e+003,1.225915e-001
6.364209e+003,1.355096e-001
6.368066e+003,1.470220e-001
6.371923e+003,1.361469e-001
6.375780e+003,1.219241e-001
6.379637e+003,1.133433e-001
6.383494e+003,1.175688e-001
6.387352e+003,1.290118e-001
6.391208e+003,1.238713e-001
6.395065e+003,1.214886e-001
6.398923e+003,1.253552e-001
6.402780e+003,1.279575e-001
6.406637e+003,1.203568e-001
6.410494e+003,1.216509e-001
6.414351e+003,1.217261e-001
6.418208e+003,1.188067e-001
6.422065e+003,1.179787e-001
6.425922e+003,1.122954e-001
6.429779e+003,1.098366e-001
6.433637e+003,1.007091e-001
6.437494e+003,9.242401e-002
6.441351e+003,1.137932e-001
6.445208e+003,1.314662e-001
6.449065e+003,1.228960e-001
6.452922e+003,1.125766e-001
6.456779e+003,1.221100e-001
6.460636e+003,1.172573e-001
6.464493e+003,1.030375e-001
6.468351e+003,1.091620e-001
6.472208e+003,1.090163e-001
6.476064e+003,1.141247e-001
6.479922e+003,1.275398e-001
6.483779e+003,1.204717e-001
6.487636e+003,1.155930e-001
6.491493e+003,1.232991e-001
6.495350e+003,1.265889e-001
6.499207e+003,1.183607e-001
6.503064e+003,1.058682e-001
6.506921e+003,1.069009e-001
6.510778e+003,1.253159e-001
6.514636e+003,1.257608e-001
6.518493e+003,9.603425e-002
6.522350e+003,9.107174e-002
6.526207e+003,1.082213e-001
6.530064e+003,1.297444e-001
6.533921e+003,1.248371e-001
6.537778e+003,1.105179e-001
6.541635e+003,1.022922e-001
6.545492e+003,1.090957e-001
6.549350e+003,1.244461e-001
6.553207e+003,1.226410e-001
6.557063e+003,1.152322e-001
6.560921e+003,1.168552e-001
6.564778e+003,1.242110e-001
6.568635e+003,1.331441e-001
6.572492e+003,1.275956e-001
6.576349e+003,1.159942e-001
6.580206e+003,1.136411e-001
6.584063e+003,1.146950e-001
6.587920e+003,1.104376e-001
6.591777e+003,1.196759e-001
6.595635e+003,1.369162e-001
6.599492e+003,1.344421e-001
6.603349e+003,1.212058e-001
6.607206e+003,1.123369e-001
6.611063e+003,1.195843e-001
6.614920e+003,1.252424e-001
6.618777e+003,1.210863e-001
6.622634e+003,1.233760e-001
6.626491e+003,1.139856e-001
6.630349e+003,1.119785e-001
6.634206e+003,1.338300e-001
6.638063e+003,1.263388e-001
6.641920e+003,1.200231e-001
6.645777e+003,1.267467e-001
6.649634e+003,1.166283e-001
6.653491e+003,1.045406e-001
6.657348e+003,1.054477e-001
6.661205e+003,1.093958e-001
6.665063e+003,1.312852e-001
6.668919e+003,1.514021e-001
6.672776e+003,1.619626e-001
6.676634e+003,1.526454e-001
6.680491e+003,1.343467e-001
6.684348e+003,1.293473e-001
6.688205e+003,1.250416e-001
6.692062e+003,1.257921e-001
6.695919e+003,1.472602e-001
6.699776e+003,1.580867e-001
6.703633e+003,1.417269e-001
6.707490e+003,1.434507e-001
6.711348e+003,1.567039e-001
6.715205e+003,1.234750e-001
6.719062e+003,9.845249e-002
6.722919e+003,1.026697e-001
6.726776e+003,1.324539e-001
6.730633e+003,1.501694e-001
6.734490e+003,1.328988e-001
6.738347e+003,1.176849e-001
6.742204e+003,1.177151e-001
6.746062e+003,1.314894e-001
6.749918e+003,1.284665e-001
6.753775e+003,1.253817e-001
6.757633e+003,1.181210e-001
6.761490e+003,1.325690e-001
6.765347e+003,1.446666e-001
6.769204e+003,1.308854e-001
6.773061e+003,1.276787e-001
6.776918e+003,1.430333e-001
6.780775e+003,1.371091e-001
6.784632e+003,1.343925e-001
6.788489e+003,1.380110e-001
6.792347e+003,1.141772e-001
6.796204e+003,1.074827e-001
6.800061e+003,1.126689e-001
6.803918e+003,1.178473e-001
6.807775e+003,1.204205e-001
6.811632e+003,9.867192e-002
6.815489e+003,9.514610e-002
6.819346e+003,9.853476e-002
6.823203e+003,1.100473e-001
6.827061e+003,1.296086e-001
6.830917e+003,1.389473e-001
6.834774e+003,1.202544e-001
6.838632e+003,1.233439e-001
6.842489e+003,1.406375e-001
6.846346e+003,1.276318e-001
6.850203e+003,1.033244e-001
6.854060e+003,9.840706e-002
6.857917e+003,1.172575e-001
6.861774e+003,1.128625e-001
6.865631e+003,1.266180e-001
6.869488e+003,1.395243e-001
6.873346e+003,1.445246e-001
6.877203e+003,1.371092e-001
6.881060e+003,1.180532e-001
6.884917e+003,1.200461e-001
6.888774e+003,1.264258e-001
6.892631e+003,1.433949e-001
6.896488e+003,1.570785e-001
6.900345e+003,1.324047e-001
6.904202e+003,1.055965e-001
6.908060e+003,1.131846e-001
6.911917e+003,1.305551e-001
6.915773e+003,1.219782e-001
6.919631e+003,1.325020e-001
6.923488e+003,1.440832e-001
6.927345e+003,1.455388e-001
6.931202e+003,1.317402e-001
6.935059e+003,1.258822e-001
6.938916e+003,1.507351e-001
6.942773e+003,1.596764e-001
6.946630e+003,1.414746e-001
6.950487e+003,1.134668e-001
6.954345e+003,1.234435e-001
6.958202e+003,1.333551e-001
6.962059e+003,1.158622e-001
6.965916e+003,1.016077e-001
6.969773e+003,1.003760e-001
6.973630e+003,1.268182e-001
6.977487e+003,1.612923e-001
6.981344e+003,1.783118e-001
6.985201e+003,1.951267e-001
6.989059e+003,1.705140e-001
6.992916e+003,1.370540e-001
6.996772e+003,1.282050e-001
7.000630e+003,1.266923e-001
7.004487e+003,1.276386e-001
7.008344e+003,1.400754e-001
7.012201e+003,1.605335e-001
7.016058e+003,1.517130e-001
7.019915e+003,1.395701e-001
7.023772e+003,1.310074e-001
7.027629e+003,1.306004e-001
7.031486e+003,1.548413e-001
7.035344e+003,1.465650e-001
7.039201e+003,1.295186e-001
7.043058e+003,1.008833e-001
7.046915e+003,1.122181e-001
7.050772e+003,1.152071e-001
7.054629e+003,1.233741e-001
7.058486e+003,1.545061e-001
7.062343e+003,1.683492e-001
7.066200e+003,1.525461e-001
7.070058e+003,1.182699e-001
7.073915e+003,1.065432e-001
7.077771e+003,1.128193e-001
7.081629e+003,1.365423e-001
7.085486e+003,1.570745e-001
7.089343e+003,1.637907e-001
7.093200e+003,1.559853e-001
7.097057e+003,1.312847e-001
7.100914e+003,1.345396e-001
7.104771e+003,1.543858e-001
7.108628e+003,1.668679e-001
7.112485e+003,1.397778e-001
7.116343e+003,1.283051e-001
7.120200e+003,1.648277e-001
7.124057e+003,1.643401e-001
7.127914e+003,1.297697e-001
7.131771e+003,1.279593e-001
7.135628e+003,1.482900e-001
7.139485e+003,1.603032e-001
7.143342e+003,1.528548e-001
7.147199e+003,1.221186e-001
7.151057e+003,1.206326e-001
7.154914e+003,1.480234e-001
7.158771e+003,1.748312e-001
7.162628e+003,1.848373e-001
7.166485e+003,1.836017e-001
7.170342e+003,1.485883e-001
7.174199e+003,1.384043e-001
7.178056e+003,1.726418e-001
7.181913e+003,1.739801e-001
7.185771e+003,1.423553e-001
7.189627e+003,1.544796e-001
7.193484e+003,1.627190e-001
7.197342e+003,1.390769e-001
7.201199e+003,1.418012e-001
7.205056e+003,1.398930e-001
7.208913e+003,1.279610e-001
7.212770e+003,1.205011e-001
7.216627e+003,1.530126e-001
7.220484e+003,1.889562e-001
7.224341e+003,2.001254e-001
7.228198e+003,1.661029e-001
7.232056e+003,1.178152e-001
7.235913e+003,1.051752e-001
7.239770e+003,1.288777e-001
7.243627e+003,1.440232e-001
7.247484e+003,1.753150e-001
7.251341e+003,1.931607e-001
7.255198e+003,1.573931e-001
7.259055e+003,1.302487e-001
7.262912e+003,1.315284e-001
7.266770e+003,1.709874e-001
7.270626e+003,1.867277e-001
7.274483e+003,1.882570e-001
7.278341e+003,1.634353e-001
7.282198e+003,1.545839e-001
7.286055e+003,1.699769e-001
7.289912e+003,1.963010e-001
7.293769e+003,2.002339e-001
7.297626e+003,1.488206e-001
7.301483e+003,1.654805e-001
7.305340e+003,1.635035e-001
7.309197e+003,1.492233e-001
7.313055e+003,1.424282e-001
7.316912e+003,1.355947e-001
7.320769e+003,1.652869e-001
7.324626e+003,1.741524e-001
7.328483e+003,1.393162e-001
7.332340e+003,1.272229e-001
7.336197e+003,1.932770e-001
7.340054e+003,2.099048e-001
7.343911e+003,1.639253e-001
7.347769e+003,1.695430e-001
7.351625e+003,1.766433e-001
7.355482e+003,1.341656e-001
7.359340e+003,1.117971e-001
7.363197e+003,1.081385e-001
7.367054e+003,1.030912e-001
7.370911e+003,1.223272e-001
7.374768e+003,1.562299e-001
7.378625e+003,1.608680e-001
7.382482e+003,1.337306e-001
7.386339e+003,1.368713e-001
7.390196e+003,1.628321e-001
7.394054e+003,1.652300e-001
7.397911e+003,1.269982e-001
7.401768e+003,8.878478e-002
7.405625e+003,7.811290e-002
7.409482e+003,1.320014e-001
7.413339e+003,1.072159e-001
7.417196e+003,7.775375e-002
7.421053e+003,1.146873e-001
7.424910e+003,1.444454e-001
7.428768e+003,1.457873e-001
7.432625e+003,1.741969e-001
7.436481e+003,1.744055e-001
7.440339e+003,1.271015e-001
7.444196e+003,1.007722e-001
7.448053e+003,1.369411e-001
7.451910e+003,1.403790e-001
7.455767e+003,1.603017e-001
7.459624e+003,1.499905e-001
7.463481e+003,1.563047e-001
7.467338e+003,1.572421e-001
7.471195e+003,9.258005e-002
7.475053e+003,1.204044e-001
7.478910e+003,1.688689e-001
7.482767e+003,1.849727e-001
7.486624e+003,1.276945e-001
7.490481e+003,9.550459e-002
7.494338e+003,1.734159e-001
7.498195e+003,2.026268e-001
7.502052e+003,2.060506e-001
7.505909e+003,1.985388e-001
7.509767e+003,1.750643e-001
7.513624e+003,1.578497e-001
7.517480e+003,1.532192e-001
7.521338e+003,2.081750e-001
7.525195e+003,1.999580e-001
7.529052e+003,1.169150e-001
7.532909e+003,1.093022e-001
7.536766e+003,1.604721e-001
7.540623e+003,1.493815e-001
7.544480e+003,1.337372e-001
7.548337e+003,1.398655e-001
7.552194e+003,1.228443e-001
7.556052e+003,1.265253e-001
7.559909e+003,1.207077e-001
7.563766e+003,1.405053e-001
7.567623e+003,1.281835e-001
7.571480e+003,1.309893e-001
7.575337e+003,1.923075e-001
7.579194e+003,1.623322e-001
7.583051e+003,1.232403e-001
7.586908e+003,1.333660e-001
7.590766e+003,1.609937e-001
7.594623e+003,1.552028e-001
7.598479e+003,1.115526e-001
7.602337e+003,1.205879e-001
7.606194e+003,1.987569e-001
7.610051e+003,1.548693e-001
7.613908e+003,1.126736e-001
7.617765e+003,1.135008e-001
7.621622e+003,1.505717e-001
7.625479e+003,2.310479e-001
7.629336e+003,2.172003e-001
7.633193e+003,1.443467e-001
7.637051e+003,6.600814e-002
7.640908e+003,8.944511e-002
7.644765e+003,1.316302e-001
7.648622e+003,1.486203e-001
7.652479e+003,1.146464e-001
7.656336e+003,9.091698e-002
7.660193e+003,1.130329e-001
7.664050e+003,1.361721e-001
7.667907e+003,1.387666e-001
7.671765e+003,1.222933e-001
7.675622e+003,1.089884e-001
7.679479e+003,9.547222e-002
7.683336e+003,1.539461e-001
7.687193e+003,1.882541e-001
7.691050e+003,1.559399e-001
7.694907e+003,1.568223e-001
7.698764e+003,1.605523e-001
7.702621e+003,2.295825e-001
7.706479e+003,3.014014e-001
7.710335e+003,2.312768e-001
7.714192e+003,1.616754e-001
7.718050e+003,1.490757e-001
7.721907e+003,2.187886e-001
7.725764e+003,1.671642e-001
7.729621e+003,9.239031e-002
7.733478e+003,1.366560e-001
7.737335e+003,1.846986e-001
7.741192e+003,1.669602e-001
7.745049e+003,1.697685e-001
7.748906e+003,1.536070e-001
7.752764e+003,1.305597e-001
7.756621e+003,1.730517e-001
7.760478e+003,1.784047e-001
7.764335e+003,1.446538e-001
7.768192e+003,1.240517e-001
7.772049e+003,1.136235e-001
7.775906e+003,1.606779e-001
7.779763e+003,1.797070e-001
7.783620e+003,1.321781e-001
7.787478e+003,1.247328e-001
7.791334e+003,1.952152e-001
7.795191e+003,2.047956e-001
7.799049e+003,1.408280e-001
7.802906e+003,8.209076e-002
7.806763e+003,9.513402e-002
7.810620e+003,1.465752e-001
7.814477e+003,1.368711e-001
7.818334e+003,6.741664e-002
7.822191e+003,1.581701e-002
7.826048e+003,6.488454e-002
7.829905e+003,1.455251e-001
7.833763e+003,1.566136e-001
7.837620e+003,1.318130e-001
7.841477e+003,1.119173e-001
7.845334e+003,1.689715e-001
7.849191e+003,1.201319e-001
7.853048e+003,1.161869e-001
7.856905e+003,1.895303e-001
7.860762e+003,1.577475e-001
7.864619e+003,1.493668e-001
7.868477e+003,1.628310e-001
7.872333e+003,2.034021e-001
7.876190e+003,1.560829e-001
7.880048e+003,1.217222e-001
7.883905e+003,2.263607e-001
7.887762e+003,2.210698e-001
7.891619e+003,1.327860e-001
7.895476e+003,1.202453e-001
7.899333e+003,1.460225e-001
7.903190e+003,1.637375e-001
7.907047e+003,1.122607e-001
7.910904e+003,6.192910e-002
7.914762e+003,1.144352e-001
7.918619e+003,2.135779e-001
7.922476e+003,2.390968e-001
7.926333e+003,1.688353e-001
7.930190e+003,1.287789e-001
7.934047e+003,1.923519e-001
7.937904e+003,1.820624e-001
7.941761e+003,6.470164e-002
7.945618e+003,9.713725e-002
7.949476e+003,1.870183e-001
7.953333e+003,2.767885e-001
7.957189e+003,2.163444e-001
7.961047e+003,1.856329e-001
7.964904e+003,1.526242e-001
7.968761e+003,1.449153e-001
7.972618e+003,2.346347e-001
7.976475e+003,1.976556e-001
7.980332e+003,2.572040e-001
7.984189e+003,2.296231e-001
7.988046e+003,1.828972e-001
7.991903e+003,1.911203e-001
7.995761e+003,1.885207e-001
7.999618e+003,2.766000e-001
