4.011380e+002,-5.398574e-001
4.049951e+002,-3.726052e-001
4.088522e+002,6.000000e+000
4.127093e+002,6.000000e+000
4.165664e+002,-4.587720e-001
4.204235e+002,-9.383825e-001
4.242806e+002,6.000000e+000
4.281377e+002,6.000000e+000
4.319948e+002,1.920794e-001
4.358519e+002,5.577344e-002
4.397090e+002,6.000000e+000
4.435661e+002,6.000000e+000
4.474232e+002,-3.246815e-001
4.512803e+002,1.881389e-001
4.551374e+002,-1.624339e-001
4.589945e+002,6.000000e+000
4.628516e+002,-4.436724e-001
4.667087e+002,6.000000e+000
4.705658e+002,-2.841512e-002
4.744229e+002,-1.203156e+000
4.782800e+002,6.000000e+000
4.821371e+002,6.000000e+000
4.859941e+002,6.000000e+000
4.898513e+002,-2.468106e-002
4.937083e+002,-2.500865e-001
4.975654e+002,6.000000e+000
5.014225e+002,1.084756e+000
5.052796e+002,8.333046e-001
5.091367e+002,4.504536e-002
5.129938e+002,7.016881e-002
5.168509e+002,7.246882e-001
5.207080e+002,6.000000e+000
5.245651e+002,1.093548e+000
5.284222e+002,-5.861428e-002
5.322793e+002,-4.538909e-001
5.361364e+002,6.000000e+000
5.399935e+002,6.000000e+000
5.438506e+002,3.290434e-001
5.477077e+002,-5.007268e-001
5.515648e+002,-2.006779e-001
5.554219e+002,6.000000e+000
5.592790e+002,6.000000e+000
5.631361e+002,6.000000e+000
5.669932e+002,-9.830607e-002
5.708503e+002,-4.160153e-001
5.747074e+002,-6.858385e-001
5.785645e+002,-7.872674e-002
5.824216e+002,-5.654579e-001
5.862787e+002,6.000000e+000
5.901357e+002,6.000000e+000
5.939929e+002,6.000000e+000
5.978499e+002,6.000000e+000
6.017070e+002,6.000000e+000
6.055641e+002,6.000000e+000
6.094212e+002,3.542494e-001
6.132783e+002,-6.001499e-001
6.171354e+002,6.000000e+000
6.209925e+002,6.000000e+000
6.248496e+002,6.000000e+000
6.287067e+002,6.000000e+000
6.325638e+002,-1.198123e+000
6.364209e+002,-4.197609e-001
6.402780e+002,-1.127518e+000
6.441351e+002,-3.158626e-001
6.479922e+002,-1.185087e-002
6.518493e+002,8.355433e-002
6.557064e+002,6.000000e+000
6.595635e+002,6.000000e+000
6.634205e+002,6.000000e+000
6.672777e+002,6.000000e+000
6.711348e+002,6.000000e+000
6.749918e+002,5.811144e-002
6.788490e+002,6.000000e+000
6.827061e+002,1.039995e+000
6.865631e+002,1.468528e+000
6.904203e+002,6.000000e+000
6.942773e+002,-5.724689e-001
6.981344e+002,5.432752e-001
7.019916e+002,6.000000e+000
7.058486e+002,6.000000e+000
7.097057e+002,6.000000e+000
7.135629e+002,6.000000e+000
7.174199e+002,6.000000e+000
7.212770e+002,6.000000e+000
7.251342e+002,6.000000e+000
7.289912e+002,-4.280299e-001
7.328483e+002,6.000000e+000
7.367054e+002,-1.502673e-001
7.405625e+002,-7.319571e-003
7.444196e+002,-5.523241e-001
7.482767e+002,6.000000e+000
7.521338e+002,6.000000e+000
7.559908e+002,4.651146e-001
7.598480e+002,3.327171e-001
7.637051e+002,7.531383e-002
7.675621e+002,6.000000e+000
7.714193e+002,6.000000e+000
7.752764e+002,-3.480060e-001
7.791334e+002,4.000240e-001
7.829905e+002,6.000000e+000
7.868477e+002,6.000000e+000
7.907047e+002,6.000000e+000
7.945618e+002,6.000000e+000
7.984189e+002,6.000000e+000
8.022760e+002,-3.506148e-001
8.061331e+002,1.329449e-003
8.099902e+002,6.000000e+000
8.138473e+002,6.000000e+000
8.177044e+002,6.000000e+000
8.215615e+002,6.000000e+000
8.254186e+002,6.000000e+000
8.292757e+002,7.510095e-001
8.331328e+002,5.923017e-001
8.369899e+002,6.766999e-001
8.408470e+002,6.000000e+000
8.447041e+002,6.000000e+000
8.485612e+002,6.000000e+000
8.524183e+002,6.000000e+000
8.562754e+002,1.888804e+000
8.601324e+002,9.619089e-001
8.639896e+002,1.511075e+000
8.678467e+002,6.000000e+000
8.717037e+002,6.000000e+000
8.755609e+002,1.119489e+000
8.794180e+002,1.177485e+000
8.832750e+002,1.588596e+000
8.871321e+002,1.919866e+000
8.909893e+002,6.000000e+000
8.948463e+002,6.000000e+000
8.987034e+002,1.546377e+000
9.025605e+002,1.745429e+000
9.064176e+002,6.000000e+000
9.102747e+002,1.771367e+000
9.141318e+002,1.556409e+000
9.179889e+002,1.772088e+000
9.218461e+002,2.041677e+000
9.257031e+002,1.602432e+000
9.295602e+002,2.205691e+000
9.334174e+002,6.000000e+000
9.372744e+002,6.000000e+000
9.411315e+002,6.000000e+000
9.449886e+002,6.000000e+000
9.488457e+002,6.000000e+000
9.527028e+002,6.000000e+000
9.565599e+002,2.847309e+000
9.604170e+002,6.000000e+000
9.642740e+002,2.922853e+000
9.681312e+002,2.452964e+000
9.719883e+002,6.000000e+000
9.758453e+002,2.333233e+000
9.797025e+002,2.541807e+000
9.835596e+002,2.163677e+000
9.874166e+002,1.903676e+000
9.912738e+002,1.787882e+000
9.951309e+002,2.092129e+000
9.989879e+002,3.117509e+000
1.002845e+003,2.852915e+000
1.006702e+003,1.792786e+000
1.010559e+003,1.594533e+000
1.014416e+003,1.880518e+000
1.018273e+003,2.497866e+000
1.022130e+003,3.000475e+000
1.025988e+003,1.812927e+000
1.029845e+003,1.602798e+000
1.033702e+003,1.772597e+000
1.037559e+003,1.941831e+000
1.041416e+003,1.764904e+000
1.045273e+003,1.568748e+000
1.049130e+003,1.609631e+000
1.052987e+003,1.640120e+000
1.056844e+003,1.543729e+000
1.060702e+003,1.578650e+000
1.064559e+003,1.636717e+000
1.068416e+003,1.667600e+000
1.072273e+003,1.758980e+000
1.076130e+003,1.682073e+000
1.079987e+003,1.685293e+000
1.083844e+003,1.625952e+000
1.087701e+003,1.586661e+000
1.091558e+003,1.529639e+000
1.095415e+003,1.454439e+000
1.099272e+003,1.530005e+000
1.103130e+003,1.518669e+000
1.106987e+003,1.442639e+000
1.110844e+003,1.416240e+000
1.114701e+003,1.500624e+000
1.118558e+003,1.475487e+000
1.122415e+003,1.419224e+000
1.126272e+003,1.409087e+000
1.130129e+003,1.414067e+000
1.133986e+003,1.408147e+000
1.137843e+003,1.389773e+000
1.141701e+003,1.391809e+000
1.145558e+003,1.457146e+000
1.149415e+003,1.406078e+000
1.153272e+003,1.290461e+000
1.157129e+003,1.262979e+000
1.160986e+003,1.300298e+000
1.164843e+003,1.341479e+000
1.168700e+003,1.339151e+000
1.172557e+003,1.342948e+000
1.176414e+003,1.357670e+000
1.180271e+003,1.375160e+000
1.184129e+003,1.351122e+000
1.187986e+003,1.321004e+000
1.191843e+003,1.316170e+000
1.195700e+003,1.291970e+000
1.199557e+003,1.207185e+000
1.203414e+003,1.149923e+000
1.207271e+003,1.112866e+000
1.211128e+003,1.081553e+000
1.214985e+003,1.042959e+000
1.218842e+003,9.660574e-001
1.222699e+003,8.881236e-001
1.226557e+003,8.106180e-001
1.230414e+003,7.423585e-001
1.234271e+003,6.917544e-001
1.238128e+003,6.540439e-001
1.241985e+003,6.316418e-001
1.245842e+003,5.980447e-001
1.249699e+003,5.648422e-001
1.253556e+003,5.451617e-001
1.257413e+003,5.236319e-001
1.261271e+003,5.118936e-001
1.265128e+003,4.987336e-001
1.268985e+003,4.768870e-001
1.272842e+003,4.632719e-001
1.276699e+003,4.544263e-001
1.280556e+003,4.442268e-001
1.284413e+003,4.365678e-001
1.288270e+003,4.343516e-001
1.292127e+003,4.292119e-001
1.295984e+003,4.184403e-001
1.299841e+003,4.090929e-001
1.303698e+003,4.072898e-001
1.307556e+003,4.044592e-001
1.311413e+003,3.966130e-001
1.315270e+003,3.872151e-001
1.319127e+003,3.793662e-001
1.322984e+003,3.775722e-001
1.326841e+003,3.725339e-001
1.330698e+003,3.644890e-001
1.334555e+003,3.583929e-001
1.338412e+003,3.503962e-001
1.342270e+003,3.443258e-001
1.346127e+003,3.478314e-001
1.349984e+003,3.504637e-001
1.353841e+003,3.503866e-001
1.357698e+003,3.510037e-001
1.361555e+003,3.539499e-001
1.365412e+003,3.594890e-001
1.369269e+003,3.672298e-001
1.373126e+003,3.739065e-001
1.376983e+003,3.757887e-001
1.380840e+003,3.763787e-001
1.384698e+003,3.860530e-001
1.388555e+003,3.995618e-001
1.392412e+003,4.112986e-001
1.396269e+003,4.219021e-001
1.400126e+003,4.356709e-001
1.403983e+003,4.472837e-001
1.407840e+003,4.510820e-001
1.411697e+003,4.501026e-001
1.415554e+003,4.582103e-001
1.419411e+003,4.690071e-001
1.423269e+003,4.742947e-001
1.427126e+003,4.745625e-001
1.430983e+003,4.753234e-001
1.434840e+003,4.793791e-001
1.438697e+003,4.854242e-001
1.442554e+003,4.824343e-001
1.446411e+003,4.714508e-001
1.450268e+003,4.701284e-001
1.454125e+003,4.694187e-001
1.457982e+003,4.601600e-001
1.461839e+003,4.507951e-001
1.465697e+003,4.455805e-001
1.469554e+003,4.481674e-001
1.473411e+003,4.579336e-001
1.477268e+003,4.622005e-001
1.481125e+003,4.645614e-001
1.484982e+003,4.689013e-001
1.488839e+003,4.731646e-001
1.492696e+003,4.789837e-001
1.496553e+003,4.911197e-001
1.500411e+003,4.988988e-001
1.504268e+003,4.975962e-001
1.508125e+003,4.949149e-001
1.511982e+003,4.923078e-001
1.515839e+003,4.901569e-001
1.519696e+003,4.866215e-001
1.523553e+003,4.764377e-001
1.527410e+003,4.673724e-001
1.531267e+003,4.566638e-001
1.535124e+003,4.401108e-001
1.538981e+003,4.307025e-001
1.542839e+003,4.210180e-001
1.546696e+003,4.096525e-001
1.550553e+003,4.025631e-001
1.554410e+003,3.972520e-001
1.558267e+003,3.898501e-001
1.562124e+003,3.837171e-001
1.565981e+003,3.774482e-001
1.569838e+003,3.721461e-001
1.573695e+003,3.734388e-001
1.577552e+003,3.747399e-001
1.581410e+003,3.712868e-001
1.585267e+003,3.700790e-001
1.589124e+003,3.781459e-001
1.592981e+003,3.876181e-001
1.596838e+003,3.973711e-001
1.600695e+003,4.057937e-001
1.604552e+003,4.165384e-001
1.608409e+003,4.326964e-001
1.612266e+003,4.484809e-001
1.616123e+003,4.718143e-001
1.619980e+003,4.914777e-001
1.623838e+003,5.098344e-001
1.627695e+003,5.291461e-001
1.631552e+003,5.386376e-001
1.635409e+003,5.421246e-001
1.639266e+003,5.371715e-001
1.643123e+003,5.337836e-001
1.646980e+003,5.278684e-001
1.650837e+003,5.104808e-001
1.654694e+003,4.942328e-001
1.658551e+003,4.774422e-001
1.662409e+003,4.538344e-001
1.666266e+003,4.350233e-001
1.670123e+003,4.204834e-001
1.673980e+003,4.070089e-001
1.677837e+003,3.940677e-001
1.681694e+003,3.782796e-001
1.685551e+003,3.633252e-001
1.689408e+003,3.531719e-001
1.693265e+003,3.469040e-001
1.697122e+003,3.381866e-001
1.700979e+003,3.301489e-001
1.704837e+003,3.255530e-001
1.708694e+003,3.222056e-001
1.712551e+003,3.176199e-001
1.716408e+003,3.141073e-001
1.720265e+003,3.083965e-001
1.724122e+003,3.021100e-001
1.727979e+003,2.993469e-001
1.731836e+003,2.970622e-001
1.735693e+003,2.925287e-001
1.739550e+003,2.889942e-001
1.743408e+003,2.878844e-001
1.747265e+003,2.867879e-001
1.751122e+003,2.811770e-001
1.754979e+003,2.761632e-001
1.758836e+003,2.758210e-001
1.762693e+003,2.770672e-001
1.766550e+003,2.768424e-001
1.770407e+003,2.764789e-001
1.774264e+003,2.747633e-001
1.778121e+003,2.741272e-001
1.781979e+003,2.712799e-001
1.785836e+003,2.693217e-001
1.789693e+003,2.693165e-001
1.793550e+003,2.682590e-001
1.797407e+003,2.663082e-001
1.801264e+003,2.632417e-001
1.805121e+003,2.615340e-001
1.808978e+003,2.613977e-001
1.812835e+003,2.620180e-001
1.816692e+003,2.615767e-001
1.820549e+003,2.587752e-001
1.824407e+003,2.576252e-001
1.828264e+003,2.572548e-001
1.832121e+003,2.562363e-001
1.835978e+003,2.533647e-001
1.839835e+003,2.496916e-001
1.843692e+003,2.510469e-001
1.847549e+003,2.529026e-001
1.851406e+003,2.500754e-001
1.855263e+003,2.456858e-001
1.859120e+003,2.414999e-001
1.862978e+003,2.410948e-001
1.866835e+003,2.424331e-001
1.870692e+003,2.415720e-001
1.874549e+003,2.393114e-001
1.878406e+003,2.369433e-001
1.882263e+003,2.347593e-001
1.886120e+003,2.327707e-001
1.889977e+003,2.320080e-001
1.893834e+003,2.344602e-001
1.897691e+003,2.323424e-001
1.901548e+003,2.285397e-001
1.905406e+003,2.289236e-001
1.909263e+003,2.295270e-001
1.913120e+003,2.272243e-001
1.916977e+003,2.265065e-001
1.920834e+003,2.292679e-001
1.924691e+003,2.270059e-001
1.928548e+003,2.231140e-001
1.932405e+003,2.236557e-001
1.936262e+003,2.232390e-001
1.940119e+003,2.233894e-001
1.943977e+003,2.220108e-001
1.947834e+003,2.186135e-001
1.951691e+003,2.155999e-001
1.955548e+003,2.166359e-001
1.959405e+003,2.150706e-001
1.963262e+003,2.124273e-001
1.967119e+003,2.120939e-001
1.970976e+003,2.106082e-001
1.974833e+003,2.109106e-001
1.978690e+003,2.096804e-001
1.982547e+003,2.084464e-001
1.986405e+003,2.071141e-001
1.990262e+003,2.053266e-001
1.994119e+003,2.052823e-001
1.997976e+003,2.053929e-001
2.001833e+003,2.034369e-001
2.005690e+003,2.005367e-001
2.009547e+003,1.982055e-001
2.013404e+003,1.965462e-001
2.017261e+003,1.967991e-001
2.021118e+003,1.985285e-001
2.024976e+003,1.982676e-001
2.028833e+003,1.955738e-001
2.032690e+003,1.934134e-001
2.036547e+003,1.922607e-001
2.040404e+003,1.942273e-001
2.044261e+003,1.951700e-001
2.048118e+003,1.941828e-001
2.051975e+003,1.929363e-001
2.055832e+003,1.910994e-001
2.059689e+003,1.892016e-001
2.063546e+003,1.881218e-001
2.067404e+003,1.873852e-001
2.071261e+003,1.878459e-001
2.075118e+003,1.897112e-001
2.078975e+003,1.917007e-001
2.082832e+003,1.916290e-001
2.086689e+003,1.893743e-001
2.090546e+003,1.907656e-001
2.094403e+003,1.912670e-001
2.098260e+003,1.904846e-001
2.102117e+003,1.895916e-001
2.105975e+003,1.890012e-001
2.109832e+003,1.884473e-001
2.113689e+003,1.871779e-001
2.117546e+003,1.875852e-001
2.121403e+003,1.862255e-001
2.125260e+003,1.826300e-001
2.129117e+003,1.827570e-001
2.132974e+003,1.826998e-001
2.136831e+003,1.818134e-001
2.140688e+003,1.824115e-001
2.144545e+003,1.840004e-001
2.148403e+003,1.855781e-001
2.152260e+003,1.848287e-001
2.156117e+003,1.830476e-001
2.159974e+003,1.821729e-001
2.163831e+003,1.838854e-001
2.167688e+003,1.857758e-001
2.171545e+003,1.875867e-001
2.175402e+003,1.878476e-001
2.179259e+003,1.874027e-001
2.183116e+003,1.863405e-001
2.186974e+003,1.864997e-001
2.190831e+003,1.873731e-001
2.194688e+003,1.872717e-001
2.198545e+003,1.877266e-001
2.202402e+003,1.882389e-001
2.206259e+003,1.884502e-001
2.210116e+003,1.881717e-001
2.213973e+003,1.897621e-001
2.217830e+003,1.908503e-001
2.221688e+003,1.901872e-001
2.225544e+003,1.909507e-001
2.229402e+003,1.926460e-001
2.233259e+003,1.921845e-001
2.237116e+003,1.892168e-001
2.240973e+003,1.871933e-001
2.244830e+003,1.891642e-001
2.248687e+003,1.910687e-001
2.252544e+003,1.918539e-001
2.256401e+003,1.910143e-001
2.260258e+003,1.909907e-001
2.264115e+003,1.915547e-001
2.267973e+003,1.918850e-001
2.271830e+003,1.915323e-001
2.275687e+003,1.912764e-001
2.279544e+003,1.917427e-001
2.283401e+003,1.937115e-001
2.287258e+003,1.937720e-001
2.291115e+003,1.943828e-001
2.294972e+003,1.954537e-001
2.298829e+003,1.964580e-001
2.302687e+003,1.967385e-001
2.306543e+003,1.958695e-001
2.310401e+003,1.952726e-001
2.314258e+003,1.959685e-001
2.318115e+003,1.974614e-001
2.321972e+003,1.960625e-001
2.325829e+003,1.923809e-001
2.329686e+003,1.935990e-001
2.333543e+003,1.960238e-001
2.337400e+003,1.964288e-001
2.341257e+003,1.982152e-001
2.345115e+003,1.982336e-001
2.348972e+003,1.954067e-001
2.352829e+003,1.936512e-001
2.356686e+003,1.958812e-001
2.360543e+003,1.949436e-001
2.364400e+003,1.911771e-001
2.368257e+003,1.916448e-001
2.372114e+003,1.952868e-001
2.375971e+003,1.984180e-001
2.379828e+003,1.981792e-001
2.383686e+003,1.966377e-001
2.387542e+003,1.979519e-001
2.391400e+003,1.994020e-001
2.395257e+003,1.978172e-001
2.399114e+003,1.966018e-001
2.402971e+003,1.957148e-001
2.406828e+003,1.967216e-001
2.410685e+003,1.970602e-001
2.414542e+003,1.953978e-001
2.418399e+003,1.950961e-001
2.422256e+003,1.971642e-001
2.426114e+003,1.977314e-001
2.429971e+003,1.976897e-001
2.433828e+003,1.984104e-001
2.437685e+003,1.990380e-001
2.441542e+003,1.987635e-001
2.445399e+003,1.988810e-001
2.449256e+003,1.985430e-001
2.453113e+003,1.982746e-001
2.456970e+003,1.988154e-001
2.460827e+003,2.001948e-001
2.464684e+003,2.024156e-001
2.468542e+003,2.026838e-001
2.472399e+003,1.997633e-001
2.476256e+003,1.978174e-001
2.480113e+003,1.992872e-001
2.483970e+003,2.008748e-001
2.487827e+003,2.043553e-001
2.491684e+003,2.048765e-001
2.495541e+003,1.998374e-001
2.499398e+003,1.974309e-001
2.503255e+003,1.974652e-001
2.507113e+003,1.966387e-001
2.510969e+003,1.954671e-001
2.514827e+003,1.954692e-001
2.518684e+003,1.962845e-001
2.522541e+003,1.974181e-001
2.526398e+003,1.975139e-001
2.530255e+003,1.975239e-001
2.534112e+003,1.995172e-001
2.537969e+003,2.018207e-001
2.541826e+003,2.024403e-001
2.545683e+003,2.033373e-001
2.549541e+003,2.063648e-001
2.553398e+003,2.085995e-001
2.557255e+003,2.100801e-001
2.561112e+003,2.116702e-001
2.564969e+003,2.138492e-001
2.568826e+003,2.164135e-001
2.572683e+003,2.218610e-001
2.576540e+003,2.243842e-001
2.580397e+003,2.244854e-001
2.584254e+003,2.242866e-001
2.588112e+003,2.273286e-001
2.591969e+003,2.281282e-001
2.595826e+003,2.254831e-001
2.599683e+003,2.258125e-001
2.603540e+003,2.273740e-001
2.607397e+003,2.268083e-001
2.611254e+003,2.268133e-001
2.615111e+003,2.289977e-001
2.618968e+003,2.290355e-001
2.622825e+003,2.298344e-001
2.626682e+003,2.310855e-001
2.630540e+003,2.335734e-001
2.634397e+003,2.332495e-001
2.638254e+003,2.307082e-001
2.642111e+003,2.289492e-001
2.645968e+003,2.322712e-001
2.649825e+003,2.381370e-001
2.653682e+003,2.437212e-001
2.657539e+003,2.456324e-001
2.661396e+003,2.466908e-001
2.665253e+003,2.497069e-001
2.669111e+003,2.532527e-001
2.672968e+003,2.569409e-001
2.676825e+003,2.598580e-001
2.680682e+003,2.627419e-001
2.684539e+003,2.666082e-001
2.688396e+003,2.685938e-001
2.692253e+003,2.702700e-001
2.696110e+003,2.734364e-001
2.699967e+003,2.783043e-001
2.703824e+003,2.818913e-001
2.707681e+003,2.818980e-001
2.711539e+003,2.835329e-001
2.715396e+003,2.859859e-001
2.719253e+003,2.881956e-001
2.723110e+003,2.901581e-001
2.726967e+003,2.931863e-001
2.730824e+003,2.933740e-001
2.734681e+003,2.940366e-001
2.738538e+003,2.957732e-001
2.742395e+003,2.968369e-001
2.746252e+003,2.986508e-001
2.750110e+003,3.015809e-001
2.753967e+003,3.049675e-001
2.757824e+003,3.061523e-001
2.761681e+003,3.071436e-001
2.765538e+003,3.071770e-001
2.769395e+003,3.092849e-001
2.773252e+003,3.161987e-001
2.777109e+003,3.209069e-001
2.780966e+003,3.238926e-001
2.784823e+003,3.274450e-001
2.788680e+003,3.280858e-001
2.792538e+003,3.294736e-001
2.796395e+003,3.359363e-001
2.800252e+003,3.430938e-001
2.804109e+003,3.470594e-001
2.807966e+003,3.484844e-001
2.811823e+003,3.524602e-001
2.815680e+003,3.534356e-001
2.819537e+003,3.544128e-001
2.823394e+003,3.619339e-001
2.827251e+003,3.684659e-001
2.831109e+003,3.716624e-001
2.834966e+003,3.720099e-001
2.838823e+003,3.744015e-001
2.842680e+003,3.795667e-001
2.846537e+003,3.820059e-001
2.850394e+003,3.837738e-001
2.854251e+003,3.861702e-001
2.858108e+003,3.895974e-001
2.861965e+003,3.955790e-001
2.865823e+003,3.970835e-001
2.869679e+003,3.998211e-001
2.873537e+003,4.058696e-001
2.877394e+003,4.061606e-001
2.881251e+003,4.078060e-001
2.885108e+003,4.119965e-001
2.888965e+003,4.161977e-001
2.892822e+003,4.161941e-001
2.896679e+003,4.189012e-001
2.900536e+003,4.260422e-001
2.904393e+003,4.271184e-001
2.908250e+003,4.340448e-001
2.912108e+003,4.438337e-001
2.915965e+003,4.485725e-001
2.919822e+003,4.530782e-001
2.923679e+003,4.533458e-001
2.927536e+003,4.524632e-001
2.931393e+003,4.550160e-001
2.935250e+003,4.609726e-001
2.939107e+003,4.719745e-001
2.942964e+003,4.787562e-001
2.946822e+003,4.841469e-001
2.950678e+003,4.873527e-001
2.954536e+003,4.886225e-001
2.958393e+003,4.938827e-001
2.962250e+003,4.966157e-001
2.966107e+003,4.983173e-001
2.969964e+003,5.024253e-001
2.973821e+003,5.054574e-001
2.977678e+003,5.077108e-001
2.981535e+003,5.137019e-001
2.985392e+003,5.193637e-001
2.989250e+003,5.207351e-001
2.993107e+003,5.198484e-001
2.996964e+003,5.233192e-001
3.000821e+003,5.290753e-001
3.004678e+003,5.353500e-001
3.008535e+003,5.393721e-001
3.012392e+003,5.395265e-001
3.016249e+003,5.462613e-001
3.020106e+003,5.526474e-001
3.023963e+003,5.601675e-001
3.027821e+003,5.653287e-001
3.031677e+003,5.696371e-001
3.035535e+003,5.731886e-001
3.039392e+003,5.792519e-001
3.043249e+003,5.823781e-001
3.047106e+003,5.832090e-001
3.050963e+003,5.906751e-001
3.054820e+003,5.983502e-001
3.058677e+003,6.031483e-001
3.062534e+003,6.081987e-001
3.066391e+003,6.141987e-001
3.070249e+003,6.176895e-001
3.074106e+003,6.236097e-001
3.077963e+003,6.272212e-001
3.081820e+003,6.345005e-001
3.085677e+003,6.408661e-001
3.089534e+003,6.456681e-001
3.093391e+003,6.487921e-001
3.097248e+003,6.551270e-001
3.101105e+003,6.654466e-001
3.104962e+003,6.726242e-001
3.108820e+003,6.805431e-001
3.112677e+003,6.862294e-001
3.116534e+003,6.871466e-001
3.120391e+003,6.905328e-001
3.124248e+003,6.916783e-001
3.128105e+003,6.940125e-001
3.131962e+003,6.989853e-001
3.135819e+003,7.036456e-001
3.139676e+003,7.055961e-001
3.143533e+003,7.136364e-001
3.147390e+003,7.231683e-001
3.151248e+003,7.293910e-001
3.155105e+003,7.322435e-001
3.158962e+003,7.408225e-001
3.162819e+003,7.483547e-001
3.166676e+003,7.517467e-001
3.170533e+003,7.544658e-001
3.174390e+003,7.629043e-001
3.178247e+003,7.730483e-001
3.182104e+003,7.801725e-001
3.185961e+003,7.854354e-001
3.189819e+003,7.989786e-001
3.193676e+003,7.947937e-001
3.197533e+003,7.919723e-001
3.201390e+003,8.066311e-001
3.205247e+003,8.150140e-001
3.209104e+003,8.117442e-001
3.212961e+003,8.098680e-001
3.216818e+003,8.234600e-001
3.220675e+003,8.400499e-001
3.224532e+003,8.492704e-001
3.228389e+003,8.523860e-001
3.232247e+003,8.482600e-001
3.236104e+003,8.522772e-001
3.239961e+003,8.617457e-001
3.243818e+003,8.642793e-001
3.247675e+003,8.643722e-001
3.251532e+003,8.750469e-001
3.255389e+003,8.766779e-001
3.259246e+003,8.712710e-001
3.263103e+003,8.780059e-001
3.266960e+003,8.832459e-001
3.270818e+003,8.809696e-001
3.274675e+003,8.860208e-001
3.278532e+003,8.938800e-001
3.282389e+003,8.938034e-001
3.286246e+003,8.973317e-001
3.290103e+003,9.029030e-001
3.293960e+003,9.126924e-001
3.297817e+003,9.238125e-001
3.301674e+003,9.211345e-001
3.305531e+003,9.156759e-001
3.309388e+003,9.165878e-001
3.313246e+003,9.234882e-001
3.317103e+003,9.341425e-001
3.320960e+003,9.418867e-001
3.324817e+003,9.528007e-001
3.328674e+003,9.580992e-001
3.332531e+003,9.595538e-001
3.336388e+003,9.721703e-001
3.340245e+003,9.754881e-001
3.344102e+003,9.788746e-001
3.347959e+003,9.804438e-001
3.351817e+003,9.865572e-001
3.355674e+003,1.006393e+000
3.359531e+003,1.000971e+000
3.363388e+003,9.880331e-001
3.367245e+003,9.948903e-001
3.371102e+003,1.003204e+000
3.374959e+003,1.002969e+000
3.378816e+003,1.005113e+000
3.382673e+003,1.034681e+000
3.386530e+003,1.053114e+000
3.390387e+003,1.042815e+000
3.394245e+003,1.027386e+000
3.398102e+003,1.034106e+000
3.401959e+003,1.046679e+000
3.405816e+003,1.056725e+000
3.409673e+003,1.058541e+000
3.413530e+003,1.055849e+000
3.417387e+003,1.063243e+000
3.421244e+003,1.052814e+000
3.425101e+003,1.041360e+000
3.428958e+003,1.065504e+000
3.432815e+003,1.085663e+000
3.436673e+003,1.066878e+000
3.440530e+003,1.057672e+000
3.444387e+003,1.060943e+000
3.448244e+003,1.060452e+000
3.452101e+003,1.071016e+000
3.455958e+003,1.089384e+000
3.459815e+003,1.072686e+000
3.463672e+003,1.063717e+000
3.467529e+003,1.073831e+000
3.471386e+003,1.076468e+000
3.475244e+003,1.079677e+000
3.479101e+003,1.068473e+000
3.482958e+003,1.078450e+000
3.486815e+003,1.095949e+000
3.490672e+003,1.089863e+000
3.494529e+003,1.093977e+000
3.498386e+003,1.103379e+000
3.502243e+003,1.097555e+000
3.506100e+003,1.102422e+000
3.509958e+003,1.089393e+000
3.513814e+003,1.075478e+000
3.517672e+003,1.082083e+000
3.521529e+003,1.087389e+000
3.525386e+003,1.086461e+000
3.529243e+003,1.095138e+000
3.533100e+003,1.107857e+000
3.536957e+003,1.110908e+000
3.540814e+003,1.103017e+000
3.544671e+003,1.092640e+000
3.548528e+003,1.089472e+000
3.552385e+003,1.063839e+000
3.556243e+003,1.058436e+000
3.560100e+003,1.065368e+000
3.563957e+003,1.067557e+000
3.567814e+003,1.041432e+000
3.571671e+003,1.028550e+000
3.575528e+003,1.042049e+000
3.579385e+003,1.033928e+000
3.583242e+003,1.022267e+000
3.587099e+003,1.006437e+000
3.590957e+003,9.808379e-001
3.594813e+003,9.552931e-001
3.598671e+003,9.268579e-001
3.602528e+003,9.096277e-001
3.606385e+003,8.810645e-001
3.610242e+003,8.426801e-001
3.614099e+003,8.123915e-001
3.617956e+003,7.842018e-001
3.621813e+003,7.478741e-001
3.625670e+003,7.088761e-001
3.629527e+003,6.715078e-001
3.633385e+003,6.345282e-001
3.637242e+003,5.989489e-001
3.641099e+003,5.701044e-001
3.644956e+003,5.355373e-001
3.648813e+003,5.013531e-001
3.652670e+003,4.741088e-001
3.656527e+003,4.466187e-001
3.660384e+003,4.161640e-001
3.664241e+003,3.915546e-001
3.668098e+003,3.708754e-001
3.671956e+003,3.476854e-001
3.675813e+003,3.253709e-001
3.679670e+003,3.023575e-001
3.683527e+003,2.754903e-001
3.687384e+003,2.539960e-001
3.691241e+003,2.407127e-001
3.695098e+003,2.298150e-001
3.698955e+003,2.168616e-001
3.702812e+003,2.048487e-001
3.706669e+003,1.957683e-001
3.710526e+003,1.875763e-001
3.714384e+003,1.791446e-001
3.718241e+003,1.726143e-001
3.722098e+003,1.664641e-001
3.725955e+003,1.591052e-001
3.729812e+003,1.521560e-001
3.733669e+003,1.487937e-001
3.737526e+003,1.453821e-001
3.741383e+003,1.460449e-001
3.745240e+003,1.450166e-001
3.749097e+003,1.423798e-001
3.752955e+003,1.422811e-001
3.756812e+003,1.448237e-001
3.760669e+003,1.429130e-001
3.764526e+003,1.412155e-001
3.768383e+003,1.418318e-001
3.772240e+003,1.411453e-001
3.776097e+003,1.426034e-001
3.779954e+003,1.428261e-001
3.783811e+003,1.399265e-001
3.787668e+003,1.380420e-001
3.791525e+003,1.398489e-001
3.795383e+003,1.390925e-001
3.799240e+003,1.381871e-001
3.803097e+003,1.363575e-001
3.806954e+003,1.337562e-001
3.810811e+003,1.334414e-001
3.814668e+003,1.320136e-001
3.818525e+003,1.291844e-001
3.822382e+003,1.276011e-001
3.826239e+003,1.275862e-001
3.830096e+003,1.262703e-001
3.833954e+003,1.246716e-001
3.837811e+003,1.260313e-001
3.841668e+003,1.271928e-001
3.845525e+003,1.250115e-001
3.849382e+003,1.245983e-001
3.853239e+003,1.226334e-001
3.857096e+003,1.183905e-001
3.860953e+003,1.205417e-001
3.864810e+003,1.220707e-001
3.868667e+003,1.231368e-001
3.872524e+003,1.237624e-001
3.876382e+003,1.222711e-001
3.880239e+003,1.225673e-001
3.884096e+003,1.227169e-001
3.887953e+003,1.209661e-001
3.891810e+003,1.200548e-001
3.895667e+003,1.250177e-001
3.899524e+003,1.285328e-001
3.903381e+003,1.266893e-001
3.907238e+003,1.266613e-001
3.911095e+003,1.266733e-001
3.914953e+003,1.256895e-001
3.918810e+003,1.225559e-001
3.922667e+003,1.181209e-001
3.926524e+003,1.202485e-001
3.930381e+003,1.248890e-001
3.934238e+003,1.261254e-001
3.938095e+003,1.242328e-001
3.941952e+003,1.203053e-001
3.945809e+003,1.176962e-001
3.949667e+003,1.192051e-001
3.953523e+003,1.170185e-001
3.957381e+003,1.141898e-001
3.961238e+003,1.114902e-001
3.965095e+003,1.101438e-001
3.968952e+003,1.114957e-001
3.972809e+003,1.142914e-001
3.976666e+003,1.117138e-001
3.980523e+003,1.092192e-001
3.984380e+003,1.082049e-001
3.988237e+003,1.080787e-001
3.992094e+003,1.089301e-001
3.995952e+003,1.097398e-001
3.999809e+003,1.133471e-001
4.003666e+003,1.130061e-001
4.007523e+003,1.114613e-001
4.011380e+003,1.103277e-001
4.015237e+003,1.076093e-001
4.019094e+003,1.106526e-001
4.022951e+003,1.128312e-001
4.026808e+003,1.128392e-001
4.030666e+003,1.131410e-001
4.034522e+003,1.093839e-001
4.038380e+003,1.075584e-001
4.042237e+003,1.083506e-001
4.046094e+003,1.096003e-001
4.049951e+003,1.122270e-001
4.053808e+003,1.125719e-001
4.057665e+003,1.104031e-001
4.061522e+003,1.040806e-001
4.065379e+003,1.039409e-001
4.069236e+003,1.072175e-001
4.073094e+003,1.067750e-001
4.076951e+003,1.050634e-001
4.080808e+003,1.057577e-001
4.084665e+003,1.058107e-001
4.088522e+003,1.054946e-001
4.092379e+003,1.063023e-001
4.096236e+003,1.058818e-001
4.100093e+003,1.036563e-001
4.103950e+003,1.015189e-001
4.107808e+003,1.017668e-001
4.111665e+003,1.013299e-001
4.115521e+003,1.013659e-001
4.119379e+003,1.004943e-001
4.123236e+003,9.889659e-002
4.127093e+003,9.800137e-002
4.130950e+003,9.531175e-002
4.134807e+003,9.350500e-002
4.138664e+003,9.455421e-002
4.142521e+003,9.505405e-002
4.146378e+003,9.667429e-002
4.150235e+003,9.637816e-002
4.154093e+003,9.691304e-002
4.157950e+003,9.896225e-002
4.161807e+003,9.948157e-002
4.165664e+003,1.000531e-001
4.169521e+003,9.719398e-002
4.173378e+003,9.737982e-002
4.177235e+003,1.033284e-001
4.181092e+003,1.052082e-001
4.184949e+003,1.003822e-001
4.188807e+003,9.612235e-002
4.192664e+003,9.260683e-002
4.196521e+003,9.469704e-002
4.200378e+003,9.714027e-002
4.204235e+003,9.660814e-002
4.208092e+003,9.604744e-002
4.211949e+003,9.437147e-002
4.215806e+003,9.601429e-002
4.219663e+003,9.691830e-002
4.223521e+003,9.465387e-002
4.227377e+003,9.353758e-002
4.231234e+003,9.306227e-002
4.235092e+003,9.381944e-002
4.238949e+003,9.285833e-002
4.242806e+003,9.264526e-002
4.246663e+003,8.867236e-002
4.250520e+003,8.587237e-002
4.254377e+003,8.950635e-002
4.258234e+003,9.006438e-002
4.262091e+003,8.822390e-002
4.265948e+003,9.087785e-002
4.269806e+003,9.518484e-002
4.273663e+003,9.246861e-002
4.277520e+003,8.889789e-002
4.281377e+003,8.950627e-002
4.285234e+003,9.147792e-002
4.289091e+003,9.089594e-002
4.292948e+003,9.186909e-002
4.296805e+003,9.239228e-002
4.300662e+003,9.051475e-002
4.304520e+003,8.679895e-002
4.308376e+003,8.781507e-002
4.312233e+003,9.412781e-002
4.316091e+003,9.905189e-002
4.319948e+003,9.526669e-002
4.323805e+003,9.385378e-002
4.327662e+003,9.627877e-002
4.331519e+003,9.906217e-002
4.335376e+003,9.972937e-002
4.339233e+003,9.738396e-002
4.343090e+003,9.351280e-002
4.346947e+003,9.272052e-002
4.350805e+003,9.217075e-002
4.354662e+003,9.210078e-002
4.358519e+003,9.170135e-002
4.362376e+003,9.081013e-002
4.366233e+003,8.972698e-002
4.370090e+003,8.732547e-002
4.373947e+003,8.403744e-002
4.377804e+003,8.450148e-002
4.381661e+003,8.853157e-002
4.385519e+003,8.825065e-002
4.389375e+003,8.908444e-002
4.393232e+003,9.049667e-002
4.397090e+003,9.100779e-002
4.400947e+003,9.035937e-002
4.404804e+003,9.147444e-002
4.408661e+003,8.922537e-002
4.412518e+003,8.949259e-002
4.416375e+003,9.315071e-002
4.420232e+003,9.426031e-002
4.424089e+003,9.626848e-002
4.427946e+003,9.898721e-002
4.431804e+003,1.034599e-001
4.435661e+003,1.048326e-001
4.439518e+003,1.014532e-001
4.443375e+003,1.026086e-001
4.447232e+003,1.039854e-001
4.451089e+003,1.049992e-001
4.454946e+003,1.028140e-001
4.458803e+003,1.004034e-001
4.462660e+003,1.008229e-001
4.466518e+003,1.001968e-001
4.470375e+003,9.710141e-002
4.474231e+003,9.608965e-002
4.478089e+003,9.870299e-002
4.481946e+003,9.822070e-002
4.485803e+003,1.002569e-001
4.489660e+003,1.014428e-001
4.493517e+003,9.375870e-002
4.497375e+003,9.288812e-002
4.501231e+003,9.974667e-002
4.505088e+003,9.581611e-002
4.508946e+003,8.973540e-002
4.512803e+003,8.995741e-002
4.516660e+003,9.187806e-002
4.520517e+003,9.152456e-002
4.524374e+003,8.977488e-002
4.528231e+003,8.945745e-002
4.532088e+003,9.505578e-002
4.535945e+003,9.830894e-002
4.539802e+003,9.541357e-002
4.543660e+003,9.234199e-002
4.547517e+003,9.199262e-002
4.551374e+003,9.371693e-002
4.555231e+003,9.645607e-002
4.559088e+003,9.657822e-002
4.562945e+003,9.666572e-002
4.566802e+003,9.934443e-002
4.570659e+003,1.016787e-001
4.574516e+003,1.002385e-001
4.578374e+003,1.023991e-001
4.582230e+003,1.016411e-001
4.586087e+003,9.821559e-002
4.589945e+003,9.694041e-002
4.593802e+003,9.510024e-002
4.597659e+003,9.318553e-002
4.601516e+003,9.738981e-002
4.605373e+003,1.048762e-001
4.609230e+003,1.053389e-001
4.613087e+003,1.018953e-001
4.616944e+003,1.008153e-001
4.620801e+003,1.003728e-001
4.624659e+003,9.799286e-002
4.628516e+003,9.753027e-002
4.632373e+003,1.028635e-001
4.636230e+003,1.021118e-001
4.640087e+003,9.549105e-002
4.643944e+003,9.715428e-002
4.647801e+003,9.517271e-002
4.651658e+003,9.055948e-002
4.655515e+003,9.140082e-002
4.659373e+003,9.527548e-002
4.663229e+003,9.872474e-002
4.667086e+003,1.006379e-001
4.670944e+003,1.034566e-001
4.674801e+003,1.053158e-001
4.678658e+003,1.073546e-001
4.682515e+003,1.058450e-001
4.686372e+003,1.023502e-001
4.690229e+003,1.031363e-001
4.694086e+003,1.057275e-001
4.697943e+003,1.099680e-001
4.701800e+003,1.107306e-001
4.705658e+003,1.076335e-001
4.709515e+003,1.092121e-001
4.713372e+003,1.061960e-001
4.717229e+003,1.071446e-001
4.721086e+003,1.113477e-001
4.724943e+003,1.118034e-001
4.728800e+003,1.110718e-001
4.732657e+003,1.152995e-001
4.736514e+003,1.123727e-001
4.740372e+003,1.126053e-001
4.744229e+003,1.155832e-001
4.748085e+003,1.111978e-001
4.751943e+003,1.083158e-001
4.755800e+003,1.055249e-001
4.759657e+003,1.007195e-001
4.763514e+003,1.032490e-001
4.767371e+003,1.075659e-001
4.771228e+003,1.074789e-001
4.775085e+003,1.083489e-001
4.778942e+003,1.069113e-001
4.782799e+003,1.061576e-001
4.786657e+003,1.082142e-001
4.790514e+003,1.095619e-001
4.794371e+003,1.079243e-001
4.798228e+003,1.092284e-001
4.802085e+003,1.118612e-001
4.805942e+003,1.135816e-001
4.809799e+003,1.158470e-001
4.813656e+003,1.205156e-001
4.817513e+003,1.156019e-001
4.821371e+003,1.109096e-001
4.825228e+003,1.159028e-001
4.829084e+003,1.229369e-001
4.832942e+003,1.249565e-001
4.836799e+003,1.234242e-001
4.840656e+003,1.212791e-001
4.844513e+003,1.175878e-001
4.848370e+003,1.188411e-001
4.852227e+003,1.208510e-001
4.856084e+003,1.215576e-001
4.859941e+003,1.219005e-001
4.863798e+003,1.196473e-001
4.867656e+003,1.209546e-001
4.871513e+003,1.218328e-001
4.875370e+003,1.179831e-001
4.879227e+003,1.193507e-001
4.883084e+003,1.201855e-001
4.886941e+003,1.193569e-001
4.890798e+003,1.269656e-001
4.894655e+003,1.271910e-001
4.898512e+003,1.200983e-001
4.902370e+003,1.168569e-001
4.906227e+003,1.147190e-001
4.910083e+003,1.149253e-001
4.913941e+003,1.162447e-001
4.917798e+003,1.185392e-001
4.921655e+003,1.220673e-001
4.925512e+003,1.202835e-001
4.929369e+003,1.211425e-001
4.933226e+003,1.205974e-001
4.937083e+003,1.242318e-001
4.940940e+003,1.293621e-001
4.944797e+003,1.309909e-001
4.948655e+003,1.273360e-001
4.952512e+003,1.267795e-001
4.956369e+003,1.284560e-001
4.960226e+003,1.314169e-001
4.964083e+003,1.320938e-001
4.967940e+003,1.297289e-001
4.971797e+003,1.316472e-001
4.975654e+003,1.339430e-001
4.979511e+003,1.313993e-001
4.983369e+003,1.261139e-001
4.987226e+003,1.219506e-001
4.991083e+003,1.245446e-001
4.994940e+003,1.242944e-001
4.998797e+003,1.228366e-001
5.002654e+003,1.262635e-001
5.006511e+003,1.260411e-001
5.010368e+003,1.204819e-001
5.014225e+003,1.188201e-001
5.018083e+003,1.238535e-001
5.021939e+003,1.287661e-001
5.025796e+003,1.258539e-001
5.029654e+003,1.228756e-001
5.033511e+003,1.326923e-001
5.037368e+003,1.321582e-001
5.041225e+003,1.262496e-001
5.045082e+003,1.324794e-001
5.048939e+003,1.389150e-001
5.052796e+003,1.395386e-001
5.056653e+003,1.436424e-001
5.060510e+003,1.481422e-001
5.064368e+003,1.462087e-001
5.068225e+003,1.451557e-001
5.072082e+003,1.457408e-001
5.075939e+003,1.433508e-001
5.079796e+003,1.454413e-001
5.083653e+003,1.468511e-001
5.087510e+003,1.446194e-001
5.091367e+003,1.444590e-001
5.095224e+003,1.418657e-001
5.099082e+003,1.396831e-001
5.102938e+003,1.456848e-001
5.106795e+003,1.509139e-001
5.110653e+003,1.429592e-001
5.114510e+003,1.405047e-001
5.118367e+003,1.408951e-001
5.122224e+003,1.432157e-001
5.126081e+003,1.466233e-001
5.129938e+003,1.429359e-001
5.133795e+003,1.392070e-001
5.137652e+003,1.397711e-001
5.141509e+003,1.408896e-001
5.145367e+003,1.317757e-001
5.149224e+003,1.301036e-001
5.153081e+003,1.380507e-001
5.156938e+003,1.401335e-001
5.160795e+003,1.455553e-001
5.164652e+003,1.439620e-001
5.168509e+003,1.373241e-001
5.172366e+003,1.439790e-001
5.176223e+003,1.540646e-001
5.180081e+003,1.541592e-001
5.183938e+003,1.502097e-001
5.187794e+003,1.479961e-001
5.191652e+003,1.551591e-001
5.195509e+003,1.539470e-001
5.199366e+003,1.490344e-001
5.203223e+003,1.506748e-001
5.207080e+003,1.533007e-001
5.210937e+003,1.578384e-001
5.214794e+003,1.592182e-001
5.218651e+003,1.606031e-001
5.222508e+003,1.603007e-001
5.226366e+003,1.538260e-001
5.230223e+003,1.508685e-001
5.234080e+003,1.457707e-001
5.237937e+003,1.449993e-001
5.241794e+003,1.457696e-001
5.245651e+003,1.415425e-001
5.249508e+003,1.405014e-001
5.253365e+003,1.407108e-001
5.257222e+003,1.465138e-001
5.261080e+003,1.494364e-001
5.264937e+003,1.453443e-001
5.268793e+003,1.430072e-001
5.272651e+003,1.380638e-001
5.276508e+003,1.418933e-001
5.280365e+003,1.494832e-001
5.284222e+003,1.512975e-001
5.288079e+003,1.493023e-001
5.291936e+003,1.431355e-001
5.295793e+003,1.442130e-001
5.299650e+003,1.472927e-001
5.303507e+003,1.441596e-001
5.307365e+003,1.492471e-001
5.311222e+003,1.549949e-001
5.315079e+003,1.466980e-001
5.318936e+003,1.505045e-001
5.322793e+003,1.578817e-001
5.326650e+003,1.547877e-001
5.330507e+003,1.483254e-001
5.334364e+003,1.501521e-001
5.338221e+003,1.461771e-001
5.342079e+003,1.378099e-001
5.345936e+003,1.466645e-001
5.349792e+003,1.498173e-001
5.353650e+003,1.474049e-001
5.357507e+003,1.492659e-001
5.361364e+003,1.504110e-001
5.365221e+003,1.513495e-001
5.369078e+003,1.542369e-001
5.372935e+003,1.498914e-001
5.376792e+003,1.461948e-001
5.380649e+003,1.537910e-001
5.384506e+003,1.534153e-001
5.388364e+003,1.472870e-001
5.392221e+003,1.414438e-001
5.396078e+003,1.378025e-001
5.399935e+003,1.396164e-001
5.403792e+003,1.406368e-001
5.407649e+003,1.409586e-001
5.411506e+003,1.455094e-001
5.415363e+003,1.508270e-001
5.419220e+003,1.494893e-001
5.423078e+003,1.496700e-001
5.426935e+003,1.486798e-001
5.430792e+003,1.484415e-001
5.434649e+003,1.515885e-001
5.438506e+003,1.531953e-001
5.442363e+003,1.551302e-001
5.446220e+003,1.519260e-001
5.450077e+003,1.500906e-001
5.453934e+003,1.492091e-001
5.457792e+003,1.483382e-001
5.461648e+003,1.487073e-001
5.465505e+003,1.529091e-001
5.469363e+003,1.612564e-001
5.473220e+003,1.584849e-001
5.477077e+003,1.510377e-001
5.480934e+003,1.576353e-001
5.484791e+003,1.557531e-001
5.488648e+003,1.496773e-001
5.492505e+003,1.491423e-001
5.496362e+003,1.496185e-001
5.500219e+003,1.489991e-001
5.504077e+003,1.491679e-001
5.507934e+003,1.506592e-001
5.511791e+003,1.453955e-001
5.515648e+003,1.418364e-001
5.519505e+003,1.492554e-001
5.523362e+003,1.551986e-001
5.527219e+003,1.483138e-001
5.531076e+003,1.360428e-001
5.534933e+003,1.265809e-001
5.538791e+003,1.256074e-001
5.542647e+003,1.355657e-001
5.546504e+003,1.434405e-001
5.550362e+003,1.389616e-001
5.554219e+003,1.346252e-001
5.558076e+003,1.345521e-001
5.561933e+003,1.399218e-001
5.565790e+003,1.443855e-001
5.569647e+003,1.478772e-001
5.573504e+003,1.509694e-001
5.577361e+003,1.540798e-001
5.581218e+003,1.527092e-001
5.585076e+003,1.441868e-001
5.588933e+003,1.413186e-001
5.592790e+003,1.428588e-001
5.596647e+003,1.472985e-001
5.600504e+003,1.435249e-001
5.604361e+003,1.453723e-001
5.608218e+003,1.435466e-001
5.612075e+003,1.367113e-001
5.615932e+003,1.408615e-001
5.619790e+003,1.468143e-001
5.623646e+003,1.512227e-001
5.627503e+003,1.521209e-001
5.631361e+003,1.541943e-001
5.635218e+003,1.516927e-001
5.639075e+003,1.397126e-001
5.642932e+003,1.336713e-001
5.646789e+003,1.354199e-001
5.650646e+003,1.401045e-001
5.654503e+003,1.438407e-001
5.658360e+003,1.495284e-001
5.662217e+003,1.494049e-001
5.666075e+003,1.452332e-001
5.669932e+003,1.415854e-001
5.673789e+003,1.362038e-001
5.677646e+003,1.346512e-001
5.681503e+003,1.352200e-001
5.685360e+003,1.376916e-001
5.689217e+003,1.374410e-001
5.693074e+003,1.350660e-001
5.696931e+003,1.351317e-001
5.700789e+003,1.394150e-001
5.704646e+003,1.388288e-001
5.708502e+003,1.435013e-001
5.712360e+003,1.447485e-001
5.716217e+003,1.460718e-001
5.720074e+003,1.455497e-001
5.723931e+003,1.431909e-001
5.727788e+003,1.438913e-001
5.731645e+003,1.458712e-001
5.735502e+003,1.475928e-001
5.739359e+003,1.447051e-001
5.743216e+003,1.423236e-001
5.747074e+003,1.399457e-001
5.750931e+003,1.349637e-001
5.754788e+003,1.400046e-001
5.758645e+003,1.420429e-001
5.762502e+003,1.394989e-001
5.766359e+003,1.364752e-001
5.770216e+003,1.297811e-001
5.774073e+003,1.258316e-001
5.777930e+003,1.265944e-001
5.781788e+003,1.300753e-001
5.785645e+003,1.393922e-001
5.789501e+003,1.432546e-001
5.793359e+003,1.321519e-001
5.797216e+003,1.225238e-001
5.801073e+003,1.270534e-001
5.804930e+003,1.321903e-001
5.808787e+003,1.344580e-001
5.812644e+003,1.344567e-001
5.816501e+003,1.326111e-001
5.820358e+003,1.305587e-001
5.824215e+003,1.239912e-001
5.828073e+003,1.280071e-001
5.831930e+003,1.335554e-001
5.835787e+003,1.331960e-001
5.839644e+003,1.379873e-001
5.843501e+003,1.370658e-001
5.847358e+003,1.325679e-001
5.851215e+003,1.243914e-001
5.855072e+003,1.201227e-001
5.858929e+003,1.192641e-001
5.862787e+003,1.248094e-001
5.866644e+003,1.344466e-001
5.870500e+003,1.340178e-001
5.874358e+003,1.294884e-001
5.878215e+003,1.237749e-001
5.882072e+003,1.324193e-001
5.885929e+003,1.352360e-001
5.889786e+003,1.334567e-001
5.893643e+003,1.366209e-001
5.897500e+003,1.352600e-001
5.901357e+003,1.323358e-001
5.905214e+003,1.365216e-001
5.909072e+003,1.314716e-001
5.912929e+003,1.232513e-001
5.916786e+003,1.188924e-001
5.920643e+003,1.171478e-001
5.924500e+003,1.184371e-001
5.928357e+003,1.179451e-001
5.932214e+003,1.128575e-001
5.936071e+003,1.109821e-001
5.939928e+003,1.153303e-001
5.943786e+003,1.225894e-001
5.947643e+003,1.269194e-001
5.951500e+003,1.234796e-001
5.955357e+003,1.144174e-001
5.959214e+003,1.143864e-001
5.963071e+003,1.174862e-001
5.966928e+003,1.174511e-001
5.970785e+003,1.271308e-001
5.974642e+003,1.358255e-001
5.978500e+003,1.234134e-001
5.982356e+003,1.186818e-001
5.986213e+003,1.251455e-001
5.990071e+003,1.279991e-001
5.993928e+003,1.273394e-001
5.997785e+003,1.270170e-001
6.001642e+003,1.262363e-001
6.005499e+003,1.158380e-001
6.009356e+003,1.143684e-001
6.013213e+003,1.217745e-001
6.017070e+003,1.224324e-001
6.020927e+003,1.170323e-001
6.024785e+003,1.256040e-001
6.028642e+003,1.309953e-001
6.032499e+003,1.195157e-001
6.036356e+003,1.125289e-001
6.040213e+003,1.076936e-001
6.044070e+003,1.068570e-001
6.047927e+003,1.130444e-001
6.051784e+003,1.117229e-001
6.055641e+003,1.144974e-001
6.059499e+003,1.209378e-001
6.063355e+003,1.157728e-001
6.067212e+003,1.224248e-001
6.071070e+003,1.261451e-001
6.074927e+003,1.181372e-001
6.078784e+003,1.162423e-001
6.082641e+003,1.241032e-001
6.086498e+003,1.220214e-001
6.090355e+003,1.232725e-001
6.094212e+003,1.234054e-001
6.098069e+003,1.163105e-001
6.101926e+003,1.084038e-001
6.105784e+003,1.060382e-001
6.109641e+003,1.103102e-001
6.113498e+003,1.191555e-001
6.117355e+003,1.298151e-001
6.121212e+003,1.269202e-001
6.125069e+003,1.136202e-001
6.128926e+003,1.054234e-001
6.132783e+003,1.062089e-001
6.136640e+003,1.048385e-001
6.140498e+003,1.010171e-001
6.144354e+003,1.053740e-001
6.148211e+003,1.057638e-001
6.152069e+003,1.109538e-001
6.155926e+003,1.169083e-001
6.159783e+003,1.127745e-001
6.163640e+003,1.081608e-001
6.167497e+003,1.140382e-001
6.171354e+003,1.193891e-001
6.175211e+003,1.087858e-001
6.179068e+003,1.093647e-001
6.182925e+003,1.045933e-001
6.186783e+003,9.570920e-002
6.190640e+003,9.800561e-002
6.194497e+003,9.815066e-002
6.198354e+003,8.994983e-002
6.202211e+003,9.537956e-002
6.206068e+003,1.043237e-001
6.209925e+003,1.010645e-001
6.213782e+003,1.030666e-001
6.217639e+003,1.023554e-001
6.221497e+003,9.817260e-002
6.225354e+003,1.003858e-001
6.229210e+003,1.040412e-001
6.233068e+003,1.064838e-001
6.236925e+003,1.088758e-001
6.240782e+003,1.168251e-001
6.244639e+003,1.192055e-001
6.248496e+003,1.130110e-001
6.252353e+003,1.034579e-001
6.256210e+003,1.006843e-001
6.260067e+003,1.085978e-001
6.263924e+003,1.213372e-001
6.267782e+003,1.201681e-001
6.271639e+003,1.079354e-001
6.275496e+003,1.031784e-001
6.279353e+003,1.107236e-001
6.283210e+003,1.165398e-001
6.287067e+003,1.097572e-001
6.290924e+003,1.036828e-001
6.294781e+003,1.040659e-001
6.298638e+003,1.141202e-001
6.302496e+003,1.151977e-001
6.306353e+003,1.085524e-001
6.310209e+003,1.155680e-001
6.314067e+003,1.125652e-001
6.317924e+003,1.048384e-001
6.321781e+003,1.040385e-001
6.325638e+003,1.019326e-001
6.329495e+003,1.027305e-001
6.333352e+003,1.006217e-001
6.337209e+003,8.633184e-002
6.341066e+003,7.973772e-002
6.344923e+003,9.233437e-002
6.348780e+003,1.043600e-001
6.352638e+003,1.097665e-001
6.356495e+003,9.657247e-002
6.360352e+003,1.011754e-001
6.364209e+003,1.128645e-001
6.368066e+003,9.664121e-002
6.371923e+003,8.426966e-002
6.375780e+003,9.202165e-002
6.379637e+003,1.011203e-001
6.383494e+003,1.062527e-001
6.387352e+003,1.120170e-001
6.391208e+003,1.099166e-001
6.395065e+003,1.041396e-001
6.398923e+003,9.596969e-002
6.402780e+003,9.604190e-002
6.406637e+003,1.038228e-001
6.410494e+003,1.053841e-001
6.414351e+003,1.155120e-001
6.418208e+003,1.140214e-001
6.422065e+003,1.047604e-001
6.425922e+003,9.793473e-002
6.429779e+003,1.032414e-001
6.433637e+003,1.068155e-001
6.437494e+003,1.130214e-001
6.441351e+003,1.127350e-001
6.445208e+003,1.074936e-001
6.449065e+003,9.985440e-002
6.452922e+003,1.102960e-001
6.456779e+003,1.110779e-001
6.460636e+003,1.027556e-001
6.464493e+003,9.950677e-002
6.468351e+003,1.002649e-001
6.472208e+003,1.081169e-001
6.476064e+003,1.074497e-001
6.479922e+003,8.750879e-002
6.483779e+003,7.710651e-002
6.487636e+003,1.011737e-001
6.491493e+003,1.185985e-001
6.495350e+003,1.060478e-001
6.499207e+003,9.109639e-002
6.503064e+003,8.386313e-002
6.506921e+003,7.873876e-002
6.510778e+003,8.819609e-002
6.514636e+003,1.086228e-001
6.518493e+003,1.204550e-001
6.522350e+003,1.207212e-001
6.526207e+003,1.154105e-001
6.530064e+003,1.094953e-001
6.533921e+003,1.085747e-001
6.537778e+003,1.264861e-001
6.541635e+003,1.264478e-001
6.545492e+003,1.146482e-001
6.549350e+003,1.171491e-001
6.553207e+003,1.170680e-001
6.557063e+003,1.054007e-001
6.560921e+003,9.695938e-002
6.564778e+003,1.018747e-001
6.568635e+003,1.083372e-001
6.572492e+003,1.071174e-001
6.576349e+003,1.139731e-001
6.580206e+003,1.040680e-001
6.584063e+003,8.801560e-002
6.587920e+003,9.418136e-002
6.591777e+003,1.004058e-001
6.595635e+003,9.233879e-002
6.599492e+003,9.811296e-002
6.603349e+003,1.005976e-001
6.607206e+003,1.086264e-001
6.611063e+003,1.141554e-001
6.614920e+003,1.110185e-001
6.618777e+003,1.088824e-001
6.622634e+003,9.958136e-002
6.626491e+003,1.009584e-001
6.630349e+003,1.102761e-001
6.634206e+003,1.143322e-001
6.638063e+003,1.164665e-001
6.641920e+003,1.155647e-001
6.645777e+003,1.059180e-001
6.649634e+003,9.819905e-002
6.653491e+003,1.041828e-001
6.657348e+003,1.089457e-001
6.661205e+003,1.230969e-001
6.665063e+003,1.172678e-001
6.668919e+003,1.035334e-001
6.672776e+003,9.022549e-002
6.676634e+003,9.850079e-002
6.680491e+003,1.012995e-001
6.684348e+003,9.358551e-002
6.688205e+003,9.990153e-002
6.692062e+003,1.159311e-001
6.695919e+003,1.056543e-001
6.699776e+003,8.948758e-002
6.703633e+003,1.074444e-001
6.707490e+003,1.180395e-001
6.711348e+003,1.069323e-001
6.715205e+003,1.072436e-001
6.719062e+003,9.540862e-002
6.722919e+003,9.244155e-002
6.726776e+003,1.003861e-001
6.730633e+003,1.024660e-001
6.734490e+003,1.022751e-001
6.738347e+003,1.027731e-001
6.742204e+003,1.022338e-001
6.746062e+003,9.446857e-002
6.749918e+003,1.071040e-001
6.753775e+003,1.254034e-001
6.757633e+003,1.136454e-001
6.761490e+003,1.036336e-001
6.765347e+003,1.056328e-001
6.769204e+003,1.054172e-001
6.773061e+003,1.153927e-001
6.776918e+003,1.239970e-001
6.780775e+003,1.185571e-001
6.784632e+003,1.112968e-001
6.788489e+003,9.989185e-002
6.792347e+003,8.864009e-002
6.796204e+003,7.114792e-002
6.800061e+003,8.125777e-002
6.803918e+003,1.087585e-001
6.807775e+003,1.262375e-001
6.811632e+003,1.234429e-001
6.815489e+003,1.072984e-001
6.819346e+003,1.080134e-001
6.823203e+003,1.210155e-001
6.827061e+003,1.282505e-001
6.830917e+003,1.204873e-001
6.834774e+003,1.184929e-001
6.838632e+003,1.098143e-001
6.842489e+003,1.075026e-001
6.846346e+003,9.924669e-002
6.850203e+003,9.859412e-002
6.854060e+003,9.482811e-002
6.857917e+003,9.926710e-002
6.861774e+003,1.072173e-001
6.865631e+003,1.091249e-001
6.869488e+003,1.004355e-001
6.873346e+003,1.093110e-001
6.877203e+003,1.078937e-001
6.881060e+003,1.029664e-001
6.884917e+003,1.050666e-001
6.888774e+003,1.075382e-001
6.892631e+003,1.215554e-001
6.896488e+003,1.250911e-001
6.900345e+003,1.233428e-001
6.904202e+003,1.291352e-001
6.908060e+003,1.275055e-001
6.911917e+003,1.133757e-001
6.915773e+003,1.102260e-001
6.919631e+003,1.260835e-001
6.923488e+003,1.230733e-001
6.927345e+003,1.298323e-001
6.931202e+003,1.327616e-001
6.935059e+003,1.119521e-001
6.938916e+003,1.256958e-001
6.942773e+003,1.458520e-001
6.946630e+003,1.422227e-001
6.950487e+003,1.293645e-001
6.954345e+003,1.326044e-001
6.958202e+003,1.314045e-001
6.962059e+003,1.113067e-001
6.965916e+003,9.870283e-002
6.969773e+003,1.108112e-001
6.973630e+003,1.337234e-001
6.977487e+003,1.123427e-001
6.981344e+003,9.101785e-002
6.985201e+003,1.076979e-001
6.989059e+003,1.332567e-001
6.992916e+003,1.277784e-001
6.996772e+003,1.273537e-001
7.000630e+003,1.316861e-001
7.004487e+003,1.166186e-001
7.008344e+003,1.108849e-001
7.012201e+003,1.285281e-001
7.016058e+003,1.431765e-001
7.019915e+003,1.260557e-001
7.023772e+003,1.109373e-001
7.027629e+003,1.102717e-001
7.031486e+003,1.233481e-001
7.035344e+003,1.205072e-001
7.039201e+003,1.399834e-001
7.043058e+003,1.632710e-001
7.046915e+003,1.520208e-001
7.050772e+003,1.381527e-001
7.054629e+003,1.343003e-001
7.058486e+003,1.362136e-001
7.062343e+003,1.262122e-001
7.066200e+003,1.210768e-001
7.070058e+003,1.163038e-001
7.073915e+003,1.204692e-001
7.077771e+003,1.195415e-001
7.081629e+003,1.154161e-001
7.085486e+003,1.235465e-001
7.089343e+003,1.379519e-001
7.093200e+003,1.306816e-001
7.097057e+003,1.320782e-001
7.100914e+003,1.439125e-001
7.104771e+003,1.513652e-001
7.108628e+003,1.635022e-001
7.112485e+003,1.505162e-001
7.116343e+003,1.078122e-001
7.120200e+003,8.818963e-002
7.124057e+003,1.137721e-001
7.127914e+003,1.191797e-001
7.131771e+003,1.121280e-001
7.135628e+003,1.213376e-001
7.139485e+003,1.339922e-001
7.143342e+003,1.335324e-001
7.147199e+003,1.204087e-001
7.151057e+003,1.165888e-001
7.154914e+003,1.394857e-001
7.158771e+003,1.740870e-001
7.162628e+003,1.654927e-001
7.166485e+003,1.737577e-001
7.170342e+003,1.675246e-001
7.174199e+003,1.749407e-001
7.178056e+003,1.611990e-001
7.181913e+003,1.628655e-001
7.185771e+003,1.875106e-001
7.189627e+003,1.589881e-001
7.193484e+003,1.347414e-001
7.197342e+003,1.573844e-001
7.201199e+003,1.581835e-001
7.205056e+003,1.520086e-001
7.208913e+003,1.407537e-001
7.212770e+003,1.353828e-001
7.216627e+003,1.239027e-001
7.220484e+003,1.436849e-001
7.224341e+003,1.536521e-001
7.228198e+003,1.270220e-001
7.232056e+003,1.274122e-001
7.235913e+003,1.224718e-001
7.239770e+003,1.242428e-001
7.243627e+003,1.462305e-001
7.247484e+003,1.537964e-001
7.251341e+003,1.421289e-001
7.255198e+003,1.445044e-001
7.259055e+003,1.425885e-001
7.262912e+003,1.512804e-001
7.266770e+003,1.748019e-001
7.270626e+003,1.702424e-001
7.274483e+003,1.566212e-001
7.278341e+003,1.317056e-001
7.282198e+003,1.092507e-001
7.286055e+003,1.048637e-001
7.289912e+003,1.460889e-001
7.293769e+003,1.929595e-001
7.297626e+003,1.823279e-001
7.301483e+003,1.436025e-001
7.305340e+003,1.382364e-001
7.309197e+003,1.681101e-001
7.313055e+003,1.857363e-001
7.316912e+003,1.621242e-001
7.320769e+003,1.671747e-001
7.324626e+003,1.354287e-001
7.328483e+003,1.282687e-001
7.332340e+003,1.566891e-001
7.336197e+003,1.690254e-001
7.340054e+003,1.906265e-001
7.343911e+003,1.747895e-001
7.347769e+003,1.547536e-001
7.351625e+003,1.839322e-001
7.355482e+003,1.730352e-001
7.359340e+003,1.390774e-001
7.363197e+003,1.564985e-001
7.367054e+003,1.611456e-001
7.370911e+003,1.235977e-001
7.374768e+003,1.331159e-001
7.378625e+003,1.816523e-001
7.382482e+003,1.920300e-001
7.386339e+003,1.475298e-001
7.390196e+003,1.572191e-001
7.394054e+003,1.426805e-001
7.397911e+003,1.333082e-001
7.401768e+003,1.635411e-001
7.405625e+003,1.471625e-001
7.409482e+003,9.954848e-002
7.413339e+003,1.327653e-001
7.417196e+003,1.600197e-001
7.421053e+003,1.484995e-001
7.424910e+003,1.901423e-001
7.428768e+003,2.046625e-001
7.432625e+003,1.839981e-001
7.436481e+003,1.690799e-001
7.440339e+003,1.371271e-001
7.444196e+003,1.355947e-001
7.448053e+003,1.434090e-001
7.451910e+003,1.403855e-001
7.455767e+003,1.105488e-001
7.459624e+003,1.224808e-001
7.463481e+003,1.412186e-001
7.467338e+003,1.290389e-001
7.471195e+003,1.619500e-001
7.475053e+003,1.881316e-001
7.478910e+003,1.461250e-001
7.482767e+003,1.079501e-001
7.486624e+003,1.357117e-001
7.490481e+003,1.235026e-001
7.494338e+003,1.381727e-001
7.498195e+003,1.702594e-001
7.502052e+003,1.546415e-001
7.505909e+003,1.465164e-001
7.509767e+003,1.167504e-001
7.513624e+003,1.133907e-001
7.517480e+003,1.319671e-001
7.521338e+003,1.314646e-001
7.525195e+003,1.217652e-001
7.529052e+003,1.579369e-001
7.532909e+003,1.956010e-001
7.536766e+003,2.131065e-001
7.540623e+003,2.364120e-001
7.544480e+003,1.932667e-001
7.548337e+003,1.614714e-001
7.552194e+003,1.746882e-001
7.556052e+003,1.779661e-001
7.559909e+003,1.330473e-001
7.563766e+003,1.106796e-001
7.567623e+003,1.445079e-001
7.571480e+003,1.430007e-001
7.575337e+003,1.481514e-001
7.579194e+003,1.288062e-001
7.583051e+003,1.573979e-001
7.586908e+003,1.913585e-001
7.590766e+003,1.771853e-001
7.594623e+003,1.264201e-001
7.598479e+003,1.751773e-001
7.602337e+003,2.372518e-001
7.606194e+003,2.329755e-001
7.610051e+003,2.056091e-001
7.613908e+003,1.519077e-001
7.617765e+003,1.305582e-001
7.621622e+003,1.231909e-001
7.625479e+003,1.659989e-001
7.629336e+003,1.276423e-001
7.633193e+003,9.285177e-002
7.637051e+003,1.217797e-001
7.640908e+003,1.391738e-001
7.644765e+003,1.116232e-001
7.648622e+003,1.247282e-001
7.652479e+003,1.296247e-001
7.656336e+003,1.422986e-001
7.660193e+003,1.445970e-001
7.664050e+003,1.168944e-001
7.667907e+003,1.682070e-001
7.671765e+003,1.909330e-001
7.675622e+003,1.671019e-001
7.679479e+003,1.477608e-001
7.683336e+003,1.266461e-001
7.687193e+003,9.991896e-002
7.691050e+003,8.050713e-002
7.694907e+003,1.224811e-001
7.698764e+003,1.898073e-001
7.702621e+003,1.861334e-001
7.706479e+003,1.566591e-001
7.710335e+003,1.296796e-001
7.714192e+003,9.451124e-002
7.718050e+003,9.961236e-002
7.721907e+003,1.689985e-001
7.725764e+003,1.657804e-001
7.729621e+003,1.353710e-001
7.733478e+003,1.586476e-001
7.737335e+003,1.587206e-001
7.741192e+003,1.060099e-001
7.745049e+003,6.878297e-002
7.748906e+003,1.297998e-001
7.752764e+003,1.409837e-001
7.756621e+003,1.501722e-001
7.760478e+003,1.983184e-001
7.764335e+003,2.120898e-001
7.768192e+003,1.741540e-001
7.772049e+003,1.581068e-001
7.775906e+003,1.493894e-001
7.779763e+003,1.328949e-001
7.783620e+003,1.463617e-001
7.787478e+003,1.391348e-001
7.791334e+003,2.023058e-001
7.795191e+003,2.845816e-001
7.799049e+003,2.118736e-001
7.802906e+003,1.027580e-001
7.806763e+003,6.858709e-002
7.810620e+003,7.720339e-002
7.814477e+003,1.174908e-001
7.818334e+003,1.282283e-001
7.822191e+003,1.393441e-001
7.826048e+003,1.744849e-001
7.829905e+003,1.770865e-001
7.833763e+003,1.839898e-001
7.837620e+003,1.488685e-001
7.841477e+003,1.164247e-001
7.845334e+003,1.086153e-001
7.849191e+003,4.762951e-002
7.853048e+003,2.754049e-002
7.856905e+003,1.359827e-001
7.860762e+003,1.967615e-001
7.864619e+003,1.837647e-001
7.868477e+003,1.963241e-001
7.872333e+003,1.780116e-001
7.876190e+003,2.268071e-001
7.880048e+003,2.497561e-001
7.883905e+003,1.865122e-001
7.887762e+003,9.016403e-002
7.891619e+003,9.399368e-002
7.895476e+003,2.115175e-001
7.899333e+003,2.105996e-001
7.903190e+003,1.663873e-001
7.907047e+003,8.861767e-002
7.910904e+003,2.482208e-002
7.914762e+003,9.236658e-002
7.918619e+003,1.883515e-001
7.922476e+003,2.083128e-001
7.926333e+003,2.059466e-001
7.930190e+003,2.561332e-001
7.934047e+003,2.495096e-001
7.937904e+003,2.077329e-001
7.941761e+003,2.104452e-001
7.945618e+003,1.708054e-001
7.949476e+003,1.347042e-001
7.953333e+003,1.700968e-001
7.957189e+003,1.769188e-001
7.961047e+003,1.958224e-001
7.964904e+003,1.896683e-001
7.968761e+003,1.560359e-001
7.972618e+003,1.205804e-001
7.976475e+003,1.155688e-001
7.980332e+003,1.245169e-001
7.984189e+003,1.530192e-001
7.988046e+003,1.457351e-001
7.991903e+003,1.165130e-001
7.995761e+003,9.045431e-002
7.999618e+003,1.089415e-001
