4.011380e+002,6.000000e+000
4.049951e+002,6.000000e+000
4.088522e+002,6.000000e+000
4.127093e+002,6.000000e+000
4.165664e+002,6.000000e+000
4.204235e+002,6.000000e+000
4.242806e+002,-1.520986e+000
4.281377e+002,6.000000e+000
4.319948e+002,6.000000e+000
4.358519e+002,6.000000e+000
4.397090e+002,-7.419311e-001
4.435661e+002,6.000000e+000
4.474232e+002,6.000000e+000
4.512803e+002,6.003865e-001
4.551374e+002,6.000000e+000
4.589945e+002,6.000000e+000
4.628516e+002,6.000000e+000
4.667087e+002,1.913042e-001
4.705658e+002,3.988497e-002
4.744229e+002,1.290535e+000
4.782800e+002,6.000000e+000
4.821371e+002,6.000000e+000
4.859941e+002,5.161353e-001
4.898513e+002,2.201877e-001
4.937083e+002,1.550619e+000
4.975654e+002,-3.485252e-002
5.014225e+002,6.000000e+000
5.052796e+002,6.000000e+000
5.091367e+002,3.530438e-001
5.129938e+002,8.576373e-002
5.168509e+002,1.091901e+000
5.207080e+002,6.000000e+000
5.245651e+002,6.000000e+000
5.284222e+002,-5.239418e-001
5.322793e+002,1.591550e+000
5.361364e+002,-9.218547e-001
5.399935e+002,-3.011275e-001
5.438506e+002,6.000000e+000
5.477077e+002,6.000000e+000
5.515648e+002,-7.196574e-001
5.554219e+002,-1.549485e+000
5.592790e+002,-3.861332e-001
5.631361e+002,-1.494092e-003
5.669932e+002,3.667291e-001
5.708503e+002,2.601224e-001
5.747074e+002,4.487581e-001
5.785645e+002,6.000000e+000
5.824216e+002,6.000000e+000
5.862787e+002,9.227799e-001
5.901357e+002,6.000000e+000
5.939929e+002,6.000000e+000
5.978499e+002,6.000000e+000
6.017070e+002,6.000000e+000
6.055641e+002,6.000000e+000
6.094212e+002,6.000000e+000
6.132783e+002,3.538140e-001
6.171354e+002,6.538724e-001
6.209925e+002,6.000000e+000
6.248496e+002,6.000000e+000
6.287067e+002,-3.875320e-001
6.325638e+002,6.000000e+000
6.364209e+002,6.000000e+000
6.402780e+002,6.000000e+000
6.441351e+002,6.000000e+000
6.479922e+002,6.000000e+000
6.518493e+002,6.000000e+000
6.557064e+002,6.000000e+000
6.595635e+002,-2.038739e-001
6.634205e+002,6.000000e+000
6.672777e+002,6.000000e+000
6.711348e+002,6.000000e+000
6.749918e+002,1.625282e-001
6.788490e+002,7.907286e-003
6.827061e+002,-5.745016e-003
6.865631e+002,-1.931216e-001
6.904203e+002,8.166737e-001
6.942773e+002,1.975005e+000
6.981344e+002,6.000000e+000
7.019916e+002,6.000000e+000
7.058486e+002,2.401435e-001
7.097057e+002,1.861933e-001
7.135629e+002,6.000000e+000
7.174199e+002,6.000000e+000
7.212770e+002,6.000000e+000
7.251342e+002,6.000000e+000
7.289912e+002,6.000000e+000
7.328483e+002,6.020460e-002
7.367054e+002,1.088615e-001
7.405625e+002,1.727148e-001
7.444196e+002,6.000000e+000
7.482767e+002,6.000000e+000
7.521338e+002,6.000000e+000
7.559908e+002,6.000000e+000
7.598480e+002,4.952388e-001
7.637051e+002,1.609377e-001
7.675621e+002,3.003622e-001
7.714193e+002,1.595411e-001
7.752764e+002,-1.426909e+000
7.791334e+002,6.000000e+000
7.829905e+002,6.000000e+000
7.868477e+002,6.000000e+000
7.907047e+002,-1.767255e-001
7.945618e+002,-2.864885e-002
7.984189e+002,1.175546e+000
8.022760e+002,3.945965e-001
8.061331e+002,-2.828192e-001
8.099902e+002,8.121570e-002
8.138473e+002,6.012087e-001
8.177044e+002,1.294348e+000
8.215615e+002,6.000000e+000
8.254186e+002,6.000000e+000
8.292757e+002,6.000000e+000
8.331328e+002,6.000000e+000
8.369899e+002,9.725180e-001
8.408470e+002,1.388170e+000
8.447041e+002,7.208056e-001
8.485612e+002,4.069546e-001
8.524183e+002,4.740592e-001
8.562754e+002,9.256430e-001
8.601324e+002,6.000000e+000
8.639896e+002,6.000000e+000
8.678467e+002,1.233014e+000
8.717037e+002,1.265503e+000
8.755609e+002,1.511062e+000
8.794180e+002,1.209752e+000
8.832750e+002,1.191918e+000
8.871321e+002,1.292606e+000
8.909893e+002,1.275931e+000
8.948463e+002,2.575648e+000
8.987034e+002,6.000000e+000
9.025605e+002,6.000000e+000
9.064176e+002,6.000000e+000
9.102747e+002,1.596117e+000
9.141318e+002,1.533599e+000
9.179889e+002,1.714858e+000
9.218461e+002,1.297585e+000
9.257031e+002,1.516797e+000
9.295602e+002,1.623097e+000
9.334174e+002,1.320081e+000
9.372744e+002,1.382215e+000
9.411315e+002,1.750059e+000
9.449886e+002,1.696047e+000
9.488457e+002,1.629972e+000
9.527028e+002,2.583118e+000
9.565599e+002,3.578541e+000
9.604170e+002,2.025294e+000
9.642740e+002,1.773851e+000
9.681312e+002,1.698020e+000
9.719883e+002,1.860249e+000
9.758453e+002,1.977215e+000
9.797025e+002,6.000000e+000
9.835596e+002,6.000000e+000
9.874166e+002,1.935527e+000
9.912738e+002,1.834806e+000
9.951309e+002,1.968723e+000
9.989879e+002,2.048899e+000
1.002845e+003,2.046037e+000
1.006702e+003,2.221290e+000
1.010559e+003,2.267418e+000
1.014416e+003,1.880628e+000
1.018273e+003,1.760048e+000
1.022130e+003,1.936921e+000
1.025988e+003,2.005759e+000
1.029845e+003,1.804143e+000
1.033702e+003,1.682994e+000
1.037559e+003,1.646296e+000
1.041416e+003,1.575283e+000
1.045273e+003,1.436573e+000
1.049130e+003,1.355854e+000
1.052987e+003,1.438354e+000
1.056844e+003,1.507724e+000
1.060702e+003,1.448168e+000
1.064559e+003,1.368949e+000
1.068416e+003,1.444676e+000
1.072273e+003,1.496935e+000
1.076130e+003,1.452132e+000
1.079987e+003,1.377121e+000
1.083844e+003,1.401444e+000
1.087701e+003,1.416970e+000
1.091558e+003,1.424879e+000
1.095415e+003,1.418047e+000
1.099272e+003,1.323198e+000
1.103130e+003,1.233590e+000
1.106987e+003,1.219213e+000
1.110844e+003,1.265969e+000
1.114701e+003,1.243521e+000
1.118558e+003,1.219391e+000
1.122415e+003,1.200643e+000
1.126272e+003,1.139471e+000
1.130129e+003,1.134473e+000
1.133986e+003,1.128143e+000
1.137843e+003,1.091490e+000
1.141701e+003,1.066417e+000
1.145558e+003,1.074172e+000
1.149415e+003,1.108971e+000
1.153272e+003,1.096977e+000
1.157129e+003,1.063101e+000
1.160986e+003,1.041197e+000
1.164843e+003,1.018467e+000
1.168700e+003,1.005340e+000
1.172557e+003,9.771252e-001
1.176414e+003,9.622688e-001
1.180271e+003,9.749677e-001
1.184129e+003,9.891957e-001
1.187986e+003,9.583502e-001
1.191843e+003,9.458762e-001
1.195700e+003,9.578061e-001
1.199557e+003,9.588027e-001
1.203414e+003,9.497478e-001
1.207271e+003,9.234579e-001
1.211128e+003,8.905398e-001
1.214985e+003,8.590022e-001
1.218842e+003,8.258817e-001
1.222699e+003,7.758782e-001
1.226557e+003,7.359771e-001
1.230414e+003,7.094730e-001
1.234271e+003,6.838637e-001
1.238128e+003,6.617962e-001
1.241985e+003,6.378601e-001
1.245842e+003,6.082456e-001
1.249699e+003,5.816364e-001
1.253556e+003,5.548577e-001
1.257413e+003,5.313624e-001
1.261271e+003,5.179899e-001
1.265128e+003,5.027575e-001
1.268985e+003,4.799838e-001
1.272842e+003,4.657839e-001
1.276699e+003,4.569974e-001
1.280556e+003,4.428472e-001
1.284413e+003,4.293229e-001
1.288270e+003,4.168345e-001
1.292127e+003,4.109964e-001
1.295984e+003,4.058360e-001
1.299841e+003,3.920825e-001
1.303698e+003,3.800141e-001
1.307556e+003,3.707658e-001
1.311413e+003,3.632320e-001
1.315270e+003,3.557208e-001
1.319127e+003,3.500064e-001
1.322984e+003,3.449410e-001
1.326841e+003,3.397403e-001
1.330698e+003,3.353697e-001
1.334555e+003,3.341612e-001
1.338412e+003,3.310581e-001
1.342270e+003,3.219523e-001
1.346127e+003,3.185274e-001
1.349984e+003,3.152552e-001
1.353841e+003,3.130685e-001
1.357698e+003,3.138587e-001
1.361555e+003,3.174115e-001
1.365412e+003,3.154209e-001
1.369269e+003,3.128173e-001
1.373126e+003,3.179676e-001
1.376983e+003,3.272874e-001
1.380840e+003,3.329450e-001
1.384698e+003,3.383125e-001
1.388555e+003,3.471206e-001
1.392412e+003,3.527980e-001
1.396269e+003,3.569366e-001
1.400126e+003,3.643991e-001
1.403983e+003,3.745103e-001
1.407840e+003,3.802817e-001
1.411697e+003,3.914052e-001
1.415554e+003,4.037621e-001
1.419411e+003,4.054863e-001
1.423269e+003,4.029105e-001
1.427126e+003,4.093808e-001
1.430983e+003,4.174588e-001
1.434840e+003,4.144282e-001
1.438697e+003,4.108213e-001
1.442554e+003,4.090169e-001
1.446411e+003,4.072269e-001
1.450268e+003,4.035984e-001
1.454125e+003,3.969275e-001
1.457982e+003,3.926136e-001
1.461839e+003,3.892567e-001
1.465697e+003,3.842968e-001
1.469554e+003,3.818874e-001
1.473411e+003,3.803356e-001
1.477268e+003,3.792378e-001
1.481125e+003,3.824489e-001
1.484982e+003,3.906468e-001
1.488839e+003,3.995534e-001
1.492696e+003,4.037696e-001
1.496553e+003,4.097475e-001
1.500411e+003,4.201210e-001
1.504268e+003,4.264402e-001
1.508125e+003,4.303847e-001
1.511982e+003,4.286931e-001
1.515839e+003,4.214835e-001
1.519696e+003,4.183054e-001
1.523553e+003,4.178000e-001
1.527410e+003,4.123926e-001
1.531267e+003,4.072131e-001
1.535124e+003,4.025598e-001
1.538981e+003,3.955157e-001
1.542839e+003,3.846437e-001
1.546696e+003,3.755266e-001
1.550553e+003,3.684693e-001
1.554410e+003,3.605171e-001
1.558267e+003,3.531618e-001
1.562124e+003,3.444857e-001
1.565981e+003,3.357848e-001
1.569838e+003,3.343635e-001
1.573695e+003,3.329188e-001
1.577552e+003,3.330040e-001
1.581410e+003,3.331483e-001
1.585267e+003,3.308999e-001
1.589124e+003,3.295795e-001
1.592981e+003,3.318814e-001
1.596838e+003,3.356271e-001
1.600695e+003,3.406625e-001
1.604552e+003,3.521940e-001
1.608409e+003,3.629615e-001
1.612266e+003,3.726907e-001
1.616123e+003,3.862841e-001
1.619980e+003,4.043469e-001
1.623838e+003,4.193210e-001
1.627695e+003,4.312692e-001
1.631552e+003,4.391090e-001
1.635409e+003,4.447288e-001
1.639266e+003,4.463433e-001
1.643123e+003,4.489709e-001
1.646980e+003,4.486850e-001
1.650837e+003,4.438925e-001
1.654694e+003,4.365172e-001
1.658551e+003,4.266005e-001
1.662409e+003,4.171621e-001
1.666266e+003,4.070784e-001
1.670123e+003,3.932795e-001
1.673980e+003,3.799772e-001
1.677837e+003,3.708131e-001
1.681694e+003,3.627200e-001
1.685551e+003,3.518871e-001
1.689408e+003,3.420834e-001
1.693265e+003,3.342031e-001
1.697122e+003,3.276905e-001
1.700979e+003,3.229829e-001
1.704837e+003,3.169777e-001
1.708694e+003,3.130955e-001
1.712551e+003,3.102790e-001
1.716408e+003,3.086717e-001
1.720265e+003,3.076405e-001
1.724122e+003,3.045089e-001
1.727979e+003,3.003550e-001
1.731836e+003,2.988795e-001
1.735693e+003,3.004061e-001
1.739550e+003,3.008041e-001
1.743408e+003,3.004159e-001
1.747265e+003,2.994317e-001
1.751122e+003,3.000858e-001
1.754979e+003,2.996742e-001
1.758836e+003,3.016756e-001
1.762693e+003,3.063534e-001
1.766550e+003,3.093420e-001
1.770407e+003,3.098781e-001
1.774264e+003,3.074333e-001
1.778121e+003,3.059171e-001
1.781979e+003,3.009744e-001
1.785836e+003,2.954420e-001
1.789693e+003,2.935123e-001
1.793550e+003,2.881166e-001
1.797407e+003,2.822806e-001
1.801264e+003,2.793667e-001
1.805121e+003,2.769813e-001
1.808978e+003,2.746172e-001
1.812835e+003,2.732814e-001
1.816692e+003,2.709202e-001
1.820549e+003,2.708262e-001
1.824407e+003,2.722829e-001
1.828264e+003,2.740544e-001
1.832121e+003,2.737741e-001
1.835978e+003,2.719252e-001
1.839835e+003,2.704729e-001
1.843692e+003,2.670093e-001
1.847549e+003,2.644131e-001
1.851406e+003,2.646474e-001
1.855263e+003,2.636930e-001
1.859120e+003,2.618546e-001
1.862978e+003,2.611763e-001
1.866835e+003,2.588203e-001
1.870692e+003,2.553510e-001
1.874549e+003,2.548666e-001
1.878406e+003,2.548547e-001
1.882263e+003,2.532812e-001
1.886120e+003,2.518647e-001
1.889977e+003,2.529943e-001
1.893834e+003,2.537379e-001
1.897691e+003,2.537322e-001
1.901548e+003,2.515852e-001
1.905406e+003,2.495583e-001
1.909263e+003,2.507572e-001
1.913120e+003,2.513629e-001
1.916977e+003,2.508150e-001
1.920834e+003,2.497781e-001
1.924691e+003,2.506046e-001
1.928548e+003,2.502887e-001
1.932405e+003,2.494013e-001
1.936262e+003,2.492247e-001
1.940119e+003,2.487938e-001
1.943977e+003,2.489154e-001
1.947834e+003,2.473208e-001
1.951691e+003,2.456056e-001
1.955548e+003,2.458568e-001
1.959405e+003,2.451206e-001
1.963262e+003,2.428994e-001
1.967119e+003,2.427385e-001
1.970976e+003,2.432985e-001
1.974833e+003,2.415197e-001
1.978690e+003,2.381986e-001
1.982547e+003,2.346165e-001
1.986405e+003,2.327090e-001
1.990262e+003,2.350049e-001
1.994119e+003,2.349767e-001
1.997976e+003,2.324697e-001
2.001833e+003,2.304370e-001
2.005690e+003,2.283219e-001
2.009547e+003,2.273132e-001
2.013404e+003,2.297548e-001
2.017261e+003,2.300195e-001
2.021118e+003,2.287202e-001
2.024976e+003,2.280387e-001
2.028833e+003,2.270056e-001
2.032690e+003,2.261963e-001
2.036547e+003,2.246040e-001
2.040404e+003,2.237169e-001
2.044261e+003,2.221244e-001
2.048118e+003,2.198788e-001
2.051975e+003,2.191169e-001
2.055832e+003,2.174982e-001
2.059689e+003,2.171151e-001
2.063546e+003,2.174270e-001
2.067404e+003,2.188937e-001
2.071261e+003,2.190275e-001
2.075118e+003,2.190496e-001
2.078975e+003,2.179530e-001
2.082832e+003,2.176107e-001
2.086689e+003,2.168766e-001
2.090546e+003,2.157131e-001
2.094403e+003,2.149395e-001
2.098260e+003,2.159669e-001
2.102117e+003,2.156258e-001
2.105975e+003,2.134396e-001
2.109832e+003,2.110996e-001
2.113689e+003,2.112185e-001
2.117546e+003,2.102320e-001
2.121403e+003,2.102926e-001
2.125260e+003,2.116862e-001
2.129117e+003,2.116925e-001
2.132974e+003,2.126490e-001
2.136831e+003,2.130601e-001
2.140688e+003,2.113880e-001
2.144545e+003,2.110838e-001
2.148403e+003,2.118490e-001
2.152260e+003,2.141135e-001
2.156117e+003,2.150323e-001
2.159974e+003,2.164993e-001
2.163831e+003,2.167259e-001
2.167688e+003,2.168681e-001
2.171545e+003,2.173143e-001
2.175402e+003,2.177198e-001
2.179259e+003,2.173044e-001
2.183116e+003,2.170279e-001
2.186974e+003,2.174399e-001
2.190831e+003,2.185672e-001
2.194688e+003,2.185638e-001
2.198545e+003,2.201232e-001
2.202402e+003,2.199161e-001
2.206259e+003,2.175151e-001
2.210116e+003,2.151980e-001
2.213973e+003,2.121763e-001
2.217830e+003,2.120515e-001
2.221688e+003,2.131572e-001
2.225544e+003,2.134050e-001
2.229402e+003,2.146309e-001
2.233259e+003,2.146392e-001
2.237116e+003,2.138681e-001
2.240973e+003,2.129930e-001
2.244830e+003,2.127600e-001
2.248687e+003,2.130813e-001
2.252544e+003,2.139907e-001
2.256401e+003,2.147700e-001
2.260258e+003,2.125931e-001
2.264115e+003,2.135178e-001
2.267973e+003,2.158349e-001
2.271830e+003,2.175607e-001
2.275687e+003,2.194923e-001
2.279544e+003,2.182297e-001
2.283401e+003,2.175737e-001
2.287258e+003,2.175263e-001
2.291115e+003,2.199127e-001
2.294972e+003,2.218510e-001
2.298829e+003,2.210895e-001
2.302687e+003,2.224356e-001
2.306543e+003,2.229227e-001
2.310401e+003,2.255016e-001
2.314258e+003,2.256426e-001
2.318115e+003,2.247243e-001
2.321972e+003,2.229181e-001
2.325829e+003,2.221040e-001
2.329686e+003,2.226603e-001
2.333543e+003,2.216432e-001
2.337400e+003,2.207469e-001
2.341257e+003,2.233108e-001
2.345115e+003,2.243389e-001
2.348972e+003,2.217930e-001
2.352829e+003,2.202422e-001
2.356686e+003,2.222866e-001
2.360543e+003,2.243830e-001
2.364400e+003,2.240098e-001
2.368257e+003,2.214922e-001
2.372114e+003,2.226244e-001
2.375971e+003,2.225922e-001
2.379828e+003,2.216769e-001
2.383686e+003,2.220711e-001
2.387542e+003,2.214135e-001
2.391400e+003,2.230002e-001
2.395257e+003,2.242013e-001
2.399114e+003,2.249910e-001
2.402971e+003,2.236557e-001
2.406828e+003,2.238946e-001
2.410685e+003,2.267787e-001
2.414542e+003,2.259288e-001
2.418399e+003,2.243629e-001
2.422256e+003,2.253351e-001
2.426114e+003,2.245874e-001
2.429971e+003,2.221518e-001
2.433828e+003,2.214386e-001
2.437685e+003,2.207206e-001
2.441542e+003,2.203787e-001
2.445399e+003,2.197397e-001
2.449256e+003,2.181352e-001
2.453113e+003,2.181250e-001
2.456970e+003,2.198112e-001
2.460827e+003,2.179205e-001
2.464684e+003,2.130647e-001
2.468542e+003,2.121124e-001
2.472399e+003,2.138755e-001
2.476256e+003,2.148540e-001
2.480113e+003,2.124123e-001
2.483970e+003,2.127352e-001
2.487827e+003,2.139478e-001
2.491684e+003,2.140542e-001
2.495541e+003,2.143713e-001
2.499398e+003,2.147015e-001
2.503255e+003,2.147086e-001
2.507113e+003,2.141703e-001
2.510969e+003,2.147674e-001
2.514827e+003,2.165131e-001
2.518684e+003,2.187782e-001
2.522541e+003,2.188858e-001
2.526398e+003,2.194745e-001
2.530255e+003,2.201134e-001
2.534112e+003,2.176602e-001
2.537969e+003,2.189205e-001
2.541826e+003,2.218131e-001
2.545683e+003,2.200017e-001
2.549541e+003,2.213217e-001
2.553398e+003,2.251137e-001
2.557255e+003,2.255934e-001
2.561112e+003,2.246947e-001
2.564969e+003,2.232570e-001
2.568826e+003,2.234016e-001
2.572683e+003,2.254471e-001
2.576540e+003,2.260368e-001
2.580397e+003,2.268286e-001
2.584254e+003,2.260548e-001
2.588112e+003,2.266031e-001
2.591969e+003,2.275230e-001
2.595826e+003,2.276062e-001
2.599683e+003,2.283352e-001
2.603540e+003,2.287905e-001
2.607397e+003,2.310969e-001
2.611254e+003,2.352411e-001
2.615111e+003,2.367568e-001
2.618968e+003,2.373438e-001
2.622825e+003,2.388199e-001
2.626682e+003,2.382607e-001
2.630540e+003,2.378164e-001
2.634397e+003,2.394928e-001
2.638254e+003,2.397162e-001
2.642111e+003,2.425496e-001
2.645968e+003,2.472568e-001
2.649825e+003,2.476805e-001
2.653682e+003,2.466174e-001
2.657539e+003,2.459539e-001
2.661396e+003,2.472568e-001
2.665253e+003,2.495392e-001
2.669111e+003,2.510201e-001
2.672968e+003,2.546062e-001
2.676825e+003,2.582529e-001
2.680682e+003,2.567257e-001
2.684539e+003,2.557724e-001
2.688396e+003,2.586565e-001
2.692253e+003,2.614531e-001
2.696110e+003,2.625762e-001
2.699967e+003,2.632962e-001
2.703824e+003,2.639116e-001
2.707681e+003,2.653764e-001
2.711539e+003,2.703191e-001
2.715396e+003,2.720473e-001
2.719253e+003,2.730333e-001
2.723110e+003,2.774573e-001
2.726967e+003,2.783150e-001
2.730824e+003,2.776716e-001
2.734681e+003,2.770009e-001
2.738538e+003,2.776400e-001
2.742395e+003,2.811411e-001
2.746252e+003,2.874117e-001
2.750110e+003,2.897807e-001
2.753967e+003,2.920339e-001
2.757824e+003,2.920492e-001
2.761681e+003,2.935837e-001
2.765538e+003,2.983172e-001
2.769395e+003,3.005362e-001
2.773252e+003,2.990591e-001
2.777109e+003,3.007068e-001
2.780966e+003,3.050670e-001
2.784823e+003,3.046087e-001
2.788680e+003,3.055469e-001
2.792538e+003,3.105900e-001
2.796395e+003,3.134259e-001
2.800252e+003,3.159904e-001
2.804109e+003,3.169234e-001
2.807966e+003,3.175564e-001
2.811823e+003,3.230093e-001
2.815680e+003,3.262563e-001
2.819537e+003,3.268559e-001
2.823394e+003,3.284945e-001
2.827251e+003,3.299760e-001
2.831109e+003,3.330511e-001
2.834966e+003,3.362217e-001
2.838823e+003,3.372055e-001
2.842680e+003,3.407910e-001
2.846537e+003,3.459076e-001
2.850394e+003,3.490970e-001
2.854251e+003,3.502859e-001
2.858108e+003,3.517609e-001
2.861965e+003,3.541690e-001
2.865823e+003,3.576557e-001
2.869679e+003,3.558978e-001
2.873537e+003,3.563398e-001
2.877394e+003,3.563948e-001
2.881251e+003,3.594805e-001
2.885108e+003,3.668593e-001
2.888965e+003,3.684401e-001
2.892822e+003,3.684498e-001
2.896679e+003,3.679072e-001
2.900536e+003,3.719780e-001
2.904393e+003,3.797653e-001
2.908250e+003,3.849256e-001
2.912108e+003,3.901294e-001
2.915965e+003,3.937746e-001
2.919822e+003,3.991069e-001
2.923679e+003,4.027566e-001
2.927536e+003,4.002603e-001
2.931393e+003,3.990589e-001
2.935250e+003,4.026105e-001
2.939107e+003,4.082807e-001
2.942964e+003,4.116667e-001
2.946822e+003,4.118764e-001
2.950678e+003,4.132391e-001
2.954536e+003,4.167829e-001
2.958393e+003,4.211309e-001
2.962250e+003,4.207934e-001
2.966107e+003,4.215417e-001
2.969964e+003,4.266140e-001
2.973821e+003,4.324126e-001
2.977678e+003,4.366125e-001
2.981535e+003,4.322339e-001
2.985392e+003,4.294895e-001
2.989250e+003,4.352604e-001
2.993107e+003,4.409803e-001
2.996964e+003,4.445848e-001
3.000821e+003,4.500515e-001
3.004678e+003,4.510918e-001
3.008535e+003,4.530594e-001
3.012392e+003,4.562669e-001
3.016249e+003,4.597430e-001
3.020106e+003,4.586248e-001
3.023963e+003,4.574755e-001
3.027821e+003,4.598422e-001
3.031677e+003,4.689004e-001
3.035535e+003,4.746850e-001
3.039392e+003,4.763612e-001
3.043249e+003,4.773741e-001
3.047106e+003,4.810339e-001
3.050963e+003,4.896898e-001
3.054820e+003,4.964735e-001
3.058677e+003,4.953180e-001
3.062534e+003,4.949097e-001
3.066391e+003,4.970759e-001
3.070249e+003,4.984079e-001
3.074106e+003,5.029554e-001
3.077963e+003,5.098729e-001
3.081820e+003,5.161246e-001
3.085677e+003,5.153885e-001
3.089534e+003,5.204388e-001
3.093391e+003,5.259944e-001
3.097248e+003,5.302540e-001
3.101105e+003,5.331470e-001
3.104962e+003,5.319367e-001
3.108820e+003,5.333346e-001
3.112677e+003,5.358452e-001
3.116534e+003,5.382786e-001
3.120391e+003,5.418969e-001
3.124248e+003,5.433186e-001
3.128105e+003,5.431336e-001
3.131962e+003,5.465811e-001
3.135819e+003,5.561945e-001
3.139676e+003,5.594490e-001
3.143533e+003,5.631258e-001
3.147390e+003,5.693228e-001
3.151248e+003,5.675292e-001
3.155105e+003,5.704601e-001
3.158962e+003,5.786698e-001
3.162819e+003,5.835069e-001
3.166676e+003,5.872253e-001
3.170533e+003,5.901324e-001
3.174390e+003,5.903265e-001
3.178247e+003,5.915462e-001
3.182104e+003,5.989735e-001
3.185961e+003,6.035392e-001
3.189819e+003,6.056783e-001
3.193676e+003,6.106645e-001
3.197533e+003,6.134495e-001
3.201390e+003,6.136324e-001
3.205247e+003,6.186150e-001
3.209104e+003,6.190940e-001
3.212961e+003,6.167222e-001
3.216818e+003,6.266973e-001
3.220675e+003,6.321156e-001
3.224532e+003,6.319883e-001
3.228389e+003,6.329548e-001
3.232247e+003,6.328151e-001
3.236104e+003,6.344429e-001
3.239961e+003,6.396658e-001
3.243818e+003,6.418504e-001
3.247675e+003,6.387618e-001
3.251532e+003,6.393079e-001
3.255389e+003,6.440343e-001
3.259246e+003,6.534998e-001
3.263103e+003,6.555099e-001
3.266960e+003,6.530562e-001
3.270818e+003,6.508628e-001
3.274675e+003,6.530578e-001
3.278532e+003,6.538599e-001
3.282389e+003,6.594868e-001
3.286246e+003,6.672628e-001
3.290103e+003,6.721117e-001
3.293960e+003,6.698514e-001
3.297817e+003,6.658227e-001
3.301674e+003,6.729488e-001
3.305531e+003,6.830723e-001
3.309388e+003,6.830674e-001
3.313246e+003,6.855696e-001
3.317103e+003,6.889963e-001
3.320960e+003,6.849205e-001
3.324817e+003,6.870557e-001
3.328674e+003,6.928924e-001
3.332531e+003,6.940999e-001
3.336388e+003,6.941569e-001
3.340245e+003,6.919056e-001
3.344102e+003,6.962767e-001
3.347959e+003,7.014292e-001
3.351817e+003,7.033543e-001
3.355674e+003,7.059540e-001
3.359531e+003,7.030594e-001
3.363388e+003,7.036979e-001
3.367245e+003,6.966873e-001
3.371102e+003,6.968483e-001
3.374959e+003,7.071266e-001
3.378816e+003,7.097167e-001
3.382673e+003,7.054294e-001
3.386530e+003,7.028334e-001
3.390387e+003,7.149741e-001
3.394245e+003,7.209636e-001
3.398102e+003,7.148452e-001
3.401959e+003,7.172217e-001
3.405816e+003,7.259926e-001
3.409673e+003,7.373336e-001
3.413530e+003,7.423532e-001
3.417387e+003,7.369545e-001
3.421244e+003,7.304836e-001
3.425101e+003,7.326573e-001
3.428958e+003,7.359651e-001
3.432815e+003,7.300667e-001
3.436673e+003,7.224473e-001
3.440530e+003,7.293020e-001
3.444387e+003,7.471080e-001
3.448244e+003,7.595765e-001
3.452101e+003,7.535180e-001
3.455958e+003,7.480840e-001
3.459815e+003,7.463044e-001
3.463672e+003,7.549242e-001
3.467529e+003,7.541875e-001
3.471386e+003,7.438319e-001
3.475244e+003,7.356204e-001
3.479101e+003,7.409602e-001
3.482958e+003,7.476739e-001
3.486815e+003,7.462614e-001
3.490672e+003,7.360708e-001
3.494529e+003,7.339619e-001
3.498386e+003,7.436492e-001
3.502243e+003,7.530644e-001
3.506100e+003,7.552904e-001
3.509958e+003,7.460085e-001
3.513814e+003,7.328200e-001
3.517672e+003,7.396228e-001
3.521529e+003,7.554418e-001
3.525386e+003,7.586340e-001
3.529243e+003,7.501200e-001
3.533100e+003,7.412482e-001
3.536957e+003,7.383439e-001
3.540814e+003,7.499509e-001
3.544671e+003,7.523928e-001
3.548528e+003,7.407806e-001
3.552385e+003,7.357832e-001
3.556243e+003,7.368625e-001
3.560100e+003,7.408578e-001
3.563957e+003,7.414281e-001
3.567814e+003,7.377133e-001
3.571671e+003,7.321342e-001
3.575528e+003,7.278405e-001
3.579385e+003,7.293011e-001
3.583242e+003,7.154332e-001
3.587099e+003,7.016044e-001
3.590957e+003,6.959520e-001
3.594813e+003,6.855673e-001
3.598671e+003,6.760801e-001
3.602528e+003,6.580093e-001
3.606385e+003,6.367531e-001
3.610242e+003,6.230720e-001
3.614099e+003,6.098335e-001
3.617956e+003,5.912428e-001
3.621813e+003,5.722494e-001
3.625670e+003,5.498963e-001
3.629527e+003,5.233363e-001
3.633385e+003,4.949626e-001
3.637242e+003,4.724808e-001
3.641099e+003,4.541644e-001
3.644956e+003,4.276647e-001
3.648813e+003,3.991989e-001
3.652670e+003,3.760915e-001
3.656527e+003,3.558424e-001
3.660384e+003,3.353351e-001
3.664241e+003,3.152611e-001
3.668098e+003,2.952974e-001
3.671956e+003,2.780533e-001
3.675813e+003,2.635303e-001
3.679670e+003,2.527114e-001
3.683527e+003,2.430860e-001
3.687384e+003,2.340643e-001
3.691241e+003,2.262352e-001
3.695098e+003,2.180260e-001
3.698955e+003,2.093095e-001
3.702812e+003,2.020610e-001
3.706669e+003,1.968769e-001
3.710526e+003,1.926139e-001
3.714384e+003,1.889298e-001
3.718241e+003,1.849332e-001
3.722098e+003,1.806258e-001
3.725955e+003,1.747720e-001
3.729812e+003,1.709266e-001
3.733669e+003,1.729669e-001
3.737526e+003,1.720019e-001
3.741383e+003,1.678171e-001
3.745240e+003,1.622254e-001
3.749097e+003,1.606972e-001
3.752955e+003,1.622198e-001
3.756812e+003,1.636999e-001
3.760669e+003,1.604760e-001
3.764526e+003,1.565050e-001
3.768383e+003,1.576462e-001
3.772240e+003,1.605783e-001
3.776097e+003,1.619108e-001
3.779954e+003,1.642474e-001
3.783811e+003,1.671442e-001
3.787668e+003,1.692791e-001
3.791525e+003,1.679643e-001
3.795383e+003,1.637061e-001
3.799240e+003,1.630294e-001
3.803097e+003,1.644588e-001
3.806954e+003,1.632044e-001
3.810811e+003,1.623062e-001
3.814668e+003,1.632931e-001
3.818525e+003,1.632269e-001
3.822382e+003,1.642346e-001
3.826239e+003,1.642178e-001
3.830096e+003,1.606822e-001
3.833954e+003,1.575598e-001
3.837811e+003,1.604873e-001
3.841668e+003,1.603520e-001
3.845525e+003,1.541007e-001
3.849382e+003,1.517296e-001
3.853239e+003,1.515508e-001
3.857096e+003,1.507433e-001
3.860953e+003,1.509191e-001
3.864810e+003,1.508083e-001
3.868667e+003,1.503058e-001
3.872524e+003,1.519126e-001
3.876382e+003,1.544221e-001
3.880239e+003,1.567430e-001
3.884096e+003,1.571546e-001
3.887953e+003,1.569911e-001
3.891810e+003,1.569244e-001
3.895667e+003,1.577612e-001
3.899524e+003,1.610431e-001
3.903381e+003,1.628848e-001
3.907238e+003,1.640343e-001
3.911095e+003,1.655355e-001
3.914953e+003,1.632996e-001
3.918810e+003,1.602494e-001
3.922667e+003,1.598956e-001
3.926524e+003,1.600671e-001
3.930381e+003,1.586654e-001
3.934238e+003,1.561267e-001
3.938095e+003,1.555827e-001
3.941952e+003,1.582922e-001
3.945809e+003,1.587143e-001
3.949667e+003,1.572304e-001
3.953523e+003,1.548323e-001
3.957381e+003,1.542259e-001
3.961238e+003,1.539243e-001
3.965095e+003,1.512712e-001
3.968952e+003,1.499456e-001
3.972809e+003,1.499496e-001
3.976666e+003,1.483525e-001
3.980523e+003,1.493255e-001
3.984380e+003,1.521702e-001
3.988237e+003,1.499463e-001
3.992094e+003,1.456416e-001
3.995952e+003,1.461258e-001
3.999809e+003,1.505560e-001
4.003666e+003,1.517980e-001
4.007523e+003,1.497420e-001
4.011380e+003,1.528914e-001
4.015237e+003,1.584047e-001
4.019094e+003,1.601463e-001
4.022951e+003,1.570716e-001
4.026808e+003,1.536778e-001
4.030666e+003,1.559534e-001
4.034522e+003,1.623860e-001
4.038380e+003,1.645564e-001
4.042237e+003,1.621066e-001
4.046094e+003,1.591332e-001
4.049951e+003,1.557178e-001
4.053808e+003,1.575553e-001
4.057665e+003,1.601596e-001
4.061522e+003,1.582270e-001
4.065379e+003,1.567668e-001
4.069236e+003,1.554918e-001
4.073094e+003,1.530117e-001
4.076951e+003,1.519338e-001
4.080808e+003,1.505834e-001
4.084665e+003,1.454069e-001
4.088522e+003,1.454806e-001
4.092379e+003,1.480379e-001
4.096236e+003,1.459804e-001
4.100093e+003,1.442972e-001
4.103950e+003,1.419242e-001
4.107808e+003,1.432042e-001
4.111665e+003,1.477361e-001
4.115521e+003,1.482564e-001
4.119379e+003,1.495865e-001
4.123236e+003,1.482616e-001
4.127093e+003,1.500785e-001
4.130950e+003,1.536379e-001
4.134807e+003,1.543069e-001
4.138664e+003,1.518932e-001
4.142521e+003,1.501480e-001
4.146378e+003,1.543135e-001
4.150235e+003,1.575895e-001
4.154093e+003,1.568253e-001
4.157950e+003,1.573514e-001
4.161807e+003,1.569068e-001
4.165664e+003,1.587981e-001
4.169521e+003,1.599196e-001
4.173378e+003,1.556652e-001
4.177235e+003,1.523857e-001
4.181092e+003,1.529121e-001
4.184949e+003,1.519696e-001
4.188807e+003,1.498066e-001
4.192664e+003,1.437301e-001
4.196521e+003,1.407015e-001
4.200378e+003,1.414051e-001
4.204235e+003,1.419964e-001
4.208092e+003,1.419039e-001
4.211949e+003,1.403069e-001
4.215806e+003,1.392051e-001
4.219663e+003,1.389223e-001
4.223521e+003,1.441951e-001
4.227377e+003,1.459484e-001
4.231234e+003,1.448710e-001
4.235092e+003,1.440650e-001
4.238949e+003,1.451495e-001
4.242806e+003,1.482926e-001
4.246663e+003,1.498736e-001
4.250520e+003,1.529199e-001
4.254377e+003,1.555210e-001
4.258234e+003,1.536084e-001
4.262091e+003,1.507889e-001
4.265948e+003,1.518759e-001
4.269806e+003,1.590700e-001
4.273663e+003,1.584660e-001
4.277520e+003,1.556359e-001
4.281377e+003,1.547605e-001
4.285234e+003,1.554180e-001
4.289091e+003,1.582449e-001
4.292948e+003,1.576341e-001
4.296805e+003,1.522339e-001
4.300662e+003,1.491480e-001
4.304520e+003,1.492696e-001
4.308376e+003,1.502264e-001
4.312233e+003,1.486596e-001
4.316091e+003,1.494085e-001
4.319948e+003,1.520126e-001
4.323805e+003,1.488324e-001
4.327662e+003,1.432821e-001
4.331519e+003,1.417009e-001
4.335376e+003,1.443003e-001
4.339233e+003,1.415150e-001
4.343090e+003,1.405775e-001
4.346947e+003,1.429147e-001
4.350805e+003,1.458568e-001
4.354662e+003,1.480001e-001
4.358519e+003,1.487464e-001
4.362376e+003,1.487035e-001
4.366233e+003,1.508278e-001
4.370090e+003,1.542321e-001
4.373947e+003,1.570682e-001
4.377804e+003,1.560490e-001
4.381661e+003,1.571177e-001
4.385519e+003,1.611609e-001
4.389375e+003,1.615412e-001
4.393232e+003,1.612489e-001
4.397090e+003,1.624510e-001
4.400947e+003,1.631049e-001
4.404804e+003,1.611088e-001
4.408661e+003,1.604828e-001
4.412518e+003,1.611984e-001
4.416375e+003,1.605010e-001
4.420232e+003,1.571145e-001
4.424089e+003,1.565742e-001
4.427946e+003,1.555240e-001
4.431804e+003,1.552217e-001
4.435661e+003,1.557254e-001
4.439518e+003,1.512318e-001
4.443375e+003,1.448017e-001
4.447232e+003,1.444914e-001
4.451089e+003,1.455677e-001
4.454946e+003,1.481052e-001
4.458803e+003,1.513965e-001
4.462660e+003,1.509792e-001
4.466518e+003,1.508550e-001
4.470375e+003,1.518572e-001
4.474231e+003,1.506710e-001
4.478089e+003,1.494240e-001
4.481946e+003,1.495840e-001
4.485803e+003,1.482080e-001
4.489660e+003,1.489403e-001
4.493517e+003,1.516630e-001
4.497375e+003,1.539645e-001
4.501231e+003,1.531289e-001
4.505088e+003,1.563030e-001
4.508946e+003,1.610801e-001
4.512803e+003,1.595972e-001
4.516660e+003,1.588798e-001
4.520517e+003,1.596733e-001
4.524374e+003,1.566083e-001
4.528231e+003,1.593083e-001
4.532088e+003,1.600321e-001
4.535945e+003,1.582952e-001
4.539802e+003,1.588603e-001
4.543660e+003,1.566849e-001
4.547517e+003,1.538457e-001
4.551374e+003,1.540263e-001
4.555231e+003,1.556919e-001
4.559088e+003,1.553621e-001
4.562945e+003,1.523448e-001
4.566802e+003,1.505306e-001
4.570659e+003,1.521574e-001
4.574516e+003,1.542890e-001
4.578374e+003,1.511141e-001
4.582230e+003,1.494851e-001
4.586087e+003,1.458644e-001
4.589945e+003,1.431704e-001
4.593802e+003,1.449837e-001
4.597659e+003,1.486575e-001
4.601516e+003,1.494849e-001
4.605373e+003,1.497964e-001
4.609230e+003,1.512729e-001
4.613087e+003,1.502921e-001
4.616944e+003,1.533869e-001
4.620801e+003,1.548404e-001
4.624659e+003,1.567064e-001
4.628516e+003,1.639947e-001
4.632373e+003,1.608332e-001
4.636230e+003,1.584973e-001
4.640087e+003,1.595294e-001
4.643944e+003,1.571476e-001
4.647801e+003,1.567109e-001
4.651658e+003,1.597977e-001
4.655515e+003,1.562725e-001
4.659373e+003,1.539430e-001
4.663229e+003,1.583389e-001
4.667086e+003,1.637883e-001
4.670944e+003,1.622404e-001
4.674801e+003,1.595552e-001
4.678658e+003,1.545822e-001
4.682515e+003,1.535201e-001
4.686372e+003,1.507105e-001
4.690229e+003,1.457570e-001
4.694086e+003,1.460630e-001
4.697943e+003,1.469452e-001
4.701800e+003,1.463101e-001
4.705658e+003,1.466926e-001
4.709515e+003,1.443790e-001
4.713372e+003,1.467641e-001
4.717229e+003,1.475557e-001
4.721086e+003,1.491340e-001
4.724943e+003,1.505119e-001
4.728800e+003,1.489422e-001
4.732657e+003,1.445821e-001
4.736514e+003,1.487059e-001
4.740372e+003,1.575586e-001
4.744229e+003,1.596405e-001
4.748085e+003,1.577353e-001
4.751943e+003,1.584143e-001
4.755800e+003,1.572292e-001
4.759657e+003,1.603344e-001
4.763514e+003,1.621862e-001
4.767371e+003,1.640738e-001
4.771228e+003,1.629352e-001
4.775085e+003,1.580715e-001
4.778942e+003,1.576616e-001
4.782799e+003,1.570891e-001
4.786657e+003,1.526360e-001
4.790514e+003,1.506617e-001
4.794371e+003,1.601377e-001
4.798228e+003,1.584014e-001
4.802085e+003,1.497611e-001
4.805942e+003,1.504176e-001
4.809799e+003,1.536700e-001
4.813656e+003,1.524324e-001
4.817513e+003,1.514669e-001
4.821371e+003,1.482454e-001
4.825228e+003,1.470823e-001
4.829084e+003,1.515612e-001
4.832942e+003,1.505356e-001
4.836799e+003,1.540707e-001
4.840656e+003,1.548009e-001
4.844513e+003,1.516110e-001
4.848370e+003,1.521224e-001
4.852227e+003,1.539049e-001
4.856084e+003,1.600734e-001
4.859941e+003,1.580361e-001
4.863798e+003,1.589243e-001
4.867656e+003,1.598179e-001
4.871513e+003,1.580200e-001
4.875370e+003,1.603049e-001
4.879227e+003,1.619452e-001
4.883084e+003,1.577224e-001
4.886941e+003,1.573801e-001
4.890798e+003,1.627699e-001
4.894655e+003,1.664908e-001
4.898512e+003,1.622999e-001
4.902370e+003,1.585606e-001
4.906227e+003,1.602422e-001
4.910083e+003,1.632065e-001
4.913941e+003,1.654816e-001
4.917798e+003,1.669434e-001
4.921655e+003,1.664172e-001
4.925512e+003,1.586512e-001
4.929369e+003,1.517001e-001
4.933226e+003,1.506331e-001
4.937083e+003,1.499278e-001
4.940940e+003,1.503647e-001
4.944797e+003,1.527986e-001
4.948655e+003,1.511283e-001
4.952512e+003,1.470539e-001
4.956369e+003,1.507026e-001
4.960226e+003,1.523895e-001
4.964083e+003,1.504572e-001
4.967940e+003,1.501438e-001
4.971797e+003,1.538025e-001
4.975654e+003,1.580172e-001
4.979511e+003,1.638678e-001
4.983369e+003,1.662294e-001
4.987226e+003,1.686852e-001
4.991083e+003,1.714186e-001
4.994940e+003,1.622473e-001
4.998797e+003,1.574368e-001
5.002654e+003,1.655746e-001
5.006511e+003,1.625268e-001
5.010368e+003,1.587344e-001
5.014225e+003,1.625069e-001
5.018083e+003,1.666871e-001
5.021939e+003,1.674416e-001
5.025796e+003,1.713779e-001
5.029654e+003,1.705017e-001
5.033511e+003,1.681881e-001
5.037368e+003,1.636740e-001
5.041225e+003,1.600894e-001
5.045082e+003,1.612964e-001
5.048939e+003,1.584796e-001
5.052796e+003,1.543607e-001
5.056653e+003,1.581015e-001
5.060510e+003,1.625376e-001
5.064368e+003,1.603250e-001
5.068225e+003,1.563499e-001
5.072082e+003,1.528401e-001
5.075939e+003,1.509336e-001
5.079796e+003,1.510286e-001
5.083653e+003,1.546056e-001
5.087510e+003,1.597281e-001
5.091367e+003,1.601161e-001
5.095224e+003,1.563736e-001
5.099082e+003,1.569810e-001
5.102938e+003,1.617369e-001
5.106795e+003,1.673153e-001
5.110653e+003,1.666162e-001
5.114510e+003,1.636091e-001
5.118367e+003,1.648414e-001
5.122224e+003,1.666530e-001
5.126081e+003,1.668696e-001
5.129938e+003,1.661366e-001
5.133795e+003,1.641875e-001
5.137652e+003,1.679440e-001
5.141509e+003,1.727371e-001
5.145367e+003,1.731192e-001
5.149224e+003,1.725627e-001
5.153081e+003,1.712411e-001
5.156938e+003,1.713314e-001
5.160795e+003,1.585869e-001
5.164652e+003,1.515519e-001
5.168509e+003,1.572985e-001
5.172366e+003,1.583111e-001
5.176223e+003,1.574463e-001
5.180081e+003,1.595290e-001
5.183938e+003,1.608372e-001
5.187794e+003,1.569906e-001
5.191652e+003,1.538390e-001
5.195509e+003,1.555994e-001
5.199366e+003,1.618959e-001
5.203223e+003,1.603795e-001
5.207080e+003,1.595742e-001
5.210937e+003,1.596203e-001
5.214794e+003,1.604398e-001
5.218651e+003,1.632968e-001
5.222508e+003,1.696619e-001
5.226366e+003,1.766802e-001
5.230223e+003,1.743791e-001
5.234080e+003,1.686871e-001
5.237937e+003,1.651561e-001
5.241794e+003,1.643459e-001
5.245651e+003,1.652173e-001
5.249508e+003,1.715927e-001
5.253365e+003,1.740256e-001
5.257222e+003,1.673507e-001
5.261080e+003,1.638492e-001
5.264937e+003,1.690366e-001
5.268793e+003,1.756208e-001
5.272651e+003,1.689685e-001
5.276508e+003,1.601017e-001
5.280365e+003,1.596040e-001
5.284222e+003,1.605832e-001
5.288079e+003,1.551085e-001
5.291936e+003,1.516645e-001
5.295793e+003,1.534375e-001
5.299650e+003,1.554627e-001
5.303507e+003,1.527307e-001
5.307365e+003,1.542715e-001
5.311222e+003,1.533852e-001
5.315079e+003,1.533651e-001
5.318936e+003,1.620966e-001
5.322793e+003,1.646924e-001
5.326650e+003,1.602186e-001
5.330507e+003,1.607583e-001
5.334364e+003,1.599791e-001
5.338221e+003,1.567144e-001
5.342079e+003,1.547290e-001
5.345936e+003,1.576041e-001
5.349792e+003,1.631169e-001
5.353650e+003,1.644168e-001
5.357507e+003,1.644652e-001
5.361364e+003,1.717726e-001
5.365221e+003,1.695202e-001
5.369078e+003,1.607439e-001
5.372935e+003,1.572249e-001
5.376792e+003,1.627833e-001
5.380649e+003,1.715951e-001
5.384506e+003,1.720205e-001
5.388364e+003,1.749862e-001
5.392221e+003,1.755330e-001
5.396078e+003,1.714531e-001
5.399935e+003,1.716385e-001
5.403792e+003,1.685800e-001
5.407649e+003,1.656400e-001
5.411506e+003,1.617839e-001
5.415363e+003,1.595252e-001
5.419220e+003,1.637108e-001
5.423078e+003,1.623805e-001
5.426935e+003,1.555242e-001
5.430792e+003,1.545933e-001
5.434649e+003,1.533779e-001
5.438506e+003,1.540901e-001
5.442363e+003,1.560782e-001
5.446220e+003,1.557280e-001
5.450077e+003,1.534691e-001
5.453934e+003,1.548519e-001
5.457792e+003,1.593647e-001
5.461648e+003,1.667736e-001
5.465505e+003,1.691157e-001
5.469363e+003,1.605830e-001
5.473220e+003,1.551352e-001
5.477077e+003,1.574580e-001
5.480934e+003,1.662871e-001
5.484791e+003,1.690054e-001
5.488648e+003,1.701810e-001
5.492505e+003,1.729105e-001
5.496362e+003,1.740056e-001
5.500219e+003,1.668137e-001
5.504077e+003,1.670144e-001
5.507934e+003,1.690011e-001
5.511791e+003,1.714179e-001
5.515648e+003,1.736879e-001
5.519505e+003,1.736310e-001
5.523362e+003,1.770036e-001
5.527219e+003,1.708932e-001
5.531076e+003,1.586734e-001
5.534933e+003,1.555544e-001
5.538791e+003,1.568895e-001
5.542647e+003,1.584881e-001
5.546504e+003,1.562502e-001
5.550362e+003,1.543562e-001
5.554219e+003,1.574140e-001
5.558076e+003,1.600966e-001
5.561933e+003,1.614162e-001
5.565790e+003,1.671673e-001
5.569647e+003,1.678658e-001
5.573504e+003,1.665554e-001
5.577361e+003,1.656350e-001
5.581218e+003,1.601133e-001
5.585076e+003,1.628111e-001
5.588933e+003,1.687392e-001
5.592790e+003,1.731683e-001
5.596647e+003,1.689485e-001
5.600504e+003,1.601469e-001
5.604361e+003,1.637657e-001
5.608218e+003,1.675015e-001
5.612075e+003,1.606947e-001
5.615932e+003,1.623664e-001
5.619790e+003,1.656047e-001
5.623646e+003,1.674946e-001
5.627503e+003,1.691524e-001
5.631361e+003,1.698136e-001
5.635218e+003,1.722861e-001
5.639075e+003,1.656487e-001
5.642932e+003,1.667352e-001
5.646789e+003,1.673841e-001
5.650646e+003,1.664076e-001
5.654503e+003,1.682927e-001
5.658360e+003,1.707254e-001
5.662217e+003,1.693306e-001
5.666075e+003,1.639212e-001
5.669932e+003,1.615994e-001
5.673789e+003,1.647739e-001
5.677646e+003,1.685451e-001
5.681503e+003,1.702661e-001
5.685360e+003,1.665173e-001
5.689217e+003,1.599972e-001
5.693074e+003,1.605621e-001
5.696931e+003,1.611376e-001
5.700789e+003,1.617182e-001
5.704646e+003,1.641056e-001
5.708502e+003,1.640793e-001
5.712360e+003,1.662680e-001
5.716217e+003,1.627901e-001
5.720074e+003,1.676170e-001
5.723931e+003,1.757495e-001
5.727788e+003,1.746015e-001
5.731645e+003,1.694846e-001
5.735502e+003,1.650860e-001
5.739359e+003,1.666589e-001
5.743216e+003,1.627255e-001
5.747074e+003,1.661604e-001
5.750931e+003,1.736861e-001
5.754788e+003,1.726576e-001
5.758645e+003,1.654979e-001
5.762502e+003,1.638468e-001
5.766359e+003,1.675034e-001
5.770216e+003,1.644889e-001
5.774073e+003,1.624642e-001
5.777930e+003,1.685774e-001
5.781788e+003,1.668593e-001
5.785645e+003,1.642250e-001
5.789501e+003,1.735963e-001
5.793359e+003,1.704205e-001
5.797216e+003,1.672540e-001
5.801073e+003,1.646701e-001
5.804930e+003,1.568133e-001
5.808787e+003,1.569864e-001
5.812644e+003,1.546502e-001
5.816501e+003,1.553687e-001
5.820358e+003,1.531637e-001
5.824215e+003,1.543016e-001
5.828073e+003,1.700846e-001
5.831930e+003,1.752100e-001
5.835787e+003,1.667764e-001
5.839644e+003,1.611324e-001
5.843501e+003,1.672001e-001
5.847358e+003,1.729658e-001
5.851215e+003,1.729068e-001
5.855072e+003,1.639193e-001
5.858929e+003,1.672990e-001
5.862787e+003,1.763713e-001
5.866644e+003,1.790344e-001
5.870500e+003,1.685995e-001
5.874358e+003,1.671658e-001
5.878215e+003,1.695997e-001
5.882072e+003,1.762096e-001
5.885929e+003,1.703904e-001
5.889786e+003,1.628248e-001
5.893643e+003,1.651247e-001
5.897500e+003,1.647287e-001
5.901357e+003,1.629064e-001
5.905214e+003,1.636102e-001
5.909072e+003,1.556562e-001
5.912929e+003,1.539394e-001
5.916786e+003,1.612042e-001
5.920643e+003,1.723548e-001
5.924500e+003,1.823419e-001
5.928357e+003,1.730912e-001
5.932214e+003,1.641392e-001
5.936071e+003,1.642319e-001
5.939928e+003,1.669740e-001
5.943786e+003,1.612669e-001
5.947643e+003,1.483584e-001
5.951500e+003,1.535705e-001
5.955357e+003,1.650317e-001
5.959214e+003,1.653334e-001
5.963071e+003,1.602520e-001
5.966928e+003,1.581350e-001
5.970785e+003,1.633573e-001
5.974642e+003,1.594139e-001
5.978500e+003,1.618490e-001
5.982356e+003,1.766600e-001
5.986213e+003,1.740547e-001
5.990071e+003,1.710279e-001
5.993928e+003,1.777206e-001
5.997785e+003,1.856105e-001
6.001642e+003,1.820128e-001
6.005499e+003,1.779253e-001
6.009356e+003,1.680437e-001
6.013213e+003,1.617005e-001
6.017070e+003,1.613474e-001
6.020927e+003,1.588222e-001
6.024785e+003,1.590676e-001
6.028642e+003,1.596729e-001
6.032499e+003,1.616477e-001
6.036356e+003,1.689949e-001
6.040213e+003,1.624466e-001
6.044070e+003,1.574093e-001
6.047927e+003,1.590589e-001
6.051784e+003,1.554815e-001
6.055641e+003,1.571320e-001
6.059499e+003,1.654851e-001
6.063355e+003,1.699969e-001
6.067212e+003,1.731934e-001
6.071070e+003,1.751687e-001
6.074927e+003,1.758405e-001
6.078784e+003,1.749716e-001
6.082641e+003,1.743677e-001
6.086498e+003,1.636125e-001
6.090355e+003,1.640473e-001
6.094212e+003,1.699911e-001
6.098069e+003,1.644607e-001
6.101926e+003,1.639459e-001
6.105784e+003,1.602636e-001
6.109641e+003,1.655337e-001
6.113498e+003,1.789268e-001
6.117355e+003,1.776101e-001
6.121212e+003,1.664165e-001
6.125069e+003,1.677354e-001
6.128926e+003,1.793367e-001
6.132783e+003,1.774439e-001
6.136640e+003,1.682548e-001
6.140498e+003,1.583662e-001
6.144354e+003,1.565656e-001
6.148211e+003,1.638172e-001
6.152069e+003,1.606421e-001
6.155926e+003,1.607462e-001
6.159783e+003,1.633870e-001
6.163640e+003,1.617099e-001
6.167497e+003,1.519777e-001
6.171354e+003,1.517522e-001
6.175211e+003,1.605740e-001
6.179068e+003,1.639778e-001
6.182925e+003,1.571356e-001
6.186783e+003,1.636024e-001
6.190640e+003,1.650829e-001
6.194497e+003,1.611657e-001
6.198354e+003,1.643532e-001
6.202211e+003,1.633253e-001
6.206068e+003,1.574429e-001
6.209925e+003,1.599822e-001
6.213782e+003,1.600410e-001
6.217639e+003,1.593568e-001
6.221497e+003,1.637836e-001
6.225354e+003,1.607621e-001
6.229210e+003,1.711877e-001
6.233068e+003,1.759699e-001
6.236925e+003,1.771692e-001
6.240782e+003,1.747451e-001
6.244639e+003,1.701905e-001
6.248496e+003,1.718739e-001
6.252353e+003,1.769801e-001
6.256210e+003,1.754985e-001
6.260067e+003,1.677096e-001
6.263924e+003,1.668720e-001
6.267782e+003,1.791730e-001
6.271639e+003,1.859192e-001
6.275496e+003,1.756307e-001
6.279353e+003,1.709269e-001
6.283210e+003,1.760450e-001
6.287067e+003,1.755844e-001
6.290924e+003,1.657270e-001
6.294781e+003,1.506320e-001
6.298638e+003,1.471869e-001
6.302496e+003,1.478683e-001
6.306353e+003,1.453688e-001
6.310209e+003,1.513617e-001
6.314067e+003,1.485503e-001
6.317924e+003,1.453107e-001
6.321781e+003,1.544915e-001
6.325638e+003,1.632870e-001
6.329495e+003,1.579426e-001
6.333352e+003,1.507301e-001
6.337209e+003,1.572384e-001
6.341066e+003,1.641078e-001
6.344923e+003,1.736890e-001
6.348780e+003,1.660472e-001
6.352638e+003,1.521423e-001
6.356495e+003,1.673725e-001
6.360352e+003,1.825016e-001
6.364209e+003,1.833645e-001
6.368066e+003,1.872850e-001
6.371923e+003,1.916616e-001
6.375780e+003,1.857859e-001
6.379637e+003,1.726880e-001
6.383494e+003,1.736989e-001
6.387352e+003,1.756871e-001
6.391208e+003,1.610009e-001
6.395065e+003,1.549529e-001
6.398923e+003,1.692805e-001
6.402780e+003,1.696371e-001
6.406637e+003,1.611297e-001
6.410494e+003,1.578216e-001
6.414351e+003,1.508043e-001
6.418208e+003,1.543870e-001
6.422065e+003,1.686617e-001
6.425922e+003,1.753508e-001
6.429779e+003,1.645889e-001
6.433637e+003,1.584222e-001
6.437494e+003,1.620146e-001
6.441351e+003,1.595925e-001
6.445208e+003,1.615744e-001
6.449065e+003,1.694224e-001
6.452922e+003,1.700587e-001
6.456779e+003,1.639631e-001
6.460636e+003,1.672070e-001
6.464493e+003,1.700824e-001
6.468351e+003,1.640318e-001
6.472208e+003,1.724553e-001
6.476064e+003,1.787701e-001
6.479922e+003,1.662580e-001
6.483779e+003,1.528336e-001
6.487636e+003,1.590637e-001
6.491493e+003,1.721910e-001
6.495350e+003,1.684835e-001
6.499207e+003,1.636244e-001
6.503064e+003,1.670737e-001
6.506921e+003,1.723708e-001
6.510778e+003,1.876313e-001
6.514636e+003,1.865489e-001
6.518493e+003,1.616727e-001
6.522350e+003,1.672836e-001
6.526207e+003,1.871826e-001
6.530064e+003,1.810993e-001
6.533921e+003,1.649028e-001
6.537778e+003,1.580652e-001
6.541635e+003,1.796217e-001
6.545492e+003,1.781101e-001
6.549350e+003,1.648635e-001
6.553207e+003,1.692718e-001
6.557063e+003,1.728106e-001
6.560921e+003,1.688979e-001
6.564778e+003,1.613858e-001
6.568635e+003,1.644320e-001
6.572492e+003,1.592820e-001
6.576349e+003,1.866994e-001
6.580206e+003,2.003959e-001
6.584063e+003,1.769438e-001
6.587920e+003,1.702517e-001
6.591777e+003,1.821855e-001
6.595635e+003,2.005803e-001
6.599492e+003,2.040982e-001
6.603349e+003,1.900788e-001
6.607206e+003,1.693072e-001
6.611063e+003,1.747139e-001
6.614920e+003,1.859273e-001
6.618777e+003,1.770647e-001
6.622634e+003,1.825043e-001
6.626491e+003,1.734688e-001
6.630349e+003,1.669948e-001
6.634206e+003,1.752536e-001
6.638063e+003,1.702084e-001
6.641920e+003,1.733865e-001
6.645777e+003,1.712212e-001
6.649634e+003,1.767218e-001
6.653491e+003,1.778103e-001
6.657348e+003,1.621344e-001
6.661205e+003,1.627283e-001
6.665063e+003,1.737587e-001
6.668919e+003,1.594518e-001
6.672776e+003,1.639476e-001
6.676634e+003,1.665616e-001
6.680491e+003,1.682249e-001
6.684348e+003,1.756903e-001
6.688205e+003,1.843358e-001
6.692062e+003,1.732993e-001
6.695919e+003,1.652543e-001
6.699776e+003,1.662681e-001
6.703633e+003,1.796434e-001
6.707490e+003,1.891039e-001
6.711348e+003,1.843597e-001
6.715205e+003,1.838298e-001
6.719062e+003,1.857659e-001
6.722919e+003,1.840057e-001
6.726776e+003,1.762961e-001
6.730633e+003,1.659033e-001
6.734490e+003,1.778111e-001
6.738347e+003,1.750976e-001
6.742204e+003,1.752427e-001
6.746062e+003,1.697872e-001
6.749918e+003,1.777157e-001
6.753775e+003,1.886162e-001
6.757633e+003,1.866848e-001
6.761490e+003,1.814677e-001
6.765347e+003,1.825352e-001
6.769204e+003,1.666912e-001
6.773061e+003,1.566144e-001
6.776918e+003,1.620999e-001
6.780775e+003,1.688884e-001
6.784632e+003,1.678671e-001
6.788489e+003,1.775192e-001
6.792347e+003,1.730861e-001
6.796204e+003,1.517625e-001
6.800061e+003,1.437315e-001
6.803918e+003,1.636193e-001
6.807775e+003,1.790954e-001
6.811632e+003,1.757478e-001
6.815489e+003,1.662647e-001
6.819346e+003,1.706398e-001
6.823203e+003,1.870912e-001
6.827061e+003,1.788775e-001
6.830917e+003,1.773615e-001
6.834774e+003,1.711999e-001
6.838632e+003,1.799521e-001
6.842489e+003,1.924547e-001
6.846346e+003,1.865194e-001
6.850203e+003,1.786893e-001
6.854060e+003,1.884089e-001
6.857917e+003,1.966130e-001
6.861774e+003,2.006177e-001
6.865631e+003,1.857639e-001
6.869488e+003,1.784319e-001
6.873346e+003,1.948303e-001
6.877203e+003,1.818711e-001
6.881060e+003,1.621769e-001
6.884917e+003,1.822715e-001
6.888774e+003,1.923566e-001
6.892631e+003,1.887768e-001
6.896488e+003,1.899217e-001
6.900345e+003,2.008989e-001
6.904202e+003,2.109800e-001
6.908060e+003,1.972846e-001
6.911917e+003,1.759667e-001
6.915773e+003,1.603365e-001
6.919631e+003,1.555510e-001
6.923488e+003,1.717051e-001
6.927345e+003,1.775996e-001
6.931202e+003,1.716794e-001
6.935059e+003,1.822835e-001
6.938916e+003,2.085387e-001
6.942773e+003,2.129309e-001
6.946630e+003,2.124044e-001
6.950487e+003,1.882187e-001
6.954345e+003,1.753373e-001
6.958202e+003,2.017081e-001
6.962059e+003,2.053396e-001
6.965916e+003,1.800952e-001
6.969773e+003,1.720691e-001
6.973630e+003,1.970579e-001
6.977487e+003,2.014523e-001
6.981344e+003,1.928541e-001
6.985201e+003,1.900745e-001
6.989059e+003,1.711385e-001
6.992916e+003,1.508081e-001
6.996772e+003,1.552315e-001
7.000630e+003,1.745520e-001
7.004487e+003,1.808641e-001
7.008344e+003,1.696261e-001
7.012201e+003,1.805599e-001
7.016058e+003,1.894657e-001
7.019915e+003,1.956403e-001
7.023772e+003,1.834582e-001
7.027629e+003,1.633606e-001
7.031486e+003,1.759954e-001
7.035344e+003,1.898001e-001
7.039201e+003,1.874833e-001
7.043058e+003,1.643706e-001
7.046915e+003,1.526942e-001
7.050772e+003,1.687477e-001
7.054629e+003,1.939332e-001
7.058486e+003,1.995751e-001
7.062343e+003,1.820285e-001
7.066200e+003,1.812675e-001
7.070058e+003,1.937420e-001
7.073915e+003,1.698887e-001
7.077771e+003,1.867499e-001
7.081629e+003,1.815462e-001
7.085486e+003,1.718108e-001
7.089343e+003,1.967786e-001
7.093200e+003,2.136102e-001
7.097057e+003,2.219340e-001
7.100914e+003,1.995267e-001
7.104771e+003,1.870895e-001
7.108628e+003,1.852329e-001
7.112485e+003,1.890796e-001
7.116343e+003,1.991701e-001
7.120200e+003,1.886416e-001
7.124057e+003,1.695067e-001
7.127914e+003,1.817998e-001
7.131771e+003,1.791978e-001
7.135628e+003,1.552852e-001
7.139485e+003,1.570753e-001
7.143342e+003,1.829138e-001
7.147199e+003,1.909285e-001
7.151057e+003,1.743869e-001
7.154914e+003,1.539501e-001
7.158771e+003,1.635612e-001
7.162628e+003,1.672390e-001
7.166485e+003,1.712185e-001
7.170342e+003,1.747002e-001
7.174199e+003,1.551816e-001
7.178056e+003,1.452521e-001
7.181913e+003,1.638965e-001
7.185771e+003,1.845767e-001
7.189627e+003,2.051767e-001
7.193484e+003,2.200841e-001
7.197342e+003,1.944055e-001
7.201199e+003,1.669172e-001
7.205056e+003,1.801420e-001
7.208913e+003,1.927981e-001
7.212770e+003,1.905134e-001
7.216627e+003,1.782436e-001
7.220484e+003,1.803753e-001
7.224341e+003,1.970952e-001
7.228198e+003,2.115473e-001
7.232056e+003,1.743089e-001
7.235913e+003,1.811242e-001
7.239770e+003,2.049458e-001
7.243627e+003,1.853175e-001
7.247484e+003,1.609246e-001
7.251341e+003,1.630864e-001
7.255198e+003,2.056343e-001
7.259055e+003,2.146594e-001
7.262912e+003,2.036183e-001
7.266770e+003,1.891956e-001
7.270626e+003,1.824053e-001
7.274483e+003,1.777575e-001
7.278341e+003,1.667673e-001
7.282198e+003,1.668933e-001
7.286055e+003,1.499164e-001
7.289912e+003,1.609399e-001
7.293769e+003,1.739856e-001
7.297626e+003,1.602665e-001
7.301483e+003,1.807172e-001
7.305340e+003,1.949939e-001
7.309197e+003,1.953350e-001
7.313055e+003,1.735347e-001
7.316912e+003,1.787276e-001
7.320769e+003,1.783352e-001
7.324626e+003,2.011423e-001
7.328483e+003,1.968313e-001
7.332340e+003,1.503996e-001
7.336197e+003,1.339741e-001
7.340054e+003,1.663518e-001
7.343911e+003,1.655737e-001
7.347769e+003,1.582357e-001
7.351625e+003,1.750408e-001
7.355482e+003,2.089490e-001
7.359340e+003,2.587569e-001
7.363197e+003,2.411433e-001
7.367054e+003,1.878523e-001
7.370911e+003,1.643300e-001
7.374768e+003,1.792668e-001
7.378625e+003,1.710129e-001
7.382482e+003,1.560381e-001
7.386339e+003,1.600114e-001
7.390196e+003,1.569383e-001
7.394054e+003,1.724114e-001
7.397911e+003,1.756478e-001
7.401768e+003,1.763053e-001
7.405625e+003,1.965724e-001
7.409482e+003,1.848587e-001
7.413339e+003,1.567358e-001
7.417196e+003,1.421061e-001
7.421053e+003,1.145850e-001
7.424910e+003,1.124448e-001
7.428768e+003,1.191620e-001
7.432625e+003,1.473259e-001
7.436481e+003,1.719746e-001
7.440339e+003,2.180877e-001
7.444196e+003,2.473454e-001
7.448053e+003,2.435138e-001
7.451910e+003,2.252371e-001
7.455767e+003,2.119596e-001
7.459624e+003,2.274334e-001
7.463481e+003,2.056068e-001
7.467338e+003,2.000587e-001
7.471195e+003,2.063620e-001
7.475053e+003,1.752069e-001
7.478910e+003,1.630106e-001
7.482767e+003,1.678912e-001
7.486624e+003,2.141382e-001
7.490481e+003,2.153628e-001
7.494338e+003,1.747507e-001
7.498195e+003,1.162093e-001
7.502052e+003,1.130272e-001
7.505909e+003,1.519861e-001
7.509767e+003,2.166097e-001
7.513624e+003,2.747417e-001
7.517480e+003,2.747428e-001
7.521338e+003,2.254841e-001
7.525195e+003,2.004368e-001
7.529052e+003,1.938361e-001
7.532909e+003,1.873016e-001
7.536766e+003,1.950831e-001
7.540623e+003,2.034858e-001
7.544480e+003,1.981038e-001
7.548337e+003,1.824912e-001
7.552194e+003,1.607293e-001
7.556052e+003,2.118159e-001
7.559909e+003,2.143772e-001
7.563766e+003,1.772366e-001
7.567623e+003,1.901594e-001
7.571480e+003,1.958714e-001
7.575337e+003,1.727933e-001
7.579194e+003,1.796185e-001
7.583051e+003,1.996338e-001
7.586908e+003,2.082457e-001
7.590766e+003,2.083000e-001
7.594623e+003,1.939124e-001
7.598479e+003,1.928652e-001
7.602337e+003,2.231540e-001
7.606194e+003,2.273251e-001
7.610051e+003,2.076485e-001
7.613908e+003,2.108006e-001
7.617765e+003,2.122369e-001
7.621622e+003,2.221207e-001
7.625479e+003,2.208280e-001
7.629336e+003,2.168405e-001
7.633193e+003,2.174359e-001
7.637051e+003,1.867508e-001
7.640908e+003,1.692598e-001
7.644765e+003,2.018603e-001
7.648622e+003,1.951766e-001
7.652479e+003,1.895155e-001
7.656336e+003,2.025702e-001
7.660193e+003,2.329813e-001
7.664050e+003,2.183677e-001
7.667907e+003,1.819482e-001
7.671765e+003,1.801955e-001
7.675622e+003,1.796535e-001
7.679479e+003,1.696053e-001
7.683336e+003,1.104062e-001
7.687193e+003,8.050968e-002
7.691050e+003,1.707729e-001
7.694907e+003,2.285168e-001
7.698764e+003,2.100860e-001
7.702621e+003,2.283470e-001
7.706479e+003,2.413121e-001
7.710335e+003,2.095774e-001
7.714192e+003,1.894725e-001
7.718050e+003,1.543988e-001
7.721907e+003,1.409775e-001
7.725764e+003,1.742539e-001
7.729621e+003,2.319820e-001
7.733478e+003,2.346513e-001
7.737335e+003,2.336741e-001
7.741192e+003,2.446267e-001
7.745049e+003,2.330250e-001
7.748906e+003,1.397225e-001
7.752764e+003,1.479551e-001
7.756621e+003,2.366228e-001
7.760478e+003,2.628460e-001
7.764335e+003,2.362602e-001
7.768192e+003,2.090140e-001
7.772049e+003,2.016570e-001
7.775906e+003,2.044761e-001
7.779763e+003,1.722622e-001
7.783620e+003,2.094082e-001
7.787478e+003,2.056296e-001
7.791334e+003,1.791790e-001
7.795191e+003,2.358682e-001
7.799049e+003,2.048431e-001
7.802906e+003,1.712077e-001
7.806763e+003,2.137912e-001
7.810620e+003,2.546792e-001
7.814477e+003,2.214267e-001
7.818334e+003,1.996270e-001
7.822191e+003,1.843879e-001
7.826048e+003,1.793760e-001
7.829905e+003,1.584870e-001
7.833763e+003,1.369638e-001
7.837620e+003,9.971078e-002
7.841477e+003,1.219847e-001
7.845334e+003,1.824949e-001
7.849191e+003,1.969980e-001
7.853048e+003,1.678802e-001
7.856905e+003,1.591031e-001
7.860762e+003,1.919151e-001
7.864619e+003,2.069193e-001
7.868477e+003,1.865013e-001
7.872333e+003,1.590443e-001
7.876190e+003,1.507194e-001
7.880048e+003,1.180257e-001
7.883905e+003,1.178966e-001
7.887762e+003,1.898921e-001
7.891619e+003,1.998858e-001
7.895476e+003,1.892594e-001
7.899333e+003,1.852356e-001
7.903190e+003,1.713749e-001
7.907047e+003,1.916846e-001
7.910904e+003,1.713057e-001
7.914762e+003,1.105764e-001
7.918619e+003,8.257321e-002
7.922476e+003,1.215337e-001
7.926333e+003,1.407261e-001
7.930190e+003,1.641605e-001
7.934047e+003,1.592105e-001
7.937904e+003,1.394861e-001
7.941761e+003,1.798652e-001
7.945618e+003,2.125857e-001
7.949476e+003,2.553971e-001
7.953333e+003,2.692322e-001
7.957189e+003,2.561845e-001
7.961047e+003,2.209422e-001
7.964904e+003,1.508995e-001
7.968761e+003,1.124525e-001
7.972618e+003,2.255008e-001
7.976475e+003,3.490050e-001
7.980332e+003,2.907745e-001
7.984189e+003,1.360756e-001
7.988046e+003,9.516442e-002
7.991903e+003,1.088346e-001
7.995761e+003,1.663514e-001
7.999618e+003,1.968433e-001
