4.011380e+002,6.000000e+000
4.049951e+002,-8.338847e-001
4.088522e+002,6.000000e+000
4.127093e+002,6.000000e+000
4.165664e+002,6.205286e-001
4.204235e+002,6.000000e+000
4.242806e+002,6.000000e+000
4.281377e+002,1.648360e-001
4.319948e+002,-3.477498e-001
4.358519e+002,-2.327062e-001
4.397090e+002,6.000000e+000
4.435661e+002,6.000000e+000
4.474232e+002,-2.561496e-001
4.512803e+002,4.247490e-002
4.551374e+002,6.000000e+000
4.589945e+002,6.000000e+000
4.628516e+002,4.364094e-001
4.667087e+002,6.000000e+000
4.705658e+002,6.000000e+000
4.744229e+002,-7.771327e-001
4.782800e+002,6.000000e+000
4.821371e+002,9.681588e-001
4.859941e+002,6.000000e+000
4.898513e+002,-2.768850e-001
4.937083e+002,-1.084379e-001
4.975654e+002,-7.850319e-001
5.014225e+002,-9.033731e-002
5.052796e+002,6.000000e+000
5.091367e+002,4.827266e-001
5.129938e+002,6.000000e+000
5.168509e+002,-6.590642e-001
5.207080e+002,7.550256e-002
5.245651e+002,6.784695e-001
5.284222e+002,6.000000e+000
5.322793e+002,6.000000e+000
5.361364e+002,6.000000e+000
5.399935e+002,6.000000e+000
5.438506e+002,6.000000e+000
5.477077e+002,6.253927e-001
5.515648e+002,6.000000e+000
5.554219e+002,6.000000e+000
5.592790e+002,-9.794419e-001
5.631361e+002,3.675835e-001
5.669932e+002,6.000000e+000
5.708503e+002,6.000000e+000
5.747074e+002,9.395561e-001
5.785645e+002,4.993184e-002
5.824216e+002,6.000000e+000
5.862787e+002,5.097166e-001
5.901357e+002,6.000000e+000
5.939929e+002,6.000000e+000
5.978499e+002,6.000000e+000
6.017070e+002,-4.357362e-001
6.055641e+002,1.420693e-001
6.094212e+002,6.000000e+000
6.132783e+002,6.000000e+000
6.171354e+002,-2.128886e+000
6.209925e+002,-1.043778e-001
6.248496e+002,6.300745e-001
6.287067e+002,6.000000e+000
6.325638e+002,6.000000e+000
6.364209e+002,1.140327e+000
6.402780e+002,6.000000e+000
6.441351e+002,6.000000e+000
6.479922e+002,6.000000e+000
6.518493e+002,6.000000e+000
6.557064e+002,2.269398e+000
6.595635e+002,6.000000e+000
6.634205e+002,6.000000e+000
6.672777e+002,6.000000e+000
6.711348e+002,6.000000e+000
6.749918e+002,6.000000e+000
6.788490e+002,6.000000e+000
6.827061e+002,6.000000e+000
6.865631e+002,6.000000e+000
6.904203e+002,-1.570060e+000
6.942773e+002,-1.102508e+000
6.981344e+002,1.083392e+000
7.019916e+002,6.000000e+000
7.058486e+002,6.000000e+000
7.097057e+002,-1.439004e+000
7.135629e+002,-2.126615e+000
7.174199e+002,6.000000e+000
7.212770e+002,6.000000e+000
7.251342e+002,1.336918e+000
7.289912e+002,-6.461889e-001
7.328483e+002,3.814997e-001
7.367054e+002,6.000000e+000
7.405625e+002,6.000000e+000
7.444196e+002,6.000000e+000
7.482767e+002,6.000000e+000
7.521338e+002,6.000000e+000
7.559908e+002,6.000000e+000
7.598480e+002,-2.126220e-001
7.637051e+002,-1.240967e+000
7.675621e+002,-9.476727e-001
7.714193e+002,6.000000e+000
7.752764e+002,6.000000e+000
7.791334e+002,6.900337e-002
7.829905e+002,-4.990098e-001
7.868477e+002,7.023449e-003
7.907047e+002,6.000000e+000
7.945618e+002,-7.433382e-002
7.984189e+002,7.924799e-003
8.022760e+002,-8.383935e-001
8.061331e+002,6.000000e+000
8.099902e+002,3.169661e-001
8.138473e+002,1.125561e+000
8.177044e+002,6.000000e+000
8.215615e+002,6.000000e+000
8.254186e+002,6.814707e-001
8.292757e+002,1.492950e+000
8.331328e+002,6.000000e+000
8.369899e+002,1.629132e+000
8.408470e+002,6.000000e+000
8.447041e+002,1.820801e+000
8.485612e+002,1.035085e+000
8.524183e+002,1.903740e+000
8.562754e+002,1.865653e+000
8.601324e+002,6.000000e+000
8.639896e+002,1.211027e+000
8.678467e+002,9.458584e-001
8.717037e+002,9.556816e-001
8.755609e+002,1.027924e+000
8.794180e+002,1.550958e+000
8.832750e+002,6.000000e+000
8.871321e+002,6.000000e+000
8.909893e+002,6.000000e+000
8.948463e+002,6.000000e+000
8.987034e+002,6.000000e+000
9.025605e+002,1.662883e+000
9.064176e+002,1.684362e+000
9.102747e+002,1.884028e+000
9.141318e+002,1.690764e+000
9.179889e+002,6.000000e+000
9.218461e+002,6.000000e+000
9.257031e+002,6.000000e+000
9.295602e+002,6.000000e+000
9.334174e+002,6.000000e+000
9.372744e+002,6.000000e+000
9.411315e+002,6.000000e+000
9.449886e+002,6.000000e+000
9.488457e+002,6.000000e+000
9.527028e+002,1.816105e+000
9.565599e+002,1.589138e+000
9.604170e+002,1.865747e+000
9.642740e+002,3.009583e+000
9.681312e+002,3.084325e+000
9.719883e+002,3.211530e+000
9.758453e+002,6.000000e+000
9.797025e+002,2.892847e+000
9.835596e+002,1.911753e+000
9.874166e+002,2.056666e+000
9.912738e+002,1.802794e+000
9.951309e+002,1.733708e+000
9.989879e+002,1.898917e+000
1.002845e+003,1.756502e+000
1.006702e+003,1.755255e+000
1.010559e+003,1.854500e+000
1.014416e+003,1.770210e+000
1.018273e+003,1.703608e+000
1.022130e+003,1.748896e+000
1.025988e+003,1.850377e+000
1.029845e+003,2.063262e+000
1.033702e+003,2.181917e+000
1.037559e+003,1.938269e+000
1.041416e+003,1.694444e+000
1.045273e+003,1.570374e+000
1.049130e+003,1.711406e+000
1.052987e+003,1.871183e+000
1.056844e+003,1.765233e+000
1.060702e+003,1.752214e+000
1.064559e+003,1.707977e+000
1.068416e+003,1.717649e+000
1.072273e+003,1.719552e+000
1.076130e+003,1.747338e+000
1.079987e+003,1.716708e+000
1.083844e+003,1.665598e+000
1.087701e+003,1.650734e+000
1.091558e+003,1.658095e+000
1.095415e+003,1.688296e+000
1.099272e+003,1.710532e+000
1.103130e+003,1.707522e+000
1.106987e+003,1.674325e+000
1.110844e+003,1.636275e+000
1.114701e+003,1.592572e+000
1.118558e+003,1.532153e+000
1.122415e+003,1.513985e+000
1.126272e+003,1.532797e+000
1.130129e+003,1.568382e+000
1.133986e+003,1.534665e+000
1.137843e+003,1.446671e+000
1.141701e+003,1.468331e+000
1.145558e+003,1.513649e+000
1.149415e+003,1.467999e+000
1.153272e+003,1.446245e+000
1.157129e+003,1.487557e+000
1.160986e+003,1.459560e+000
1.164843e+003,1.461154e+000
1.168700e+003,1.508272e+000
1.172557e+003,1.471989e+000
1.176414e+003,1.450938e+000
1.180271e+003,1.440115e+000
1.184129e+003,1.445320e+000
1.187986e+003,1.473722e+000
1.191843e+003,1.477782e+000
1.195700e+003,1.417304e+000
1.199557e+003,1.364684e+000
1.203414e+003,1.356147e+000
1.207271e+003,1.332871e+000
1.211128e+003,1.266562e+000
1.214985e+003,1.203896e+000
1.218842e+003,1.102271e+000
1.222699e+003,1.019781e+000
1.226557e+003,9.741488e-001
1.230414e+003,9.027472e-001
1.234271e+003,8.350353e-001
1.238128e+003,7.852545e-001
1.241985e+003,7.448301e-001
1.245842e+003,7.050393e-001
1.249699e+003,6.687030e-001
1.253556e+003,6.364702e-001
1.257413e+003,6.130192e-001
1.261271e+003,5.942077e-001
1.265128e+003,5.788909e-001
1.268985e+003,5.585737e-001
1.272842e+003,5.409721e-001
1.276699e+003,5.218501e-001
1.280556e+003,5.059550e-001
1.284413e+003,4.938717e-001
1.288270e+003,4.805975e-001
1.292127e+003,4.729957e-001
1.295984e+003,4.663210e-001
1.299841e+003,4.582460e-001
1.303698e+003,4.465544e-001
1.307556e+003,4.309036e-001
1.311413e+003,4.222780e-001
1.315270e+003,4.206916e-001
1.319127e+003,4.170759e-001
1.322984e+003,4.117681e-001
1.326841e+003,4.094219e-001
1.330698e+003,4.053724e-001
1.334555e+003,4.013402e-001
1.338412e+003,3.999722e-001
1.342270e+003,3.968025e-001
1.346127e+003,3.916819e-001
1.349984e+003,3.909059e-001
1.353841e+003,3.909786e-001
1.357698e+003,3.930844e-001
1.361555e+003,3.931693e-001
1.365412e+003,3.950734e-001
1.369269e+003,4.008484e-001
1.373126e+003,4.061301e-001
1.376983e+003,4.172709e-001
1.380840e+003,4.275043e-001
1.384698e+003,4.378748e-001
1.388555e+003,4.530017e-001
1.392412e+003,4.658490e-001
1.396269e+003,4.776994e-001
1.400126e+003,4.904138e-001
1.403983e+003,5.031728e-001
1.407840e+003,5.151426e-001
1.411697e+003,5.238335e-001
1.415554e+003,5.341238e-001
1.419411e+003,5.466149e-001
1.423269e+003,5.553684e-001
1.427126e+003,5.594693e-001
1.430983e+003,5.591345e-001
1.434840e+003,5.588104e-001
1.438697e+003,5.554221e-001
1.442554e+003,5.494173e-001
1.446411e+003,5.440887e-001
1.450268e+003,5.423517e-001
1.454125e+003,5.370455e-001
1.457982e+003,5.315559e-001
1.461839e+003,5.295050e-001
1.465697e+003,5.221807e-001
1.469554e+003,5.146461e-001
1.473411e+003,5.114963e-001
1.477268e+003,5.133803e-001
1.481125e+003,5.232995e-001
1.484982e+003,5.355788e-001
1.488839e+003,5.436494e-001
1.492696e+003,5.486893e-001
1.496553e+003,5.547002e-001
1.500411e+003,5.601550e-001
1.504268e+003,5.675197e-001
1.508125e+003,5.744392e-001
1.511982e+003,5.726686e-001
1.515839e+003,5.724738e-001
1.519696e+003,5.721368e-001
1.523553e+003,5.658612e-001
1.527410e+003,5.587496e-001
1.531267e+003,5.557300e-001
1.535124e+003,5.484195e-001
1.538981e+003,5.332282e-001
1.542839e+003,5.198055e-001
1.546696e+003,5.120293e-001
1.550553e+003,5.027041e-001
1.554410e+003,4.925359e-001
1.558267e+003,4.853894e-001
1.562124e+003,4.757859e-001
1.565981e+003,4.630777e-001
1.569838e+003,4.509172e-001
1.573695e+003,4.434164e-001
1.577552e+003,4.380586e-001
1.581410e+003,4.336030e-001
1.585267e+003,4.307755e-001
1.589124e+003,4.323545e-001
1.592981e+003,4.387714e-001
1.596838e+003,4.484650e-001
1.600695e+003,4.593566e-001
1.604552e+003,4.716262e-001
1.608409e+003,4.886768e-001
1.612266e+003,5.113409e-001
1.616123e+003,5.352968e-001
1.619980e+003,5.613671e-001
1.623838e+003,5.856332e-001
1.627695e+003,6.016294e-001
1.631552e+003,6.186194e-001
1.635409e+003,6.292833e-001
1.639266e+003,6.338234e-001
1.643123e+003,6.286642e-001
1.646980e+003,6.157178e-001
1.650837e+003,5.982741e-001
1.654694e+003,5.790622e-001
1.658551e+003,5.599799e-001
1.662409e+003,5.387924e-001
1.666266e+003,5.169498e-001
1.670123e+003,4.945833e-001
1.673980e+003,4.752441e-001
1.677837e+003,4.561800e-001
1.681694e+003,4.391516e-001
1.685551e+003,4.286439e-001
1.689408e+003,4.198231e-001
1.693265e+003,4.044682e-001
1.697122e+003,3.935552e-001
1.700979e+003,3.872800e-001
1.704837e+003,3.811302e-001
1.708694e+003,3.780875e-001
1.712551e+003,3.776940e-001
1.716408e+003,3.771217e-001
1.720265e+003,3.737354e-001
1.724122e+003,3.696075e-001
1.727979e+003,3.654216e-001
1.731836e+003,3.648410e-001
1.735693e+003,3.620941e-001
1.739550e+003,3.543460e-001
1.743408e+003,3.491523e-001
1.747265e+003,3.488892e-001
1.751122e+003,3.454325e-001
1.754979e+003,3.415082e-001
1.758836e+003,3.396113e-001
1.762693e+003,3.401308e-001
1.766550e+003,3.417172e-001
1.770407e+003,3.419093e-001
1.774264e+003,3.415813e-001
1.778121e+003,3.434465e-001
1.781979e+003,3.456134e-001
1.785836e+003,3.456799e-001
1.789693e+003,3.461137e-001
1.793550e+003,3.447089e-001
1.797407e+003,3.443717e-001
1.801264e+003,3.449947e-001
1.805121e+003,3.440767e-001
1.808978e+003,3.405955e-001
1.812835e+003,3.413125e-001
1.816692e+003,3.422908e-001
1.820549e+003,3.371807e-001
1.824407e+003,3.311242e-001
1.828264e+003,3.297104e-001
1.832121e+003,3.282531e-001
1.835978e+003,3.249650e-001
1.839835e+003,3.215398e-001
1.843692e+003,3.175394e-001
1.847549e+003,3.141562e-001
1.851406e+003,3.113514e-001
1.855263e+003,3.104176e-001
1.859120e+003,3.105884e-001
1.862978e+003,3.109891e-001
1.866835e+003,3.090777e-001
1.870692e+003,3.099203e-001
1.874549e+003,3.133255e-001
1.878406e+003,3.147649e-001
1.882263e+003,3.153133e-001
1.886120e+003,3.165640e-001
1.889977e+003,3.209306e-001
1.893834e+003,3.209270e-001
1.897691e+003,3.190629e-001
1.901548e+003,3.204861e-001
1.905406e+003,3.181296e-001
1.909263e+003,3.165721e-001
1.913120e+003,3.170548e-001
1.916977e+003,3.137816e-001
1.920834e+003,3.072314e-001
1.924691e+003,3.018537e-001
1.928548e+003,2.978442e-001
1.932405e+003,2.945087e-001
1.936262e+003,2.917080e-001
1.940119e+003,2.895746e-001
1.943977e+003,2.887536e-001
1.947834e+003,2.881038e-001
1.951691e+003,2.864133e-001
1.955548e+003,2.856540e-001
1.959405e+003,2.878107e-001
1.963262e+003,2.898916e-001
1.967119e+003,2.890172e-001
1.970976e+003,2.892483e-001
1.974833e+003,2.907453e-001
1.978690e+003,2.931748e-001
1.982547e+003,2.947521e-001
1.986405e+003,2.924143e-001
1.990262e+003,2.923974e-001
1.994119e+003,2.925795e-001
1.997976e+003,2.914753e-001
2.001833e+003,2.895063e-001
2.005690e+003,2.852193e-001
2.009547e+003,2.816453e-001
2.013404e+003,2.805674e-001
2.017261e+003,2.773882e-001
2.021118e+003,2.735010e-001
2.024976e+003,2.701555e-001
2.028833e+003,2.684020e-001
2.032690e+003,2.698452e-001
2.036547e+003,2.692918e-001
2.040404e+003,2.674703e-001
2.044261e+003,2.672753e-001
2.048118e+003,2.660098e-001
2.051975e+003,2.650129e-001
2.055832e+003,2.658100e-001
2.059689e+003,2.668992e-001
2.063546e+003,2.678290e-001
2.067404e+003,2.697199e-001
2.071261e+003,2.723031e-001
2.075118e+003,2.757295e-001
2.078975e+003,2.765672e-001
2.082832e+003,2.748191e-001
2.086689e+003,2.717651e-001
2.090546e+003,2.700394e-001
2.094403e+003,2.696444e-001
2.098260e+003,2.677990e-001
2.102117e+003,2.668604e-001
2.105975e+003,2.658696e-001
2.109832e+003,2.637723e-001
2.113689e+003,2.612886e-001
2.117546e+003,2.583379e-001
2.121403e+003,2.561991e-001
2.125260e+003,2.556376e-001
2.129117e+003,2.534954e-001
2.132974e+003,2.539847e-001
2.136831e+003,2.567985e-001
2.140688e+003,2.597585e-001
2.144545e+003,2.637115e-001
2.148403e+003,2.636405e-001
2.152260e+003,2.627006e-001
2.156117e+003,2.646035e-001
2.159974e+003,2.674694e-001
2.163831e+003,2.697165e-001
2.167688e+003,2.716281e-001
2.171545e+003,2.715478e-001
2.175402e+003,2.714551e-001
2.179259e+003,2.713971e-001
2.183116e+003,2.707347e-001
2.186974e+003,2.693989e-001
2.190831e+003,2.657890e-001
2.194688e+003,2.648720e-001
2.198545e+003,2.664304e-001
2.202402e+003,2.654457e-001
2.206259e+003,2.637781e-001
2.210116e+003,2.636340e-001
2.213973e+003,2.627013e-001
2.217830e+003,2.613399e-001
2.221688e+003,2.598918e-001
2.225544e+003,2.600374e-001
2.229402e+003,2.625173e-001
2.233259e+003,2.675408e-001
2.237116e+003,2.703706e-001
2.240973e+003,2.719781e-001
2.244830e+003,2.743322e-001
2.248687e+003,2.738970e-001
2.252544e+003,2.739324e-001
2.256401e+003,2.749317e-001
2.260258e+003,2.775351e-001
2.264115e+003,2.802297e-001
2.267973e+003,2.820781e-001
2.271830e+003,2.819250e-001
2.275687e+003,2.805967e-001
2.279544e+003,2.795793e-001
2.283401e+003,2.804841e-001
2.287258e+003,2.795259e-001
2.291115e+003,2.778487e-001
2.294972e+003,2.780365e-001
2.298829e+003,2.772536e-001
2.302687e+003,2.768896e-001
2.306543e+003,2.762606e-001
2.310401e+003,2.740404e-001
2.314258e+003,2.737080e-001
2.318115e+003,2.749076e-001
2.321972e+003,2.723849e-001
2.325829e+003,2.685582e-001
2.329686e+003,2.659798e-001
2.333543e+003,2.685562e-001
2.337400e+003,2.741264e-001
2.341257e+003,2.737136e-001
2.345115e+003,2.752874e-001
2.348972e+003,2.787279e-001
2.352829e+003,2.765785e-001
2.356686e+003,2.754618e-001
2.360543e+003,2.787784e-001
2.364400e+003,2.751823e-001
2.368257e+003,2.737224e-001
2.372114e+003,2.780695e-001
2.375971e+003,2.818551e-001
2.379828e+003,2.837695e-001
2.383686e+003,2.834368e-001
2.387542e+003,2.798939e-001
2.391400e+003,2.761117e-001
2.395257e+003,2.747730e-001
2.399114e+003,2.757442e-001
2.402971e+003,2.746494e-001
2.406828e+003,2.727932e-001
2.410685e+003,2.725220e-001
2.414542e+003,2.722746e-001
2.418399e+003,2.724761e-001
2.422256e+003,2.731196e-001
2.426114e+003,2.728875e-001
2.429971e+003,2.719168e-001
2.433828e+003,2.694958e-001
2.437685e+003,2.691837e-001
2.441542e+003,2.710181e-001
2.445399e+003,2.718692e-001
2.449256e+003,2.712514e-001
2.453113e+003,2.710466e-001
2.456970e+003,2.720843e-001
2.460827e+003,2.710569e-001
2.464684e+003,2.691578e-001
2.468542e+003,2.688852e-001
2.472399e+003,2.679375e-001
2.476256e+003,2.652419e-001
2.480113e+003,2.645229e-001
2.483970e+003,2.656420e-001
2.487827e+003,2.629794e-001
2.491684e+003,2.617037e-001
2.495541e+003,2.634409e-001
2.499398e+003,2.641690e-001
2.503255e+003,2.607164e-001
2.507113e+003,2.589679e-001
2.510969e+003,2.607824e-001
2.514827e+003,2.621045e-001
2.518684e+003,2.618967e-001
2.522541e+003,2.631156e-001
2.526398e+003,2.645063e-001
2.530255e+003,2.647007e-001
2.534112e+003,2.657828e-001
2.537969e+003,2.670626e-001
2.541826e+003,2.694227e-001
2.545683e+003,2.708845e-001
2.549541e+003,2.721590e-001
2.553398e+003,2.728458e-001
2.557255e+003,2.729416e-001
2.561112e+003,2.730890e-001
2.564969e+003,2.727520e-001
2.568826e+003,2.745362e-001
2.572683e+003,2.762856e-001
2.576540e+003,2.776422e-001
2.580397e+003,2.778708e-001
2.584254e+003,2.763743e-001
2.588112e+003,2.765468e-001
2.591969e+003,2.777051e-001
2.595826e+003,2.792495e-001
2.599683e+003,2.819204e-001
2.603540e+003,2.842959e-001
2.607397e+003,2.835547e-001
2.611254e+003,2.823594e-001
2.615111e+003,2.835398e-001
2.618968e+003,2.869363e-001
2.622825e+003,2.908178e-001
2.626682e+003,2.945904e-001
2.630540e+003,2.963504e-001
2.634397e+003,2.976653e-001
2.638254e+003,2.998337e-001
2.642111e+003,3.033911e-001
2.645968e+003,3.060029e-001
2.649825e+003,3.071593e-001
2.653682e+003,3.104704e-001
2.657539e+003,3.140337e-001
2.661396e+003,3.177780e-001
2.665253e+003,3.198797e-001
2.669111e+003,3.199238e-001
2.672968e+003,3.205015e-001
2.676825e+003,3.236780e-001
2.680682e+003,3.270502e-001
2.684539e+003,3.283011e-001
2.688396e+003,3.287041e-001
2.692253e+003,3.305591e-001
2.696110e+003,3.350531e-001
2.699967e+003,3.371691e-001
2.703824e+003,3.389549e-001
2.707681e+003,3.404621e-001
2.711539e+003,3.406456e-001
2.715396e+003,3.447773e-001
2.719253e+003,3.504820e-001
2.723110e+003,3.554643e-001
2.726967e+003,3.584207e-001
2.730824e+003,3.607383e-001
2.734681e+003,3.646420e-001
2.738538e+003,3.672614e-001
2.742395e+003,3.696666e-001
2.746252e+003,3.719485e-001
2.750110e+003,3.767136e-001
2.753967e+003,3.793896e-001
2.757824e+003,3.794386e-001
2.761681e+003,3.817290e-001
2.765538e+003,3.861800e-001
2.769395e+003,3.907136e-001
2.773252e+003,3.957014e-001
2.777109e+003,3.984867e-001
2.780966e+003,4.007101e-001
2.784823e+003,4.026959e-001
2.788680e+003,4.062758e-001
2.792538e+003,4.085443e-001
2.796395e+003,4.117080e-001
2.800252e+003,4.151135e-001
2.804109e+003,4.182753e-001
2.807966e+003,4.209391e-001
2.811823e+003,4.247471e-001
2.815680e+003,4.292213e-001
2.819537e+003,4.329059e-001
2.823394e+003,4.363845e-001
2.827251e+003,4.411084e-001
2.831109e+003,4.449915e-001
2.834966e+003,4.471740e-001
2.838823e+003,4.498576e-001
2.842680e+003,4.559562e-001
2.846537e+003,4.617978e-001
2.850394e+003,4.648531e-001
2.854251e+003,4.672183e-001
2.858108e+003,4.740731e-001
2.861965e+003,4.768060e-001
2.865823e+003,4.787634e-001
2.869679e+003,4.833092e-001
2.873537e+003,4.871679e-001
2.877394e+003,4.919848e-001
2.881251e+003,4.970861e-001
2.885108e+003,4.992177e-001
2.888965e+003,5.017403e-001
2.892822e+003,5.075874e-001
2.896679e+003,5.133544e-001
2.900536e+003,5.168418e-001
2.904393e+003,5.202054e-001
2.908250e+003,5.257442e-001
2.912108e+003,5.307608e-001
2.915965e+003,5.387656e-001
2.919822e+003,5.489877e-001
2.923679e+003,5.561202e-001
2.927536e+003,5.548072e-001
2.931393e+003,5.544243e-001
2.935250e+003,5.590335e-001
2.939107e+003,5.617575e-001
2.942964e+003,5.635476e-001
2.946822e+003,5.689210e-001
2.950678e+003,5.755245e-001
2.954536e+003,5.829129e-001
2.958393e+003,5.896875e-001
2.962250e+003,5.926424e-001
2.966107e+003,5.949970e-001
2.969964e+003,5.994045e-001
2.973821e+003,6.025142e-001
2.977678e+003,6.042897e-001
2.981535e+003,6.092053e-001
2.985392e+003,6.162494e-001
2.989250e+003,6.196722e-001
2.993107e+003,6.226715e-001
2.996964e+003,6.244003e-001
3.000821e+003,6.291226e-001
3.004678e+003,6.336887e-001
3.008535e+003,6.433693e-001
3.012392e+003,6.491181e-001
3.016249e+003,6.494244e-001
3.020106e+003,6.512061e-001
3.023963e+003,6.648433e-001
3.027821e+003,6.719257e-001
3.031677e+003,6.738304e-001
3.035535e+003,6.776527e-001
3.039392e+003,6.794902e-001
3.043249e+003,6.830222e-001
3.047106e+003,6.941491e-001
3.050963e+003,7.038055e-001
3.054820e+003,7.121112e-001
3.058677e+003,7.209332e-001
3.062534e+003,7.219329e-001
3.066391e+003,7.265056e-001
3.070249e+003,7.309484e-001
3.074106e+003,7.334234e-001
3.077963e+003,7.391668e-001
3.081820e+003,7.449000e-001
3.085677e+003,7.502434e-001
3.089534e+003,7.569655e-001
3.093391e+003,7.638475e-001
3.097248e+003,7.739086e-001
3.101105e+003,7.748963e-001
3.104962e+003,7.713113e-001
3.108820e+003,7.756966e-001
3.112677e+003,7.894537e-001
3.116534e+003,7.928882e-001
3.120391e+003,7.990477e-001
3.124248e+003,8.094929e-001
3.128105e+003,8.199198e-001
3.131962e+003,8.297469e-001
3.135819e+003,8.327386e-001
3.139676e+003,8.366678e-001
3.143533e+003,8.396209e-001
3.147390e+003,8.450873e-001
3.151248e+003,8.523790e-001
3.155105e+003,8.551821e-001
3.158962e+003,8.615252e-001
3.162819e+003,8.691556e-001
3.166676e+003,8.740364e-001
3.170533e+003,8.867092e-001
3.174390e+003,8.922292e-001
3.178247e+003,8.917488e-001
3.182104e+003,9.004105e-001
3.185961e+003,9.111640e-001
3.189819e+003,9.148499e-001
3.193676e+003,9.255103e-001
3.197533e+003,9.333123e-001
3.201390e+003,9.383982e-001
3.205247e+003,9.421906e-001
3.209104e+003,9.484979e-001
3.212961e+003,9.540275e-001
3.216818e+003,9.539663e-001
3.220675e+003,9.641726e-001
3.224532e+003,9.711514e-001
3.228389e+003,9.756774e-001
3.232247e+003,9.849905e-001
3.236104e+003,9.966338e-001
3.239961e+003,9.975178e-001
3.243818e+003,1.001163e+000
3.247675e+003,9.968866e-001
3.251532e+003,9.867455e-001
3.255389e+003,9.934280e-001
3.259246e+003,1.003446e+000
3.263103e+003,1.017703e+000
3.266960e+003,1.034477e+000
3.270818e+003,1.031589e+000
3.274675e+003,1.022030e+000
3.278532e+003,1.025353e+000
3.282389e+003,1.036239e+000
3.286246e+003,1.048170e+000
3.290103e+003,1.059981e+000
3.293960e+003,1.067400e+000
3.297817e+003,1.068917e+000
3.301674e+003,1.068165e+000
3.305531e+003,1.057640e+000
3.309388e+003,1.071671e+000
3.313246e+003,1.089762e+000
3.317103e+003,1.088362e+000
3.320960e+003,1.094509e+000
3.324817e+003,1.112759e+000
3.328674e+003,1.111127e+000
3.332531e+003,1.117850e+000
3.336388e+003,1.132431e+000
3.340245e+003,1.129112e+000
3.344102e+003,1.131235e+000
3.347959e+003,1.140293e+000
3.351817e+003,1.156109e+000
3.355674e+003,1.168745e+000
3.359531e+003,1.189743e+000
3.363388e+003,1.196534e+000
3.367245e+003,1.183505e+000
3.371102e+003,1.179194e+000
3.374959e+003,1.172436e+000
3.378816e+003,1.168394e+000
3.382673e+003,1.177555e+000
3.386530e+003,1.193700e+000
3.390387e+003,1.200541e+000
3.394245e+003,1.195395e+000
3.398102e+003,1.189542e+000
3.401959e+003,1.209981e+000
3.405816e+003,1.229869e+000
3.409673e+003,1.225360e+000
3.413530e+003,1.226376e+000
3.417387e+003,1.239274e+000
3.421244e+003,1.247825e+000
3.425101e+003,1.247970e+000
3.428958e+003,1.244094e+000
3.432815e+003,1.240409e+000
3.436673e+003,1.231088e+000
3.440530e+003,1.226629e+000
3.444387e+003,1.247573e+000
3.448244e+003,1.286048e+000
3.452101e+003,1.278500e+000
3.455958e+003,1.235983e+000
3.459815e+003,1.246496e+000
3.463672e+003,1.254385e+000
3.467529e+003,1.240862e+000
3.471386e+003,1.273662e+000
3.475244e+003,1.280300e+000
3.479101e+003,1.273157e+000
3.482958e+003,1.276040e+000
3.486815e+003,1.269946e+000
3.490672e+003,1.281117e+000
3.494529e+003,1.296501e+000
3.498386e+003,1.288704e+000
3.502243e+003,1.279180e+000
3.506100e+003,1.266473e+000
3.509958e+003,1.276925e+000
3.513814e+003,1.283394e+000
3.517672e+003,1.289163e+000
3.521529e+003,1.274361e+000
3.525386e+003,1.277919e+000
3.529243e+003,1.271757e+000
3.533100e+003,1.273659e+000
3.536957e+003,1.267639e+000
3.540814e+003,1.257683e+000
3.544671e+003,1.273520e+000
3.548528e+003,1.278170e+000
3.552385e+003,1.271218e+000
3.556243e+003,1.246931e+000
3.560100e+003,1.246375e+000
3.563957e+003,1.252352e+000
3.567814e+003,1.234661e+000
3.571671e+003,1.228174e+000
3.575528e+003,1.219404e+000
3.579385e+003,1.204486e+000
3.583242e+003,1.182843e+000
3.587099e+003,1.145130e+000
3.590957e+003,1.117466e+000
3.594813e+003,1.082858e+000
3.598671e+003,1.049702e+000
3.602528e+003,1.034558e+000
3.606385e+003,1.009672e+000
3.610242e+003,9.528853e-001
3.614099e+003,9.081555e-001
3.617956e+003,8.673409e-001
3.621813e+003,8.213724e-001
3.625670e+003,7.746415e-001
3.629527e+003,7.194099e-001
3.633385e+003,6.643469e-001
3.637242e+003,6.152998e-001
3.641099e+003,5.710049e-001
3.644956e+003,5.239280e-001
3.648813e+003,4.782405e-001
3.652670e+003,4.386487e-001
3.656527e+003,3.990328e-001
3.660384e+003,3.610530e-001
3.664241e+003,3.267618e-001
3.668098e+003,2.965428e-001
3.671956e+003,2.701942e-001
3.675813e+003,2.445320e-001
3.679670e+003,2.228814e-001
3.683527e+003,2.068221e-001
3.687384e+003,1.903094e-001
3.691241e+003,1.752837e-001
3.695098e+003,1.622284e-001
3.698955e+003,1.506315e-001
3.702812e+003,1.424961e-001
3.706669e+003,1.393116e-001
3.710526e+003,1.339417e-001
3.714384e+003,1.277532e-001
3.718241e+003,1.244030e-001
3.722098e+003,1.208937e-001
3.725955e+003,1.165182e-001
3.729812e+003,1.134018e-001
3.733669e+003,1.097756e-001
3.737526e+003,1.088822e-001
3.741383e+003,1.103746e-001
3.745240e+003,1.087211e-001
3.749097e+003,1.045747e-001
3.752955e+003,1.026740e-001
3.756812e+003,1.012258e-001
3.760669e+003,9.791651e-002
3.764526e+003,9.463936e-002
3.768383e+003,9.311946e-002
3.772240e+003,9.220181e-002
3.776097e+003,9.272696e-002
3.779954e+003,9.290552e-002
3.783811e+003,9.356306e-002
3.787668e+003,9.491092e-002
3.791525e+003,9.409963e-002
3.795383e+003,9.230252e-002
3.799240e+003,9.127109e-002
3.803097e+003,9.156223e-002
3.806954e+003,9.280491e-002
3.810811e+003,9.282465e-002
3.814668e+003,9.159144e-002
3.818525e+003,9.226933e-002
3.822382e+003,9.296154e-002
3.826239e+003,9.075990e-002
3.830096e+003,8.874658e-002
3.833954e+003,8.794849e-002
3.837811e+003,8.711097e-002
3.841668e+003,8.621120e-002
3.845525e+003,8.712003e-002
3.849382e+003,8.702237e-002
3.853239e+003,8.706404e-002
3.857096e+003,8.757948e-002
3.860953e+003,8.609730e-002
3.864810e+003,8.668826e-002
3.868667e+003,8.728354e-002
3.872524e+003,8.487526e-002
3.876382e+003,8.465567e-002
3.880239e+003,8.662350e-002
3.884096e+003,8.654705e-002
3.887953e+003,8.585110e-002
3.891810e+003,8.593856e-002
3.895667e+003,8.915824e-002
3.899524e+003,8.879072e-002
3.903381e+003,8.579461e-002
3.907238e+003,8.530193e-002
3.911095e+003,8.682428e-002
3.914953e+003,8.514658e-002
3.918810e+003,8.492605e-002
3.922667e+003,8.807899e-002
3.926524e+003,8.823933e-002
3.930381e+003,8.725644e-002
3.934238e+003,8.738831e-002
3.938095e+003,8.978564e-002
3.941952e+003,8.989032e-002
3.945809e+003,8.806503e-002
3.949667e+003,8.735051e-002
3.953523e+003,8.467274e-002
3.957381e+003,8.437640e-002
3.961238e+003,8.542735e-002
3.965095e+003,8.380703e-002
3.968952e+003,8.379637e-002
3.972809e+003,8.554132e-002
3.976666e+003,8.630452e-002
3.980523e+003,8.509103e-002
3.984380e+003,8.413946e-002
3.988237e+003,8.472493e-002
3.992094e+003,8.443097e-002
3.995952e+003,8.634833e-002
3.999809e+003,8.998260e-002
4.003666e+003,8.892757e-002
4.007523e+003,8.865034e-002
4.011380e+003,8.800424e-002
4.015237e+003,8.560149e-002
4.019094e+003,8.481052e-002
4.022951e+003,8.536258e-002
4.026808e+003,8.630323e-002
4.030666e+003,8.573309e-002
4.034522e+003,8.606244e-002
4.038380e+003,8.766057e-002
4.042237e+003,8.801094e-002
4.046094e+003,8.596490e-002
4.049951e+003,8.490817e-002
4.053808e+003,8.398111e-002
4.057665e+003,8.298960e-002
4.061522e+003,8.238598e-002
4.065379e+003,8.217926e-002
4.069236e+003,8.287565e-002
4.073094e+003,8.108557e-002
4.076951e+003,8.001642e-002
4.080808e+003,8.140565e-002
4.084665e+003,8.148208e-002
4.088522e+003,7.919765e-002
4.092379e+003,8.121666e-002
4.096236e+003,8.262538e-002
4.100093e+003,8.320577e-002
4.103950e+003,8.685265e-002
4.107808e+003,8.815350e-002
4.111665e+003,8.697015e-002
4.115521e+003,8.537964e-002
4.119379e+003,8.328199e-002
4.123236e+003,8.368946e-002
4.127093e+003,8.612490e-002
4.130950e+003,8.420815e-002
4.134807e+003,8.427525e-002
4.138664e+003,8.395715e-002
4.142521e+003,8.367873e-002
4.146378e+003,8.497433e-002
4.150235e+003,8.229963e-002
4.154093e+003,7.889203e-002
4.157950e+003,7.965019e-002
4.161807e+003,8.093121e-002
4.165664e+003,8.143367e-002
4.169521e+003,8.053513e-002
4.173378e+003,7.992122e-002
4.177235e+003,7.991094e-002
4.181092e+003,8.063377e-002
4.184949e+003,8.009805e-002
4.188807e+003,8.223288e-002
4.192664e+003,8.537307e-002
4.196521e+003,8.502651e-002
4.200378e+003,8.483139e-002
4.204235e+003,8.673859e-002
4.208092e+003,8.566178e-002
4.211949e+003,8.587044e-002
4.215806e+003,8.622833e-002
4.219663e+003,8.291604e-002
4.223521e+003,8.456001e-002
4.227377e+003,8.734217e-002
4.231234e+003,8.687795e-002
4.235092e+003,8.509801e-002
4.238949e+003,8.310360e-002
4.242806e+003,8.172421e-002
4.246663e+003,8.400125e-002
4.250520e+003,8.480597e-002
4.254377e+003,8.249110e-002
4.258234e+003,7.967746e-002
4.262091e+003,7.677759e-002
4.265948e+003,7.714631e-002
4.269806e+003,8.060868e-002
4.273663e+003,8.225378e-002
4.277520e+003,8.405682e-002
4.281377e+003,8.486973e-002
4.285234e+003,8.727917e-002
4.289091e+003,8.779564e-002
4.292948e+003,8.452632e-002
4.296805e+003,8.236848e-002
4.300662e+003,8.506774e-002
4.304520e+003,9.082491e-002
4.308376e+003,9.294587e-002
4.312233e+003,9.068893e-002
4.316091e+003,9.061267e-002
4.319948e+003,9.271301e-002
4.323805e+003,9.409501e-002
4.327662e+003,9.057977e-002
4.331519e+003,8.958120e-002
4.335376e+003,9.308768e-002
4.339233e+003,9.174506e-002
4.343090e+003,8.887581e-002
4.346947e+003,8.896852e-002
4.350805e+003,8.763295e-002
4.354662e+003,8.437729e-002
4.358519e+003,8.521197e-002
4.362376e+003,8.600936e-002
4.366233e+003,8.823121e-002
4.370090e+003,8.854952e-002
4.373947e+003,8.683626e-002
4.377804e+003,8.919701e-002
4.381661e+003,9.056577e-002
4.385519e+003,9.093034e-002
4.389375e+003,9.096579e-002
4.393232e+003,9.138618e-002
4.397090e+003,9.314040e-002
4.400947e+003,9.895334e-002
4.404804e+003,1.008079e-001
4.408661e+003,9.727585e-002
4.412518e+003,9.632232e-002
4.416375e+003,9.663741e-002
4.420232e+003,9.806710e-002
4.424089e+003,1.023559e-001
4.427946e+003,1.021245e-001
4.431804e+003,1.007957e-001
4.435661e+003,9.779825e-002
4.439518e+003,9.567814e-002
4.443375e+003,9.436550e-002
4.447232e+003,9.222987e-002
4.451089e+003,9.350204e-002
4.454946e+003,9.546533e-002
4.458803e+003,9.999462e-002
4.462660e+003,1.017543e-001
4.466518e+003,9.946881e-002
4.470375e+003,9.769791e-002
4.474231e+003,9.730308e-002
4.478089e+003,9.842381e-002
4.481946e+003,9.851081e-002
4.485803e+003,9.810602e-002
4.489660e+003,9.964333e-002
4.493517e+003,1.044656e-001
4.497375e+003,1.054471e-001
4.501231e+003,1.020305e-001
4.505088e+003,1.013378e-001
4.508946e+003,1.014038e-001
4.512803e+003,1.029257e-001
4.516660e+003,1.020585e-001
4.520517e+003,9.931702e-002
4.524374e+003,9.858897e-002
4.528231e+003,9.971648e-002
4.532088e+003,1.027663e-001
4.535945e+003,1.042043e-001
4.539802e+003,1.025538e-001
4.543660e+003,9.968493e-002
4.547517e+003,9.938571e-002
4.551374e+003,9.640030e-002
4.555231e+003,9.642383e-002
4.559088e+003,1.003553e-001
4.562945e+003,9.893549e-002
4.566802e+003,9.860082e-002
4.570659e+003,9.921846e-002
4.574516e+003,9.942345e-002
4.578374e+003,9.734545e-002
4.582230e+003,9.674305e-002
4.586087e+003,1.020168e-001
4.589945e+003,1.021083e-001
4.593802e+003,1.016638e-001
4.597659e+003,1.043017e-001
4.601516e+003,1.011886e-001
4.605373e+003,1.009113e-001
4.609230e+003,1.081439e-001
4.613087e+003,1.084484e-001
4.616944e+003,1.055899e-001
4.620801e+003,1.050492e-001
4.624659e+003,1.028815e-001
4.628516e+003,1.045332e-001
4.632373e+003,1.036337e-001
4.636230e+003,1.019625e-001
4.640087e+003,9.965746e-002
4.643944e+003,9.661505e-002
4.647801e+003,9.449559e-002
4.651658e+003,9.683886e-002
4.655515e+003,9.822905e-002
4.659373e+003,9.931911e-002
4.663229e+003,9.959391e-002
4.667086e+003,1.023501e-001
4.670944e+003,1.037559e-001
4.674801e+003,1.058371e-001
4.678658e+003,1.062037e-001
4.682515e+003,1.067237e-001
4.686372e+003,1.077759e-001
4.690229e+003,1.061459e-001
4.694086e+003,1.071906e-001
4.697943e+003,1.129070e-001
4.701800e+003,1.174278e-001
4.705658e+003,1.183276e-001
4.709515e+003,1.172497e-001
4.713372e+003,1.163746e-001
4.717229e+003,1.158704e-001
4.721086e+003,1.129509e-001
4.724943e+003,1.062756e-001
4.728800e+003,1.032282e-001
4.732657e+003,1.071355e-001
4.736514e+003,1.060761e-001
4.740372e+003,1.034721e-001
4.744229e+003,1.057155e-001
4.748085e+003,1.074690e-001
4.751943e+003,1.077960e-001
4.755800e+003,1.084649e-001
4.759657e+003,1.100741e-001
4.763514e+003,1.107408e-001
4.767371e+003,1.096998e-001
4.771228e+003,1.124430e-001
4.775085e+003,1.152766e-001
4.778942e+003,1.118111e-001
4.782799e+003,1.103584e-001
4.786657e+003,1.169806e-001
4.790514e+003,1.228743e-001
4.794371e+003,1.224351e-001
4.798228e+003,1.206212e-001
4.802085e+003,1.186017e-001
4.805942e+003,1.200256e-001
4.809799e+003,1.202004e-001
4.813656e+003,1.174950e-001
4.817513e+003,1.139326e-001
4.821371e+003,1.138945e-001
4.825228e+003,1.137989e-001
4.829084e+003,1.143011e-001
4.832942e+003,1.163566e-001
4.836799e+003,1.166807e-001
4.840656e+003,1.143253e-001
4.844513e+003,1.119706e-001
4.848370e+003,1.110360e-001
4.852227e+003,1.091179e-001
4.856084e+003,1.102957e-001
4.859941e+003,1.131975e-001
4.863798e+003,1.211618e-001
4.867656e+003,1.210475e-001
4.871513e+003,1.215689e-001
4.875370e+003,1.257710e-001
4.879227e+003,1.282713e-001
4.883084e+003,1.248828e-001
4.886941e+003,1.243695e-001
4.890798e+003,1.243065e-001
4.894655e+003,1.184166e-001
4.898512e+003,1.175253e-001
4.902370e+003,1.203706e-001
4.906227e+003,1.247684e-001
4.910083e+003,1.264890e-001
4.913941e+003,1.270473e-001
4.917798e+003,1.264141e-001
4.921655e+003,1.247829e-001
4.925512e+003,1.248846e-001
4.929369e+003,1.226447e-001
4.933226e+003,1.198546e-001
4.937083e+003,1.222236e-001
4.940940e+003,1.178543e-001
4.944797e+003,1.144629e-001
4.948655e+003,1.170011e-001
4.952512e+003,1.196277e-001
4.956369e+003,1.176341e-001
4.960226e+003,1.170706e-001
4.964083e+003,1.239069e-001
4.967940e+003,1.280886e-001
4.971797e+003,1.225902e-001
4.975654e+003,1.202219e-001
4.979511e+003,1.223513e-001
4.983369e+003,1.287214e-001
4.987226e+003,1.326376e-001
4.991083e+003,1.345256e-001
4.994940e+003,1.362272e-001
4.998797e+003,1.333356e-001
5.002654e+003,1.326776e-001
5.006511e+003,1.332002e-001
5.010368e+003,1.342883e-001
5.014225e+003,1.328556e-001
5.018083e+003,1.314367e-001
5.021939e+003,1.333866e-001
5.025796e+003,1.312223e-001
5.029654e+003,1.272555e-001
5.033511e+003,1.262622e-001
5.037368e+003,1.255832e-001
5.041225e+003,1.226326e-001
5.045082e+003,1.256772e-001
5.048939e+003,1.332195e-001
5.052796e+003,1.341500e-001
5.056653e+003,1.294359e-001
5.060510e+003,1.314057e-001
5.064368e+003,1.309787e-001
5.068225e+003,1.319802e-001
5.072082e+003,1.361873e-001
5.075939e+003,1.329570e-001
5.079796e+003,1.316087e-001
5.083653e+003,1.362934e-001
5.087510e+003,1.427898e-001
5.091367e+003,1.467098e-001
5.095224e+003,1.438874e-001
5.099082e+003,1.403915e-001
5.102938e+003,1.404618e-001
5.106795e+003,1.336109e-001
5.110653e+003,1.290627e-001
5.114510e+003,1.294625e-001
5.118367e+003,1.354581e-001
5.122224e+003,1.338652e-001
5.126081e+003,1.295746e-001
5.129938e+003,1.305556e-001
5.133795e+003,1.338815e-001
5.137652e+003,1.326787e-001
5.141509e+003,1.291423e-001
5.145367e+003,1.325647e-001
5.149224e+003,1.315142e-001
5.153081e+003,1.360016e-001
5.156938e+003,1.449434e-001
5.160795e+003,1.428678e-001
5.164652e+003,1.376194e-001
5.168509e+003,1.375133e-001
5.172366e+003,1.428104e-001
5.176223e+003,1.478954e-001
5.180081e+003,1.467041e-001
5.183938e+003,1.416623e-001
5.187794e+003,1.419836e-001
5.191652e+003,1.518495e-001
5.195509e+003,1.521442e-001
5.199366e+003,1.444451e-001
5.203223e+003,1.455557e-001
5.207080e+003,1.500873e-001
5.210937e+003,1.496080e-001
5.214794e+003,1.489024e-001
5.218651e+003,1.454740e-001
5.222508e+003,1.435511e-001
5.226366e+003,1.437475e-001
5.230223e+003,1.450398e-001
5.234080e+003,1.455910e-001
5.237937e+003,1.388822e-001
5.241794e+003,1.369538e-001
5.245651e+003,1.399046e-001
5.249508e+003,1.388967e-001
5.253365e+003,1.364973e-001
5.257222e+003,1.323059e-001
5.261080e+003,1.320340e-001
5.264937e+003,1.366638e-001
5.268793e+003,1.386761e-001
5.272651e+003,1.373371e-001
5.276508e+003,1.406597e-001
5.280365e+003,1.405693e-001
5.284222e+003,1.457372e-001
5.288079e+003,1.521579e-001
5.291936e+003,1.490398e-001
5.295793e+003,1.467994e-001
5.299650e+003,1.471850e-001
5.303507e+003,1.471470e-001
5.307365e+003,1.418896e-001
5.311222e+003,1.381864e-001
5.315079e+003,1.408198e-001
5.318936e+003,1.448641e-001
5.322793e+003,1.454688e-001
5.326650e+003,1.407954e-001
5.330507e+003,1.381698e-001
5.334364e+003,1.378706e-001
5.338221e+003,1.353790e-001
5.342079e+003,1.362013e-001
5.345936e+003,1.447227e-001
5.349792e+003,1.451003e-001
5.353650e+003,1.434530e-001
5.357507e+003,1.419060e-001
5.361364e+003,1.445135e-001
5.365221e+003,1.465959e-001
5.369078e+003,1.465753e-001
5.372935e+003,1.499358e-001
5.376792e+003,1.512956e-001
5.380649e+003,1.495612e-001
5.384506e+003,1.456819e-001
5.388364e+003,1.491403e-001
5.392221e+003,1.504124e-001
5.396078e+003,1.473626e-001
5.399935e+003,1.455971e-001
5.403792e+003,1.479571e-001
5.407649e+003,1.509610e-001
5.411506e+003,1.463862e-001
5.415363e+003,1.389422e-001
5.419220e+003,1.398325e-001
5.423078e+003,1.408516e-001
5.426935e+003,1.340124e-001
5.430792e+003,1.288844e-001
5.434649e+003,1.355674e-001
5.438506e+003,1.374413e-001
5.442363e+003,1.288314e-001
5.446220e+003,1.327451e-001
5.450077e+003,1.407654e-001
5.453934e+003,1.433526e-001
5.457792e+003,1.474418e-001
5.461648e+003,1.480252e-001
5.465505e+003,1.448077e-001
5.469363e+003,1.403943e-001
5.473220e+003,1.401950e-001
5.477077e+003,1.418981e-001
5.480934e+003,1.423289e-001
5.484791e+003,1.416762e-001
5.488648e+003,1.474194e-001
5.492505e+003,1.481647e-001
5.496362e+003,1.448717e-001
5.500219e+003,1.447935e-001
5.504077e+003,1.475838e-001
5.507934e+003,1.499361e-001
5.511791e+003,1.467849e-001
5.515648e+003,1.470750e-001
5.519505e+003,1.493536e-001
5.523362e+003,1.476841e-001
5.527219e+003,1.457238e-001
5.531076e+003,1.478085e-001
5.534933e+003,1.474204e-001
5.538791e+003,1.446403e-001
5.542647e+003,1.452422e-001
5.546504e+003,1.448194e-001
5.550362e+003,1.453276e-001
5.554219e+003,1.476170e-001
5.558076e+003,1.474854e-001
5.561933e+003,1.482945e-001
5.565790e+003,1.564652e-001
5.569647e+003,1.573636e-001
5.573504e+003,1.505393e-001
5.577361e+003,1.505727e-001
5.581218e+003,1.476801e-001
5.585076e+003,1.479158e-001
5.588933e+003,1.476303e-001
5.592790e+003,1.439462e-001
5.596647e+003,1.463726e-001
5.600504e+003,1.436241e-001
5.604361e+003,1.441065e-001
5.608218e+003,1.521170e-001
5.612075e+003,1.545282e-001
5.615932e+003,1.507175e-001
5.619790e+003,1.451094e-001
5.623646e+003,1.462757e-001
5.627503e+003,1.504571e-001
5.631361e+003,1.495673e-001
5.635218e+003,1.465058e-001
5.639075e+003,1.449427e-001
5.642932e+003,1.494684e-001
5.646789e+003,1.484400e-001
5.650646e+003,1.490435e-001
5.654503e+003,1.477823e-001
5.658360e+003,1.468193e-001
5.662217e+003,1.506282e-001
5.666075e+003,1.530175e-001
5.669932e+003,1.539938e-001
5.673789e+003,1.473717e-001
5.677646e+003,1.476601e-001
5.681503e+003,1.535255e-001
5.685360e+003,1.528654e-001
5.689217e+003,1.506135e-001
5.693074e+003,1.452829e-001
5.696931e+003,1.402487e-001
5.700789e+003,1.440973e-001
5.704646e+003,1.432110e-001
5.708502e+003,1.400193e-001
5.712360e+003,1.438054e-001
5.716217e+003,1.475116e-001
5.720074e+003,1.464657e-001
5.723931e+003,1.399663e-001
5.727788e+003,1.395144e-001
5.731645e+003,1.441433e-001
5.735502e+003,1.448409e-001
5.739359e+003,1.390959e-001
5.743216e+003,1.405528e-001
5.747074e+003,1.466393e-001
5.750931e+003,1.459351e-001
5.754788e+003,1.488065e-001
5.758645e+003,1.537819e-001
5.762502e+003,1.488347e-001
5.766359e+003,1.454172e-001
5.770216e+003,1.506905e-001
5.774073e+003,1.495172e-001
5.777930e+003,1.471882e-001
5.781788e+003,1.443138e-001
5.785645e+003,1.441361e-001
5.789501e+003,1.451538e-001
5.793359e+003,1.456972e-001
5.797216e+003,1.430829e-001
5.801073e+003,1.419712e-001
5.804930e+003,1.432049e-001
5.808787e+003,1.400629e-001
5.812644e+003,1.348116e-001
5.816501e+003,1.372561e-001
5.820358e+003,1.407306e-001
5.824215e+003,1.423952e-001
5.828073e+003,1.439265e-001
5.831930e+003,1.460922e-001
5.835787e+003,1.425053e-001
5.839644e+003,1.393824e-001
5.843501e+003,1.401456e-001
5.847358e+003,1.417516e-001
5.851215e+003,1.437689e-001
5.855072e+003,1.410179e-001
5.858929e+003,1.392281e-001
5.862787e+003,1.391030e-001
5.866644e+003,1.434275e-001
5.870500e+003,1.505801e-001
5.874358e+003,1.483759e-001
5.878215e+003,1.495572e-001
5.882072e+003,1.508250e-001
5.885929e+003,1.481683e-001
5.889786e+003,1.464952e-001
5.893643e+003,1.449929e-001
5.897500e+003,1.484077e-001
5.901357e+003,1.473307e-001
5.905214e+003,1.462645e-001
5.909072e+003,1.488891e-001
5.912929e+003,1.418122e-001
5.916786e+003,1.353804e-001
5.920643e+003,1.375424e-001
5.924500e+003,1.390829e-001
5.928357e+003,1.401696e-001
5.932214e+003,1.367101e-001
5.936071e+003,1.402601e-001
5.939928e+003,1.496335e-001
5.943786e+003,1.564637e-001
5.947643e+003,1.524405e-001
5.951500e+003,1.452168e-001
5.955357e+003,1.469070e-001
5.959214e+003,1.528503e-001
5.963071e+003,1.603408e-001
5.966928e+003,1.564636e-001
5.970785e+003,1.508437e-001
5.974642e+003,1.448936e-001
5.978500e+003,1.424228e-001
5.982356e+003,1.486195e-001
5.986213e+003,1.480562e-001
5.990071e+003,1.403327e-001
5.993928e+003,1.397104e-001
5.997785e+003,1.411700e-001
6.001642e+003,1.462370e-001
6.005499e+003,1.521315e-001
6.009356e+003,1.449021e-001
6.013213e+003,1.383681e-001
6.017070e+003,1.474613e-001
6.020927e+003,1.463426e-001
6.024785e+003,1.357909e-001
6.028642e+003,1.334049e-001
6.032499e+003,1.364302e-001
6.036356e+003,1.411130e-001
6.040213e+003,1.382443e-001
6.044070e+003,1.289560e-001
6.047927e+003,1.375670e-001
6.051784e+003,1.472995e-001
6.055641e+003,1.424161e-001
6.059499e+003,1.413199e-001
6.063355e+003,1.420863e-001
6.067212e+003,1.432077e-001
6.071070e+003,1.424950e-001
6.074927e+003,1.451599e-001
6.078784e+003,1.424198e-001
6.082641e+003,1.361423e-001
6.086498e+003,1.403461e-001
6.090355e+003,1.471957e-001
6.094212e+003,1.510505e-001
6.098069e+003,1.494688e-001
6.101926e+003,1.386064e-001
6.105784e+003,1.353022e-001
6.109641e+003,1.341310e-001
6.113498e+003,1.255543e-001
6.117355e+003,1.192859e-001
6.121212e+003,1.191780e-001
6.125069e+003,1.238484e-001
6.128926e+003,1.264673e-001
6.132783e+003,1.302092e-001
6.136640e+003,1.344437e-001
6.140498e+003,1.363447e-001
6.144354e+003,1.384265e-001
6.148211e+003,1.386971e-001
6.152069e+003,1.351996e-001
6.155926e+003,1.400793e-001
6.159783e+003,1.438305e-001
6.163640e+003,1.433153e-001
6.167497e+003,1.460571e-001
6.171354e+003,1.457799e-001
6.175211e+003,1.458724e-001
6.179068e+003,1.470201e-001
6.182925e+003,1.461701e-001
6.186783e+003,1.382813e-001
6.190640e+003,1.332937e-001
6.194497e+003,1.420102e-001
6.198354e+003,1.383890e-001
6.202211e+003,1.264850e-001
6.206068e+003,1.296631e-001
6.209925e+003,1.332482e-001
6.213782e+003,1.286042e-001
6.217639e+003,1.327269e-001
6.221497e+003,1.283893e-001
6.225354e+003,1.256074e-001
6.229210e+003,1.335521e-001
6.233068e+003,1.374334e-001
6.236925e+003,1.383881e-001
6.240782e+003,1.434868e-001
6.244639e+003,1.323207e-001
6.248496e+003,1.281548e-001
6.252353e+003,1.316075e-001
6.256210e+003,1.353058e-001
6.260067e+003,1.408855e-001
6.263924e+003,1.476478e-001
6.267782e+003,1.421849e-001
6.271639e+003,1.429314e-001
6.275496e+003,1.462681e-001
6.279353e+003,1.405612e-001
6.283210e+003,1.424285e-001
6.287067e+003,1.418432e-001
6.290924e+003,1.420389e-001
6.294781e+003,1.382217e-001
6.298638e+003,1.243998e-001
6.302496e+003,1.256192e-001
6.306353e+003,1.247310e-001
6.310209e+003,1.244904e-001
6.314067e+003,1.240935e-001
6.317924e+003,1.258179e-001
6.321781e+003,1.151000e-001
6.325638e+003,1.094572e-001
6.329495e+003,1.206973e-001
6.333352e+003,1.298990e-001
6.337209e+003,1.346545e-001
6.341066e+003,1.391696e-001
6.344923e+003,1.364800e-001
6.348780e+003,1.275674e-001
6.352638e+003,1.227317e-001
6.356495e+003,1.178725e-001
6.360352e+003,1.269333e-001
6.364209e+003,1.314446e-001
6.368066e+003,1.275633e-001
6.371923e+003,1.336366e-001
6.375780e+003,1.418247e-001
6.379637e+003,1.466672e-001
6.383494e+003,1.395530e-001
6.387352e+003,1.326966e-001
6.391208e+003,1.290455e-001
6.395065e+003,1.256475e-001
6.398923e+003,1.349848e-001
6.402780e+003,1.475743e-001
6.406637e+003,1.371892e-001
6.410494e+003,1.248482e-001
6.414351e+003,1.329244e-001
6.418208e+003,1.285772e-001
6.422065e+003,1.191367e-001
6.425922e+003,1.198193e-001
6.429779e+003,1.293982e-001
6.433637e+003,1.312944e-001
6.437494e+003,1.299676e-001
6.441351e+003,1.225982e-001
6.445208e+003,1.192288e-001
6.449065e+003,1.177827e-001
6.452922e+003,1.187274e-001
6.456779e+003,1.272852e-001
6.460636e+003,1.364151e-001
6.464493e+003,1.305986e-001
6.468351e+003,1.249167e-001
6.472208e+003,1.229269e-001
6.476064e+003,1.227157e-001
6.479922e+003,1.250350e-001
6.483779e+003,1.366223e-001
6.487636e+003,1.396095e-001
6.491493e+003,1.274628e-001
6.495350e+003,1.235628e-001
6.499207e+003,1.252846e-001
6.503064e+003,1.278910e-001
6.506921e+003,1.285851e-001
6.510778e+003,1.259036e-001
6.514636e+003,1.276859e-001
6.518493e+003,1.188300e-001
6.522350e+003,1.162131e-001
6.526207e+003,1.228136e-001
6.530064e+003,1.305112e-001
6.533921e+003,1.279446e-001
6.537778e+003,1.322249e-001
6.541635e+003,1.364699e-001
6.545492e+003,1.395487e-001
6.549350e+003,1.372084e-001
6.553207e+003,1.260709e-001
6.557063e+003,1.232158e-001
6.560921e+003,1.282465e-001
6.564778e+003,1.334868e-001
6.568635e+003,1.279474e-001
6.572492e+003,1.276264e-001
6.576349e+003,1.255736e-001
6.580206e+003,1.247510e-001
6.584063e+003,1.308821e-001
6.587920e+003,1.253599e-001
6.591777e+003,1.199298e-001
6.595635e+003,1.207015e-001
6.599492e+003,1.099433e-001
6.603349e+003,1.009053e-001
6.607206e+003,1.078646e-001
6.611063e+003,1.346711e-001
6.614920e+003,1.479332e-001
6.618777e+003,1.337393e-001
6.622634e+003,1.225656e-001
6.626491e+003,1.260545e-001
6.630349e+003,1.420211e-001
6.634206e+003,1.451273e-001
6.638063e+003,1.206020e-001
6.641920e+003,1.138052e-001
6.645777e+003,1.281566e-001
6.649634e+003,1.377297e-001
6.653491e+003,1.320405e-001
6.657348e+003,1.259320e-001
6.661205e+003,1.308527e-001
6.665063e+003,1.199506e-001
6.668919e+003,1.092125e-001
6.672776e+003,9.948406e-002
6.676634e+003,1.100055e-001
6.680491e+003,1.187977e-001
6.684348e+003,1.180736e-001
6.688205e+003,1.218826e-001
6.692062e+003,1.234021e-001
6.695919e+003,1.235669e-001
6.699776e+003,1.155381e-001
6.703633e+003,1.119460e-001
6.707490e+003,1.145860e-001
6.711348e+003,1.157371e-001
6.715205e+003,1.092927e-001
6.719062e+003,1.147015e-001
6.722919e+003,1.234799e-001
6.726776e+003,1.264078e-001
6.730633e+003,1.295970e-001
6.734490e+003,1.100597e-001
6.738347e+003,1.062232e-001
6.742204e+003,1.211007e-001
6.746062e+003,1.256470e-001
6.749918e+003,1.343124e-001
6.753775e+003,1.306384e-001
6.757633e+003,1.239235e-001
6.761490e+003,1.315358e-001
6.765347e+003,1.200296e-001
6.769204e+003,1.057101e-001
6.773061e+003,1.096316e-001
6.776918e+003,1.262277e-001
6.780775e+003,1.198112e-001
6.784632e+003,1.131935e-001
6.788489e+003,1.282652e-001
6.792347e+003,1.207195e-001
6.796204e+003,1.073813e-001
6.800061e+003,1.220265e-001
6.803918e+003,1.271100e-001
6.807775e+003,1.228885e-001
6.811632e+003,1.191470e-001
6.815489e+003,1.248431e-001
6.819346e+003,1.325109e-001
6.823203e+003,1.303141e-001
6.827061e+003,1.379269e-001
6.830917e+003,1.255269e-001
6.834774e+003,9.981725e-002
6.838632e+003,9.312271e-002
6.842489e+003,1.052871e-001
6.846346e+003,1.193768e-001
6.850203e+003,1.243058e-001
6.854060e+003,1.183839e-001
6.857917e+003,1.189770e-001
6.861774e+003,1.267777e-001
6.865631e+003,1.189952e-001
6.869488e+003,1.166968e-001
6.873346e+003,1.172303e-001
6.877203e+003,1.156664e-001
6.881060e+003,1.226855e-001
6.884917e+003,1.292386e-001
6.888774e+003,1.293152e-001
6.892631e+003,1.293886e-001
6.896488e+003,1.215010e-001
6.900345e+003,1.065179e-001
6.904202e+003,9.401910e-002
6.908060e+003,9.832083e-002
6.911917e+003,1.142577e-001
6.915773e+003,1.118677e-001
6.919631e+003,1.040698e-001
6.923488e+003,9.979495e-002
6.927345e+003,1.074338e-001
6.931202e+003,1.146259e-001
6.935059e+003,1.125955e-001
6.938916e+003,9.601536e-002
6.942773e+003,9.885590e-002
6.946630e+003,1.042077e-001
6.950487e+003,1.028936e-001
6.954345e+003,1.166098e-001
6.958202e+003,1.137783e-001
6.962059e+003,1.128195e-001
6.965916e+003,1.300758e-001
6.969773e+003,1.254660e-001
6.973630e+003,1.222483e-001
6.977487e+003,1.220122e-001
6.981344e+003,1.142871e-001
6.985201e+003,1.021790e-001
6.989059e+003,1.117009e-001
6.992916e+003,1.153790e-001
6.996772e+003,1.182921e-001
7.000630e+003,1.138506e-001
7.004487e+003,1.144306e-001
7.008344e+003,1.240676e-001
7.012201e+003,1.335640e-001
7.016058e+003,1.161385e-001
7.019915e+003,9.329563e-002
7.023772e+003,9.632509e-002
7.027629e+003,1.236611e-001
7.031486e+003,1.309772e-001
7.035344e+003,1.179742e-001
7.039201e+003,1.213343e-001
7.043058e+003,1.272418e-001
7.046915e+003,1.386229e-001
7.050772e+003,1.395824e-001
7.054629e+003,1.371106e-001
7.058486e+003,1.366882e-001
7.062343e+003,1.362482e-001
7.066200e+003,1.178187e-001
7.070058e+003,1.064221e-001
7.073915e+003,1.242494e-001
7.077771e+003,1.266566e-001
7.081629e+003,1.159613e-001
7.085486e+003,1.131513e-001
7.089343e+003,1.181404e-001
7.093200e+003,1.041639e-001
7.097057e+003,7.972885e-002
7.100914e+003,9.703358e-002
7.104771e+003,1.078459e-001
7.108628e+003,9.894323e-002
7.112485e+003,1.045735e-001
7.116343e+003,1.122921e-001
7.120200e+003,1.165338e-001
7.124057e+003,1.307161e-001
7.127914e+003,1.278378e-001
7.131771e+003,1.249156e-001
7.135628e+003,1.306103e-001
7.139485e+003,1.168425e-001
7.143342e+003,1.015173e-001
7.147199e+003,8.536915e-002
7.151057e+003,8.643392e-002
7.154914e+003,1.013145e-001
7.158771e+003,1.242589e-001
7.162628e+003,1.211629e-001
7.166485e+003,9.597436e-002
7.170342e+003,1.087162e-001
7.174199e+003,1.211672e-001
7.178056e+003,1.026260e-001
7.181913e+003,9.810315e-002
7.185771e+003,1.027361e-001
7.189627e+003,1.055584e-001
7.193484e+003,1.089092e-001
7.197342e+003,1.056446e-001
7.201199e+003,1.170745e-001
7.205056e+003,1.089277e-001
7.208913e+003,8.815128e-002
7.212770e+003,1.122444e-001
7.216627e+003,1.278276e-001
7.220484e+003,1.021503e-001
7.224341e+003,1.002985e-001
7.228198e+003,1.253761e-001
7.232056e+003,1.150548e-001
7.235913e+003,1.111588e-001
7.239770e+003,1.119311e-001
7.243627e+003,1.124190e-001
7.247484e+003,9.993548e-002
7.251341e+003,1.033217e-001
7.255198e+003,1.114527e-001
7.259055e+003,1.046593e-001
7.262912e+003,1.047871e-001
7.266770e+003,1.224121e-001
7.270626e+003,1.337205e-001
7.274483e+003,1.332319e-001
7.278341e+003,1.197971e-001
7.282198e+003,1.258866e-001
7.286055e+003,1.285805e-001
7.289912e+003,1.141239e-001
7.293769e+003,9.956902e-002
7.297626e+003,9.096012e-002
7.301483e+003,8.001208e-002
7.305340e+003,8.704484e-002
7.309197e+003,9.460554e-002
7.313055e+003,8.621524e-002
7.316912e+003,8.655433e-002
7.320769e+003,9.413362e-002
7.324626e+003,1.227364e-001
7.328483e+003,1.413053e-001
7.332340e+003,1.509353e-001
7.336197e+003,1.239402e-001
7.340054e+003,1.013097e-001
7.343911e+003,1.006619e-001
7.347769e+003,1.194721e-001
7.351625e+003,8.518729e-002
7.355482e+003,7.097301e-002
7.359340e+003,1.033537e-001
7.363197e+003,1.155025e-001
7.367054e+003,9.365050e-002
7.370911e+003,1.083213e-001
7.374768e+003,1.227408e-001
7.378625e+003,1.191378e-001
7.382482e+003,1.131287e-001
7.386339e+003,9.922761e-002
7.390196e+003,9.890940e-002
7.394054e+003,1.098939e-001
7.397911e+003,9.161092e-002
7.401768e+003,9.155638e-002
7.405625e+003,1.310366e-001
7.409482e+003,1.318368e-001
7.413339e+003,1.142131e-001
7.417196e+003,1.302718e-001
7.421053e+003,1.325591e-001
7.424910e+003,1.202756e-001
7.428768e+003,9.168375e-002
7.432625e+003,1.041784e-001
7.436481e+003,1.147743e-001
7.440339e+003,1.161672e-001
7.444196e+003,1.183039e-001
7.448053e+003,1.068370e-001
7.451910e+003,1.027508e-001
7.455767e+003,1.040675e-001
7.459624e+003,1.247762e-001
7.463481e+003,1.191176e-001
7.467338e+003,8.085696e-002
7.471195e+003,6.748394e-002
7.475053e+003,9.884387e-002
7.478910e+003,1.105598e-001
7.482767e+003,1.063522e-001
7.486624e+003,1.200465e-001
7.490481e+003,1.281354e-001
7.494338e+003,1.347437e-001
7.498195e+003,1.284162e-001
7.502052e+003,1.119095e-001
7.505909e+003,1.239223e-001
7.509767e+003,1.381299e-001
7.513624e+003,1.322200e-001
7.517480e+003,1.342902e-001
7.521338e+003,1.447248e-001
7.525195e+003,1.057833e-001
7.529052e+003,7.591179e-002
7.532909e+003,9.540713e-002
7.536766e+003,1.110188e-001
7.540623e+003,9.663273e-002
7.544480e+003,1.041866e-001
7.548337e+003,1.192153e-001
7.552194e+003,1.206321e-001
7.556052e+003,1.184382e-001
7.559909e+003,5.899724e-002
7.563766e+003,4.233249e-002
7.567623e+003,9.697268e-002
7.571480e+003,1.160734e-001
7.575337e+003,1.045886e-001
7.579194e+003,1.023731e-001
7.583051e+003,9.396406e-002
7.586908e+003,1.091037e-001
7.590766e+003,1.152514e-001
7.594623e+003,9.683912e-002
7.598479e+003,8.488408e-002
7.602337e+003,7.781636e-002
7.606194e+003,8.419146e-002
7.610051e+003,1.095856e-001
7.613908e+003,1.108943e-001
7.617765e+003,1.194403e-001
7.621622e+003,8.052105e-002
7.625479e+003,4.984888e-002
7.629336e+003,1.172610e-001
7.633193e+003,1.232865e-001
7.637051e+003,1.017157e-001
7.640908e+003,1.002043e-001
7.644765e+003,8.217479e-002
7.648622e+003,6.938910e-002
7.652479e+003,8.750749e-002
7.656336e+003,8.879784e-002
7.660193e+003,9.638821e-002
7.664050e+003,9.420358e-002
7.667907e+003,9.052107e-002
7.671765e+003,1.218451e-001
7.675622e+003,1.098456e-001
7.679479e+003,9.428249e-002
7.683336e+003,9.213524e-002
7.687193e+003,8.111409e-002
7.691050e+003,7.979784e-002
7.694907e+003,8.939794e-002
7.698764e+003,1.148118e-001
7.702621e+003,1.146435e-001
7.706479e+003,1.260827e-001
7.710335e+003,1.672842e-001
7.714192e+003,1.404789e-001
7.718050e+003,1.386641e-001
7.721907e+003,1.501681e-001
7.725764e+003,1.251047e-001
7.729621e+003,8.381518e-002
7.733478e+003,7.178547e-002
7.737335e+003,1.023697e-001
7.741192e+003,7.551198e-002
7.745049e+003,7.443583e-002
7.748906e+003,1.168395e-001
7.752764e+003,1.462312e-001
7.756621e+003,1.487548e-001
7.760478e+003,1.445576e-001
7.764335e+003,1.143722e-001
7.768192e+003,9.722561e-002
7.772049e+003,1.440434e-001
7.775906e+003,1.552061e-001
7.779763e+003,1.056036e-001
7.783620e+003,8.670594e-002
7.787478e+003,6.661416e-002
7.791334e+003,7.162320e-002
7.795191e+003,1.305299e-001
7.799049e+003,1.351183e-001
7.802906e+003,9.896479e-002
7.806763e+003,9.112000e-002
7.810620e+003,1.184045e-001
7.814477e+003,1.030655e-001
7.818334e+003,5.106450e-002
7.822191e+003,9.786532e-002
7.826048e+003,1.413610e-001
7.829905e+003,1.518783e-001
7.833763e+003,1.967068e-001
7.837620e+003,1.581391e-001
7.841477e+003,4.787823e-002
7.845334e+003,1.378965e-002
7.849191e+003,2.138471e-002
7.853048e+003,6.081648e-002
7.856905e+003,1.321152e-001
7.860762e+003,1.246965e-001
7.864619e+003,1.370957e-001
7.868477e+003,1.578726e-001
7.872333e+003,1.335047e-001
7.876190e+003,1.335336e-001
7.880048e+003,2.043980e-001
7.883905e+003,1.897533e-001
7.887762e+003,1.099420e-001
7.891619e+003,4.596385e-002
7.895476e+003,6.537265e-002
7.899333e+003,1.255861e-001
7.903190e+003,2.089868e-001
7.907047e+003,1.865704e-001
7.910904e+003,1.195926e-001
7.914762e+003,8.781495e-002
7.918619e+003,4.545762e-002
7.922476e+003,5.214950e-002
7.926333e+003,9.219292e-002
7.930190e+003,1.929749e-002
7.934047e+003,-8.047229e-003
7.937904e+003,6.488366e-002
7.941761e+003,1.325554e-001
7.945618e+003,1.734612e-001
7.949476e+003,1.670743e-001
7.953333e+003,1.400225e-001
7.957189e+003,8.867147e-002
7.961047e+003,7.096458e-002
7.964904e+003,1.020541e-001
7.968761e+003,1.391628e-001
7.972618e+003,1.418423e-001
7.976475e+003,8.794338e-002
7.980332e+003,7.357103e-002
7.984189e+003,1.095046e-001
7.988046e+003,8.316616e-002
7.991903e+003,7.791384e-002
7.995761e+003,8.348039e-002
7.999618e+003,1.100338e-001
