4.011380e+002,-7.037684e-001
4.049951e+002,-2.395588e-001
4.088522e+002,8.637608e-001
4.127093e+002,6.000000e+000
4.165664e+002,8.197169e-001
4.204235e+002,4.289101e-002
4.242806e+002,-8.814002e-001
4.281377e+002,6.000000e+000
4.319948e+002,6.000000e+000
4.358519e+002,6.000000e+000
4.397090e+002,4.720618e-001
4.435661e+002,-6.654240e-001
4.474232e+002,-1.829564e-001
4.512803e+002,-1.594059e-001
4.551374e+002,6.211743e-001
4.589945e+002,-3.893460e-001
4.628516e+002,-1.112447e+000
4.667087e+002,6.000000e+000
4.705658e+002,-1.682958e+000
4.744229e+002,5.460221e-001
4.782800e+002,4.431249e-001
4.821371e+002,3.424842e-002
4.859941e+002,-1.580068e-001
4.898513e+002,-4.519956e-001
4.937083e+002,6.000000e+000
4.975654e+002,6.000000e+000
5.014225e+002,6.000000e+000
5.052796e+002,4.915509e-001
5.091367e+002,-1.069456e+000
5.129938e+002,-1.567392e-001
5.168509e+002,6.000000e+000
5.207080e+002,6.000000e+000
5.245651e+002,6.000000e+000
5.284222e+002,6.000000e+000
5.322793e+002,-4.321488e-001
5.361364e+002,5.411345e-001
5.399935e+002,1.960916e+000
5.438506e+002,6.000000e+000
5.477077e+002,6.000000e+000
5.515648e+002,2.663408e-001
5.554219e+002,7.018002e-001
5.592790e+002,1.417749e+000
5.631361e+002,1.884977e-001
5.669932e+002,3.515228e-001
5.708503e+002,2.055094e+000
5.747074e+002,2.058050e-001
5.785645e+002,6.000000e+000
5.824216e+002,6.000000e+000
5.862787e+002,6.000000e+000
5.901357e+002,6.000000e+000
5.939929e+002,6.000000e+000
5.978499e+002,6.000000e+000
6.017070e+002,6.000000e+000
6.055641e+002,6.000000e+000
6.094212e+002,1.599783e+000
6.132783e+002,6.000000e+000
6.171354e+002,8.311329e-001
6.209925e+002,6.000000e+000
6.248496e+002,6.000000e+000
6.287067e+002,6.000000e+000
6.325638e+002,6.000000e+000
6.364209e+002,-2.783250e-002
6.402780e+002,1.574670e-002
6.441351e+002,1.739000e-001
6.479922e+002,6.000000e+000
6.518493e+002,2.582300e-001
6.557064e+002,6.000000e+000
6.595635e+002,-3.594508e-001
6.634205e+002,2.901928e-002
6.672777e+002,-1.198188e+000
6.711348e+002,6.000000e+000
6.749918e+002,6.000000e+000
6.788490e+002,-5.169564e-002
6.827061e+002,5.177122e-001
6.865631e+002,1.188353e+000
6.904203e+002,2.673295e-001
6.942773e+002,6.000000e+000
6.981344e+002,6.000000e+000
7.019916e+002,1.269660e+000
7.058486e+002,8.580855e-001
7.097057e+002,6.000000e+000
7.135629e+002,6.000000e+000
7.174199e+002,6.000000e+000
7.212770e+002,6.000000e+000
7.251342e+002,6.000000e+000
7.289912e+002,3.895470e-001
7.328483e+002,1.760098e-002
7.367054e+002,-1.997646e-001
7.405625e+002,2.091292e-001
7.444196e+002,-1.471196e-001
7.482767e+002,-1.852094e-001
7.521338e+002,6.000000e+000
7.559908e+002,6.000000e+000
7.598480e+002,-3.081805e-001
7.637051e+002,-5.089858e-001
7.675621e+002,6.000000e+000
7.714193e+002,6.000000e+000
7.752764e+002,-1.387764e-001
7.791334e+002,6.000000e+000
7.829905e+002,6.000000e+000
7.868477e+002,6.000000e+000
7.907047e+002,6.024555e-001
7.945618e+002,6.000000e+000
7.984189e+002,7.255619e-001
8.022760e+002,8.461154e-002
8.061331e+002,-1.873662e-001
8.099902e+002,-4.033933e-001
8.138473e+002,5.730120e-001
8.177044e+002,4.945883e-001
8.215615e+002,5.867004e-001
8.254186e+002,6.000000e+000
8.292757e+002,6.000000e+000
8.331328e+002,6.000000e+000
8.369899e+002,1.404858e+000
8.408470e+002,6.000000e+000
8.447041e+002,9.100201e-001
8.485612e+002,6.000000e+000
8.524183e+002,6.000000e+000
8.562754e+002,6.000000e+000
8.601324e+002,6.000000e+000
8.639896e+002,1.010478e+000
8.678467e+002,1.674066e+000
8.717037e+002,6.000000e+000
8.755609e+002,6.000000e+000
8.794180e+002,6.000000e+000
8.832750e+002,2.042876e+000
8.871321e+002,1.999396e+000
8.909893e+002,2.094448e+000
8.948463e+002,1.100045e+000
8.987034e+002,1.037606e+000
9.025605e+002,1.510077e+000
9.064176e+002,6.000000e+000
9.102747e+002,1.887068e+000
9.141318e+002,1.491264e+000
9.179889e+002,1.895453e+000
9.218461e+002,6.000000e+000
9.257031e+002,6.000000e+000
9.295602e+002,6.000000e+000
9.334174e+002,2.211627e+000
9.372744e+002,1.975870e+000
9.411315e+002,2.238752e+000
9.449886e+002,6.000000e+000
9.488457e+002,1.763776e+000
9.527028e+002,1.680947e+000
9.565599e+002,1.906839e+000
9.604170e+002,1.971821e+000
9.642740e+002,2.051966e+000
9.681312e+002,2.035589e+000
9.719883e+002,2.128014e+000
9.758453e+002,6.000000e+000
9.797025e+002,6.000000e+000
9.835596e+002,6.000000e+000
9.874166e+002,2.146814e+000
9.912738e+002,1.542391e+000
9.951309e+002,1.608997e+000
9.989879e+002,2.368821e+000
1.002845e+003,6.000000e+000
1.006702e+003,2.018159e+000
1.010559e+003,1.879454e+000
1.014416e+003,1.829724e+000
1.018273e+003,1.846449e+000
1.022130e+003,1.724315e+000
1.025988e+003,1.631361e+000
1.029845e+003,1.530054e+000
1.033702e+003,1.570215e+000
1.037559e+003,1.691335e+000
1.041416e+003,1.757785e+000
1.045273e+003,1.862698e+000
1.049130e+003,1.698202e+000
1.052987e+003,1.660453e+000
1.056844e+003,2.131500e+000
1.060702e+003,3.105167e+000
1.064559e+003,1.860862e+000
1.068416e+003,1.711598e+000
1.072273e+003,1.815109e+000
1.076130e+003,1.703643e+000
1.079987e+003,1.618724e+000
1.083844e+003,1.475243e+000
1.087701e+003,1.337868e+000
1.091558e+003,1.467225e+000
1.095415e+003,1.661004e+000
1.099272e+003,1.525318e+000
1.103130e+003,1.511709e+000
1.106987e+003,1.589983e+000
1.110844e+003,1.507136e+000
1.114701e+003,1.471265e+000
1.118558e+003,1.532286e+000
1.122415e+003,1.502604e+000
1.126272e+003,1.508952e+000
1.130129e+003,1.528221e+000
1.133986e+003,1.515721e+000
1.137843e+003,1.538781e+000
1.141701e+003,1.501937e+000
1.145558e+003,1.366618e+000
1.149415e+003,1.376371e+000
1.153272e+003,1.474773e+000
1.157129e+003,1.403499e+000
1.160986e+003,1.391027e+000
1.164843e+003,1.429711e+000
1.168700e+003,1.411044e+000
1.172557e+003,1.446734e+000
1.176414e+003,1.476247e+000
1.180271e+003,1.478640e+000
1.184129e+003,1.384093e+000
1.187986e+003,1.334767e+000
1.191843e+003,1.322216e+000
1.195700e+003,1.377261e+000
1.199557e+003,1.363415e+000
1.203414e+003,1.362737e+000
1.207271e+003,1.398563e+000
1.211128e+003,1.387017e+000
1.214985e+003,1.302160e+000
1.218842e+003,1.247028e+000
1.222699e+003,1.184620e+000
1.226557e+003,1.119493e+000
1.230414e+003,1.032204e+000
1.234271e+003,9.383900e-001
1.238128e+003,8.932170e-001
1.241985e+003,8.513814e-001
1.245842e+003,7.943793e-001
1.249699e+003,7.561389e-001
1.253556e+003,7.056497e-001
1.257413e+003,6.728051e-001
1.261271e+003,6.502188e-001
1.265128e+003,6.369540e-001
1.268985e+003,6.187612e-001
1.272842e+003,5.920917e-001
1.276699e+003,5.773522e-001
1.280556e+003,5.686532e-001
1.284413e+003,5.530766e-001
1.288270e+003,5.397776e-001
1.292127e+003,5.247836e-001
1.295984e+003,5.112017e-001
1.299841e+003,4.992099e-001
1.303698e+003,4.903527e-001
1.307556e+003,4.861326e-001
1.311413e+003,4.816564e-001
1.315270e+003,4.710370e-001
1.319127e+003,4.593223e-001
1.322984e+003,4.529935e-001
1.326841e+003,4.469419e-001
1.330698e+003,4.429224e-001
1.334555e+003,4.416987e-001
1.338412e+003,4.376375e-001
1.342270e+003,4.291793e-001
1.346127e+003,4.236432e-001
1.349984e+003,4.219218e-001
1.353841e+003,4.230222e-001
1.357698e+003,4.258131e-001
1.361555e+003,4.294680e-001
1.365412e+003,4.334057e-001
1.369269e+003,4.399710e-001
1.373126e+003,4.440078e-001
1.376983e+003,4.487041e-001
1.380840e+003,4.566473e-001
1.384698e+003,4.672957e-001
1.388555e+003,4.777018e-001
1.392412e+003,4.864912e-001
1.396269e+003,5.026910e-001
1.400126e+003,5.202613e-001
1.403983e+003,5.332375e-001
1.407840e+003,5.460867e-001
1.411697e+003,5.489098e-001
1.415554e+003,5.554383e-001
1.419411e+003,5.623705e-001
1.423269e+003,5.752437e-001
1.427126e+003,5.806986e-001
1.430983e+003,5.810524e-001
1.434840e+003,5.857745e-001
1.438697e+003,5.925959e-001
1.442554e+003,5.878460e-001
1.446411e+003,5.829459e-001
1.450268e+003,5.770848e-001
1.454125e+003,5.585938e-001
1.457982e+003,5.477369e-001
1.461839e+003,5.452021e-001
1.465697e+003,5.426471e-001
1.469554e+003,5.413505e-001
1.473411e+003,5.422861e-001
1.477268e+003,5.430333e-001
1.481125e+003,5.504374e-001
1.484982e+003,5.641711e-001
1.488839e+003,5.767620e-001
1.492696e+003,5.882745e-001
1.496553e+003,5.922365e-001
1.500411e+003,5.955740e-001
1.504268e+003,6.011553e-001
1.508125e+003,6.091709e-001
1.511982e+003,6.056843e-001
1.515839e+003,5.986924e-001
1.519696e+003,5.951340e-001
1.523553e+003,5.827466e-001
1.527410e+003,5.733502e-001
1.531267e+003,5.689738e-001
1.535124e+003,5.621286e-001
1.538981e+003,5.489562e-001
1.542839e+003,5.369866e-001
1.546696e+003,5.232998e-001
1.550553e+003,5.115952e-001
1.554410e+003,5.044036e-001
1.558267e+003,4.973786e-001
1.562124e+003,4.894050e-001
1.565981e+003,4.843392e-001
1.569838e+003,4.775176e-001
1.573695e+003,4.767775e-001
1.577552e+003,4.807715e-001
1.581410e+003,4.796883e-001
1.585267e+003,4.761285e-001
1.589124e+003,4.795240e-001
1.592981e+003,4.894611e-001
1.596838e+003,5.050961e-001
1.600695e+003,5.241161e-001
1.604552e+003,5.416219e-001
1.608409e+003,5.656791e-001
1.612266e+003,5.965351e-001
1.616123e+003,6.274324e-001
1.619980e+003,6.598052e-001
1.623838e+003,6.945389e-001
1.627695e+003,7.248219e-001
1.631552e+003,7.393576e-001
1.635409e+003,7.460976e-001
1.639266e+003,7.433335e-001
1.643123e+003,7.314076e-001
1.646980e+003,7.155766e-001
1.650837e+003,6.982512e-001
1.654694e+003,6.744224e-001
1.658551e+003,6.497422e-001
1.662409e+003,6.193120e-001
1.666266e+003,5.890167e-001
1.670123e+003,5.621735e-001
1.673980e+003,5.358705e-001
1.677837e+003,5.124413e-001
1.681694e+003,4.895854e-001
1.685551e+003,4.637999e-001
1.689408e+003,4.494520e-001
1.693265e+003,4.419011e-001
1.697122e+003,4.274294e-001
1.700979e+003,4.129499e-001
1.704837e+003,4.037820e-001
1.708694e+003,3.962643e-001
1.712551e+003,3.912773e-001
1.716408e+003,3.852558e-001
1.720265e+003,3.782105e-001
1.724122e+003,3.741157e-001
1.727979e+003,3.700752e-001
1.731836e+003,3.632271e-001
1.735693e+003,3.562824e-001
1.739550e+003,3.543521e-001
1.743408e+003,3.531084e-001
1.747265e+003,3.505222e-001
1.751122e+003,3.512765e-001
1.754979e+003,3.507058e-001
1.758836e+003,3.472600e-001
1.762693e+003,3.447022e-001
1.766550e+003,3.472643e-001
1.770407e+003,3.511216e-001
1.774264e+003,3.507317e-001
1.778121e+003,3.500417e-001
1.781979e+003,3.481352e-001
1.785836e+003,3.458834e-001
1.789693e+003,3.437364e-001
1.793550e+003,3.433371e-001
1.797407e+003,3.406803e-001
1.801264e+003,3.350289e-001
1.805121e+003,3.311090e-001
1.808978e+003,3.297980e-001
1.812835e+003,3.298417e-001
1.816692e+003,3.307762e-001
1.820549e+003,3.284493e-001
1.824407e+003,3.255558e-001
1.828264e+003,3.216131e-001
1.832121e+003,3.161211e-001
1.835978e+003,3.152725e-001
1.839835e+003,3.170367e-001
1.843692e+003,3.131895e-001
1.847549e+003,3.098939e-001
1.851406e+003,3.133586e-001
1.855263e+003,3.153949e-001
1.859120e+003,3.145551e-001
1.862978e+003,3.121330e-001
1.866835e+003,3.108092e-001
1.870692e+003,3.088262e-001
1.874549e+003,3.091828e-001
1.878406e+003,3.079618e-001
1.882263e+003,3.025688e-001
1.886120e+003,3.007050e-001
1.889977e+003,3.021827e-001
1.893834e+003,3.014492e-001
1.897691e+003,2.983126e-001
1.901548e+003,2.973613e-001
1.905406e+003,2.955448e-001
1.909263e+003,2.929235e-001
1.913120e+003,2.893043e-001
1.916977e+003,2.861224e-001
1.920834e+003,2.863229e-001
1.924691e+003,2.857105e-001
1.928548e+003,2.850312e-001
1.932405e+003,2.858470e-001
1.936262e+003,2.836024e-001
1.940119e+003,2.818713e-001
1.943977e+003,2.833135e-001
1.947834e+003,2.844464e-001
1.951691e+003,2.840676e-001
1.955548e+003,2.797327e-001
1.959405e+003,2.790900e-001
1.963262e+003,2.796495e-001
1.967119e+003,2.777426e-001
1.970976e+003,2.780750e-001
1.974833e+003,2.770283e-001
1.978690e+003,2.739714e-001
1.982547e+003,2.719345e-001
1.986405e+003,2.713663e-001
1.990262e+003,2.687265e-001
1.994119e+003,2.660807e-001
1.997976e+003,2.661083e-001
2.001833e+003,2.672537e-001
2.005690e+003,2.670597e-001
2.009547e+003,2.650759e-001
2.013404e+003,2.638681e-001
2.017261e+003,2.653430e-001
2.021118e+003,2.645050e-001
2.024976e+003,2.632954e-001
2.028833e+003,2.643787e-001
2.032690e+003,2.653493e-001
2.036547e+003,2.654947e-001
2.040404e+003,2.640439e-001
2.044261e+003,2.637380e-001
2.048118e+003,2.637160e-001
2.051975e+003,2.628959e-001
2.055832e+003,2.614645e-001
2.059689e+003,2.603313e-001
2.063546e+003,2.589988e-001
2.067404e+003,2.576981e-001
2.071261e+003,2.557725e-001
2.075118e+003,2.539511e-001
2.078975e+003,2.517674e-001
2.082832e+003,2.501936e-001
2.086689e+003,2.494188e-001
2.090546e+003,2.499750e-001
2.094403e+003,2.497848e-001
2.098260e+003,2.485946e-001
2.102117e+003,2.467540e-001
2.105975e+003,2.464369e-001
2.109832e+003,2.465836e-001
2.113689e+003,2.468145e-001
2.117546e+003,2.490843e-001
2.121403e+003,2.513629e-001
2.125260e+003,2.478638e-001
2.129117e+003,2.495427e-001
2.132974e+003,2.535893e-001
2.136831e+003,2.535680e-001
2.140688e+003,2.555886e-001
2.144545e+003,2.536303e-001
2.148403e+003,2.526434e-001
2.152260e+003,2.534150e-001
2.156117e+003,2.514354e-001
2.159974e+003,2.494329e-001
2.163831e+003,2.467526e-001
2.167688e+003,2.470825e-001
2.171545e+003,2.480788e-001
2.175402e+003,2.475090e-001
2.179259e+003,2.498818e-001
2.183116e+003,2.498455e-001
2.186974e+003,2.480762e-001
2.190831e+003,2.508251e-001
2.194688e+003,2.522972e-001
2.198545e+003,2.508675e-001
2.202402e+003,2.524977e-001
2.206259e+003,2.547674e-001
2.210116e+003,2.562301e-001
2.213973e+003,2.555163e-001
2.217830e+003,2.584407e-001
2.221688e+003,2.599646e-001
2.225544e+003,2.595673e-001
2.229402e+003,2.592967e-001
2.233259e+003,2.567907e-001
2.237116e+003,2.557482e-001
2.240973e+003,2.576256e-001
2.244830e+003,2.595602e-001
2.248687e+003,2.580003e-001
2.252544e+003,2.574206e-001
2.256401e+003,2.604081e-001
2.260258e+003,2.600361e-001
2.264115e+003,2.592793e-001
2.267973e+003,2.618771e-001
2.271830e+003,2.617030e-001
2.275687e+003,2.605448e-001
2.279544e+003,2.623272e-001
2.283401e+003,2.620582e-001
2.287258e+003,2.620354e-001
2.291115e+003,2.625484e-001
2.294972e+003,2.639674e-001
2.298829e+003,2.651271e-001
2.302687e+003,2.648042e-001
2.306543e+003,2.674791e-001
2.310401e+003,2.710910e-001
2.314258e+003,2.727885e-001
2.318115e+003,2.731844e-001
2.321972e+003,2.738462e-001
2.325829e+003,2.722002e-001
2.329686e+003,2.718356e-001
2.333543e+003,2.717373e-001
2.337400e+003,2.730572e-001
2.341257e+003,2.781397e-001
2.345115e+003,2.771582e-001
2.348972e+003,2.742411e-001
2.352829e+003,2.765864e-001
2.356686e+003,2.784540e-001
2.360543e+003,2.766599e-001
2.364400e+003,2.770529e-001
2.368257e+003,2.753428e-001
2.372114e+003,2.698676e-001
2.375971e+003,2.671833e-001
2.379828e+003,2.680566e-001
2.383686e+003,2.669195e-001
2.387542e+003,2.643110e-001
2.391400e+003,2.640947e-001
2.395257e+003,2.655994e-001
2.399114e+003,2.673976e-001
2.402971e+003,2.695474e-001
2.406828e+003,2.692559e-001
2.410685e+003,2.700444e-001
2.414542e+003,2.720560e-001
2.418399e+003,2.716522e-001
2.422256e+003,2.692920e-001
2.426114e+003,2.697782e-001
2.429971e+003,2.669072e-001
2.433828e+003,2.615048e-001
2.437685e+003,2.616447e-001
2.441542e+003,2.639202e-001
2.445399e+003,2.624713e-001
2.449256e+003,2.603742e-001
2.453113e+003,2.601513e-001
2.456970e+003,2.609974e-001
2.460827e+003,2.614055e-001
2.464684e+003,2.604196e-001
2.468542e+003,2.601904e-001
2.472399e+003,2.617061e-001
2.476256e+003,2.631923e-001
2.480113e+003,2.607618e-001
2.483970e+003,2.593068e-001
2.487827e+003,2.603499e-001
2.491684e+003,2.614139e-001
2.495541e+003,2.623709e-001
2.499398e+003,2.629087e-001
2.503255e+003,2.629074e-001
2.507113e+003,2.622935e-001
2.510969e+003,2.611178e-001
2.514827e+003,2.602915e-001
2.518684e+003,2.616076e-001
2.522541e+003,2.626539e-001
2.526398e+003,2.633054e-001
2.530255e+003,2.604207e-001
2.534112e+003,2.610050e-001
2.537969e+003,2.631480e-001
2.541826e+003,2.648239e-001
2.545683e+003,2.652486e-001
2.549541e+003,2.692233e-001
2.553398e+003,2.726079e-001
2.557255e+003,2.736263e-001
2.561112e+003,2.749703e-001
2.564969e+003,2.753843e-001
2.568826e+003,2.761013e-001
2.572683e+003,2.775255e-001
2.576540e+003,2.792436e-001
2.580397e+003,2.792542e-001
2.584254e+003,2.827838e-001
2.588112e+003,2.872276e-001
2.591969e+003,2.881306e-001
2.595826e+003,2.898715e-001
2.599683e+003,2.897839e-001
2.603540e+003,2.890061e-001
2.607397e+003,2.891087e-001
2.611254e+003,2.908383e-001
2.615111e+003,2.925135e-001
2.618968e+003,2.951183e-001
2.622825e+003,2.984436e-001
2.626682e+003,2.994601e-001
2.630540e+003,3.011683e-001
2.634397e+003,3.035402e-001
2.638254e+003,3.056628e-001
2.642111e+003,3.071715e-001
2.645968e+003,3.095645e-001
2.649825e+003,3.122244e-001
2.653682e+003,3.149695e-001
2.657539e+003,3.174152e-001
2.661396e+003,3.218022e-001
2.665253e+003,3.263026e-001
2.669111e+003,3.291119e-001
2.672968e+003,3.303698e-001
2.676825e+003,3.334252e-001
2.680682e+003,3.374661e-001
2.684539e+003,3.393907e-001
2.688396e+003,3.409179e-001
2.692253e+003,3.479815e-001
2.696110e+003,3.512780e-001
2.699967e+003,3.507589e-001
2.703824e+003,3.544837e-001
2.707681e+003,3.573315e-001
2.711539e+003,3.584500e-001
2.715396e+003,3.600217e-001
2.719253e+003,3.620697e-001
2.723110e+003,3.663376e-001
2.726967e+003,3.730288e-001
2.730824e+003,3.782389e-001
2.734681e+003,3.807136e-001
2.738538e+003,3.855395e-001
2.742395e+003,3.884271e-001
2.746252e+003,3.920019e-001
2.750110e+003,3.943337e-001
2.753967e+003,3.997312e-001
2.757824e+003,4.063219e-001
2.761681e+003,4.114950e-001
2.765538e+003,4.140699e-001
2.769395e+003,4.147462e-001
2.773252e+003,4.189257e-001
2.777109e+003,4.197228e-001
2.780966e+003,4.204009e-001
2.784823e+003,4.285409e-001
2.788680e+003,4.361618e-001
2.792538e+003,4.384989e-001
2.796395e+003,4.406176e-001
2.800252e+003,4.456896e-001
2.804109e+003,4.476565e-001
2.807966e+003,4.490661e-001
2.811823e+003,4.539975e-001
2.815680e+003,4.578669e-001
2.819537e+003,4.603081e-001
2.823394e+003,4.671877e-001
2.827251e+003,4.732755e-001
2.831109e+003,4.765318e-001
2.834966e+003,4.779857e-001
2.838823e+003,4.826171e-001
2.842680e+003,4.892665e-001
2.846537e+003,4.930745e-001
2.850394e+003,4.981890e-001
2.854251e+003,5.022184e-001
2.858108e+003,5.103854e-001
2.861965e+003,5.207276e-001
2.865823e+003,5.245075e-001
2.869679e+003,5.309006e-001
2.873537e+003,5.364392e-001
2.877394e+003,5.375023e-001
2.881251e+003,5.382549e-001
2.885108e+003,5.386022e-001
2.888965e+003,5.450030e-001
2.892822e+003,5.536137e-001
2.896679e+003,5.583003e-001
2.900536e+003,5.613349e-001
2.904393e+003,5.698525e-001
2.908250e+003,5.806779e-001
2.912108e+003,5.861824e-001
2.915965e+003,5.900026e-001
2.919822e+003,5.894254e-001
2.923679e+003,5.941622e-001
2.927536e+003,6.028690e-001
2.931393e+003,6.085507e-001
2.935250e+003,6.154155e-001
2.939107e+003,6.193877e-001
2.942964e+003,6.267998e-001
2.946822e+003,6.338827e-001
2.950678e+003,6.402854e-001
2.954536e+003,6.494052e-001
2.958393e+003,6.521434e-001
2.962250e+003,6.544954e-001
2.966107e+003,6.579624e-001
2.969964e+003,6.648483e-001
2.973821e+003,6.784696e-001
2.977678e+003,6.837069e-001
2.981535e+003,6.857852e-001
2.985392e+003,6.904251e-001
2.989250e+003,7.009125e-001
2.993107e+003,7.114951e-001
2.996964e+003,7.144014e-001
3.000821e+003,7.172085e-001
3.004678e+003,7.253485e-001
3.008535e+003,7.273371e-001
3.012392e+003,7.253325e-001
3.016249e+003,7.364495e-001
3.020106e+003,7.530662e-001
3.023963e+003,7.539849e-001
3.027821e+003,7.529483e-001
3.031677e+003,7.629055e-001
3.035535e+003,7.776935e-001
3.039392e+003,7.859792e-001
3.043249e+003,7.905453e-001
3.047106e+003,8.018766e-001
3.050963e+003,8.000098e-001
3.054820e+003,8.011726e-001
3.058677e+003,8.171571e-001
3.062534e+003,8.317925e-001
3.066391e+003,8.417745e-001
3.070249e+003,8.392152e-001
3.074106e+003,8.340688e-001
3.077963e+003,8.305016e-001
3.081820e+003,8.416790e-001
3.085677e+003,8.632094e-001
3.089534e+003,8.774385e-001
3.093391e+003,8.862365e-001
3.097248e+003,8.878722e-001
3.101105e+003,8.839035e-001
3.104962e+003,8.917669e-001
3.108820e+003,9.134369e-001
3.112677e+003,9.271382e-001
3.116534e+003,9.277576e-001
3.120391e+003,9.227718e-001
3.124248e+003,9.225107e-001
3.128105e+003,9.503708e-001
3.131962e+003,9.685847e-001
3.135819e+003,9.675905e-001
3.139676e+003,9.689985e-001
3.143533e+003,9.788957e-001
3.147390e+003,9.814977e-001
3.151248e+003,9.905152e-001
3.155105e+003,1.009169e+000
3.158962e+003,1.009110e+000
3.162819e+003,1.012564e+000
3.166676e+003,1.026901e+000
3.170533e+003,1.032196e+000
3.174390e+003,1.022480e+000
3.178247e+003,1.033462e+000
3.182104e+003,1.050483e+000
3.185961e+003,1.046557e+000
3.189819e+003,1.051064e+000
3.193676e+003,1.072005e+000
3.197533e+003,1.089581e+000
3.201390e+003,1.087952e+000
3.205247e+003,1.095345e+000
3.209104e+003,1.131576e+000
3.212961e+003,1.144860e+000
3.216818e+003,1.138022e+000
3.220675e+003,1.129617e+000
3.224532e+003,1.137672e+000
3.228389e+003,1.148149e+000
3.232247e+003,1.146873e+000
3.236104e+003,1.146318e+000
3.239961e+003,1.158534e+000
3.243818e+003,1.180368e+000
3.247675e+003,1.186984e+000
3.251532e+003,1.183126e+000
3.255389e+003,1.189626e+000
3.259246e+003,1.185092e+000
3.263103e+003,1.192845e+000
3.266960e+003,1.208924e+000
3.270818e+003,1.215403e+000
3.274675e+003,1.212152e+000
3.278532e+003,1.220131e+000
3.282389e+003,1.240688e+000
3.286246e+003,1.226374e+000
3.290103e+003,1.202617e+000
3.293960e+003,1.194204e+000
3.297817e+003,1.223304e+000
3.301674e+003,1.237180e+000
3.305531e+003,1.219350e+000
3.309388e+003,1.227440e+000
3.313246e+003,1.291262e+000
3.317103e+003,1.321416e+000
3.320960e+003,1.296250e+000
3.324817e+003,1.281811e+000
3.328674e+003,1.316776e+000
3.332531e+003,1.330109e+000
3.336388e+003,1.301675e+000
3.340245e+003,1.294503e+000
3.344102e+003,1.315546e+000
3.347959e+003,1.336750e+000
3.351817e+003,1.366295e+000
3.355674e+003,1.369097e+000
3.359531e+003,1.348914e+000
3.363388e+003,1.340207e+000
3.367245e+003,1.336832e+000
3.371102e+003,1.355399e+000
3.374959e+003,1.366658e+000
3.378816e+003,1.381306e+000
3.382673e+003,1.382873e+000
3.386530e+003,1.406163e+000
3.390387e+003,1.418173e+000
3.394245e+003,1.365648e+000
3.398102e+003,1.330396e+000
3.401959e+003,1.341852e+000
3.405816e+003,1.351647e+000
3.409673e+003,1.391256e+000
3.413530e+003,1.425909e+000
3.417387e+003,1.407244e+000
3.421244e+003,1.379699e+000
3.425101e+003,1.408142e+000
3.428958e+003,1.429450e+000
3.432815e+003,1.399493e+000
3.436673e+003,1.388001e+000
3.440530e+003,1.405049e+000
3.444387e+003,1.388364e+000
3.448244e+003,1.370340e+000
3.452101e+003,1.404047e+000
3.455958e+003,1.430097e+000
3.459815e+003,1.421534e+000
3.463672e+003,1.375491e+000
3.467529e+003,1.360341e+000
3.471386e+003,1.420252e+000
3.475244e+003,1.436123e+000
3.479101e+003,1.464364e+000
3.482958e+003,1.475769e+000
3.486815e+003,1.461060e+000
3.490672e+003,1.468522e+000
3.494529e+003,1.442536e+000
3.498386e+003,1.407824e+000
3.502243e+003,1.413697e+000
3.506100e+003,1.430638e+000
3.509958e+003,1.435558e+000
3.513814e+003,1.418104e+000
3.517672e+003,1.417237e+000
3.521529e+003,1.450976e+000
3.525386e+003,1.466827e+000
3.529243e+003,1.485863e+000
3.533100e+003,1.484358e+000
3.536957e+003,1.452042e+000
3.540814e+003,1.433401e+000
3.544671e+003,1.421584e+000
3.548528e+003,1.447853e+000
3.552385e+003,1.430092e+000
3.556243e+003,1.415184e+000
3.560100e+003,1.418479e+000
3.563957e+003,1.386908e+000
3.567814e+003,1.394208e+000
3.571671e+003,1.369190e+000
3.575528e+003,1.331917e+000
3.579385e+003,1.317973e+000
3.583242e+003,1.332809e+000
3.587099e+003,1.318880e+000
3.590957e+003,1.295280e+000
3.594813e+003,1.290115e+000
3.598671e+003,1.255582e+000
3.602528e+003,1.220947e+000
3.606385e+003,1.170167e+000
3.610242e+003,1.129537e+000
3.614099e+003,1.085845e+000
3.617956e+003,1.026587e+000
3.621813e+003,9.711526e-001
3.625670e+003,9.361522e-001
3.629527e+003,8.836975e-001
3.633385e+003,8.207381e-001
3.637242e+003,7.642780e-001
3.641099e+003,7.063807e-001
3.644956e+003,6.489130e-001
3.648813e+003,5.953195e-001
3.652670e+003,5.513818e-001
3.656527e+003,5.119208e-001
3.660384e+003,4.631500e-001
3.664241e+003,4.182533e-001
3.668098e+003,3.845453e-001
3.671956e+003,3.568231e-001
3.675813e+003,3.288355e-001
3.679670e+003,3.066085e-001
3.683527e+003,2.906309e-001
3.687384e+003,2.729261e-001
3.691241e+003,2.569078e-001
3.695098e+003,2.422059e-001
3.698955e+003,2.313045e-001
3.702812e+003,2.196797e-001
3.706669e+003,2.078699e-001
3.710526e+003,2.004086e-001
3.714384e+003,1.952213e-001
3.718241e+003,1.885739e-001
3.722098e+003,1.841708e-001
3.725955e+003,1.832891e-001
3.729812e+003,1.786632e-001
3.733669e+003,1.734548e-001
3.737526e+003,1.688006e-001
3.741383e+003,1.664053e-001
3.745240e+003,1.703974e-001
3.749097e+003,1.707641e-001
3.752955e+003,1.685812e-001
3.756812e+003,1.662389e-001
3.760669e+003,1.637329e-001
3.764526e+003,1.634742e-001
3.768383e+003,1.647726e-001
3.772240e+003,1.635413e-001
3.776097e+003,1.595559e-001
3.779954e+003,1.572811e-001
3.783811e+003,1.573738e-001
3.787668e+003,1.593551e-001
3.791525e+003,1.570777e-001
3.795383e+003,1.526549e-001
3.799240e+003,1.526188e-001
3.803097e+003,1.524187e-001
3.806954e+003,1.515406e-001
3.810811e+003,1.532926e-001
3.814668e+003,1.555168e-001
3.818525e+003,1.534640e-001
3.822382e+003,1.507110e-001
3.826239e+003,1.518920e-001
3.830096e+003,1.541842e-001
3.833954e+003,1.534414e-001
3.837811e+003,1.529544e-001
3.841668e+003,1.551229e-001
3.845525e+003,1.542379e-001
3.849382e+003,1.541647e-001
3.853239e+003,1.551500e-001
3.857096e+003,1.521971e-001
3.860953e+003,1.515088e-001
3.864810e+003,1.538034e-001
3.868667e+003,1.551009e-001
3.872524e+003,1.516986e-001
3.876382e+003,1.511180e-001
3.880239e+003,1.525466e-001
3.884096e+003,1.496620e-001
3.887953e+003,1.466994e-001
3.891810e+003,1.482848e-001
3.895667e+003,1.494158e-001
3.899524e+003,1.485369e-001
3.903381e+003,1.477268e-001
3.907238e+003,1.496221e-001
3.911095e+003,1.522120e-001
3.914953e+003,1.502566e-001
3.918810e+003,1.475708e-001
3.922667e+003,1.465473e-001
3.926524e+003,1.478622e-001
3.930381e+003,1.510849e-001
3.934238e+003,1.544999e-001
3.938095e+003,1.512638e-001
3.941952e+003,1.448797e-001
3.945809e+003,1.451033e-001
3.949667e+003,1.464971e-001
3.953523e+003,1.479252e-001
3.957381e+003,1.476420e-001
3.961238e+003,1.478910e-001
3.965095e+003,1.490040e-001
3.968952e+003,1.474835e-001
3.972809e+003,1.455772e-001
3.976666e+003,1.454656e-001
3.980523e+003,1.461334e-001
3.984380e+003,1.479346e-001
3.988237e+003,1.504000e-001
3.992094e+003,1.495663e-001
3.995952e+003,1.496958e-001
3.999809e+003,1.514745e-001
4.003666e+003,1.507564e-001
4.007523e+003,1.488818e-001
4.011380e+003,1.496280e-001
4.015237e+003,1.475866e-001
4.019094e+003,1.481856e-001
4.022951e+003,1.485261e-001
4.026808e+003,1.490527e-001
4.030666e+003,1.507515e-001
4.034522e+003,1.534519e-001
4.038380e+003,1.553476e-001
4.042237e+003,1.532320e-001
4.046094e+003,1.519413e-001
4.049951e+003,1.513870e-001
4.053808e+003,1.485228e-001
4.057665e+003,1.467075e-001
4.061522e+003,1.492831e-001
4.065379e+003,1.515983e-001
4.069236e+003,1.471155e-001
4.073094e+003,1.429535e-001
4.076951e+003,1.426587e-001
4.080808e+003,1.465270e-001
4.084665e+003,1.472276e-001
4.088522e+003,1.443977e-001
4.092379e+003,1.428150e-001
4.096236e+003,1.428007e-001
4.100093e+003,1.450116e-001
4.103950e+003,1.464739e-001
4.107808e+003,1.477068e-001
4.111665e+003,1.488916e-001
4.115521e+003,1.452824e-001
4.119379e+003,1.445393e-001
4.123236e+003,1.456099e-001
4.127093e+003,1.450739e-001
4.130950e+003,1.463897e-001
4.134807e+003,1.473047e-001
4.138664e+003,1.440756e-001
4.142521e+003,1.430403e-001
4.146378e+003,1.462232e-001
4.150235e+003,1.447343e-001
4.154093e+003,1.420057e-001
4.157950e+003,1.451147e-001
4.161807e+003,1.451570e-001
4.165664e+003,1.414281e-001
4.169521e+003,1.423313e-001
4.173378e+003,1.432915e-001
4.177235e+003,1.412947e-001
4.181092e+003,1.401206e-001
4.184949e+003,1.412431e-001
4.188807e+003,1.395547e-001
4.192664e+003,1.390527e-001
4.196521e+003,1.379033e-001
4.200378e+003,1.381271e-001
4.204235e+003,1.397410e-001
4.208092e+003,1.419152e-001
4.211949e+003,1.366937e-001
4.215806e+003,1.355607e-001
4.219663e+003,1.397379e-001
4.223521e+003,1.411361e-001
4.227377e+003,1.389086e-001
4.231234e+003,1.385809e-001
4.235092e+003,1.406401e-001
4.238949e+003,1.439444e-001
4.242806e+003,1.430398e-001
4.246663e+003,1.386553e-001
4.250520e+003,1.399002e-001
4.254377e+003,1.399974e-001
4.258234e+003,1.392432e-001
4.262091e+003,1.370945e-001
4.265948e+003,1.389394e-001
4.269806e+003,1.416510e-001
4.273663e+003,1.409328e-001
4.277520e+003,1.389670e-001
4.281377e+003,1.380945e-001
4.285234e+003,1.380892e-001
4.289091e+003,1.427201e-001
4.292948e+003,1.440191e-001
4.296805e+003,1.422744e-001
4.300662e+003,1.402790e-001
4.304520e+003,1.424229e-001
4.308376e+003,1.445165e-001
4.312233e+003,1.436030e-001
4.316091e+003,1.411641e-001
4.319948e+003,1.400990e-001
4.323805e+003,1.422949e-001
4.327662e+003,1.425064e-001
4.331519e+003,1.440729e-001
4.335376e+003,1.427747e-001
4.339233e+003,1.405203e-001
4.343090e+003,1.373402e-001
4.346947e+003,1.360224e-001
4.350805e+003,1.417420e-001
4.354662e+003,1.422080e-001
4.358519e+003,1.397346e-001
4.362376e+003,1.363738e-001
4.366233e+003,1.387090e-001
4.370090e+003,1.421934e-001
4.373947e+003,1.440488e-001
4.377804e+003,1.436635e-001
4.381661e+003,1.458141e-001
4.385519e+003,1.485593e-001
4.389375e+003,1.478756e-001
4.393232e+003,1.498103e-001
4.397090e+003,1.529110e-001
4.400947e+003,1.519344e-001
4.404804e+003,1.481062e-001
4.408661e+003,1.471023e-001
4.412518e+003,1.473437e-001
4.416375e+003,1.485344e-001
4.420232e+003,1.467794e-001
4.424089e+003,1.435437e-001
4.427946e+003,1.439079e-001
4.431804e+003,1.440145e-001
4.435661e+003,1.438236e-001
4.439518e+003,1.435535e-001
4.443375e+003,1.444377e-001
4.447232e+003,1.423773e-001
4.451089e+003,1.415317e-001
4.454946e+003,1.438150e-001
4.458803e+003,1.439786e-001
4.462660e+003,1.484751e-001
4.466518e+003,1.564483e-001
4.470375e+003,1.543230e-001
4.474231e+003,1.494987e-001
4.478089e+003,1.515761e-001
4.481946e+003,1.490824e-001
4.485803e+003,1.454224e-001
4.489660e+003,1.447509e-001
4.493517e+003,1.487935e-001
4.497375e+003,1.490317e-001
4.501231e+003,1.486433e-001
4.505088e+003,1.486765e-001
4.508946e+003,1.462010e-001
4.512803e+003,1.457083e-001
4.516660e+003,1.472307e-001
4.520517e+003,1.495372e-001
4.524374e+003,1.493053e-001
4.528231e+003,1.489435e-001
4.532088e+003,1.528930e-001
4.535945e+003,1.549894e-001
4.539802e+003,1.461962e-001
4.543660e+003,1.391151e-001
4.547517e+003,1.426006e-001
4.551374e+003,1.490886e-001
4.555231e+003,1.493028e-001
4.559088e+003,1.485822e-001
4.562945e+003,1.478305e-001
4.566802e+003,1.448973e-001
4.570659e+003,1.438490e-001
4.574516e+003,1.469417e-001
4.578374e+003,1.488794e-001
4.582230e+003,1.432764e-001
4.586087e+003,1.407231e-001
4.589945e+003,1.464608e-001
4.593802e+003,1.455507e-001
4.597659e+003,1.419310e-001
4.601516e+003,1.492333e-001
4.605373e+003,1.559413e-001
4.609230e+003,1.548794e-001
4.613087e+003,1.531377e-001
4.616944e+003,1.499932e-001
4.620801e+003,1.485921e-001
4.624659e+003,1.472374e-001
4.628516e+003,1.458471e-001
4.632373e+003,1.474937e-001
4.636230e+003,1.477825e-001
4.640087e+003,1.479355e-001
4.643944e+003,1.462650e-001
4.647801e+003,1.520635e-001
4.651658e+003,1.524439e-001
4.655515e+003,1.466659e-001
4.659373e+003,1.399317e-001
4.663229e+003,1.393461e-001
4.667086e+003,1.422532e-001
4.670944e+003,1.427475e-001
4.674801e+003,1.444382e-001
4.678658e+003,1.482841e-001
4.682515e+003,1.471528e-001
4.686372e+003,1.489291e-001
4.690229e+003,1.480853e-001
4.694086e+003,1.449239e-001
4.697943e+003,1.457559e-001
4.701800e+003,1.427094e-001
4.705658e+003,1.427767e-001
4.709515e+003,1.466227e-001
4.713372e+003,1.497756e-001
4.717229e+003,1.504755e-001
4.721086e+003,1.526849e-001
4.724943e+003,1.496765e-001
4.728800e+003,1.497633e-001
4.732657e+003,1.484875e-001
4.736514e+003,1.427941e-001
4.740372e+003,1.443470e-001
4.744229e+003,1.491990e-001
4.748085e+003,1.513829e-001
4.751943e+003,1.458138e-001
4.755800e+003,1.435665e-001
4.759657e+003,1.472141e-001
4.763514e+003,1.494580e-001
4.767371e+003,1.490042e-001
4.771228e+003,1.551869e-001
4.775085e+003,1.601258e-001
4.778942e+003,1.570645e-001
4.782799e+003,1.492572e-001
4.786657e+003,1.439066e-001
4.790514e+003,1.499957e-001
4.794371e+003,1.518389e-001
4.798228e+003,1.471988e-001
4.802085e+003,1.418253e-001
4.805942e+003,1.428329e-001
4.809799e+003,1.498032e-001
4.813656e+003,1.490087e-001
4.817513e+003,1.492091e-001
4.821371e+003,1.539300e-001
4.825228e+003,1.583774e-001
4.829084e+003,1.582551e-001
4.832942e+003,1.589688e-001
4.836799e+003,1.582337e-001
4.840656e+003,1.508669e-001
4.844513e+003,1.470519e-001
4.848370e+003,1.512735e-001
4.852227e+003,1.486821e-001
4.856084e+003,1.451043e-001
4.859941e+003,1.472086e-001
4.863798e+003,1.531514e-001
4.867656e+003,1.578680e-001
4.871513e+003,1.588656e-001
4.875370e+003,1.582815e-001
4.879227e+003,1.560168e-001
4.883084e+003,1.518418e-001
4.886941e+003,1.549681e-001
4.890798e+003,1.544496e-001
4.894655e+003,1.518226e-001
4.898512e+003,1.497650e-001
4.902370e+003,1.498890e-001
4.906227e+003,1.468464e-001
4.910083e+003,1.484050e-001
4.913941e+003,1.478757e-001
4.917798e+003,1.503269e-001
4.921655e+003,1.516325e-001
4.925512e+003,1.501998e-001
4.929369e+003,1.500051e-001
4.933226e+003,1.533274e-001
4.937083e+003,1.578684e-001
4.940940e+003,1.568673e-001
4.944797e+003,1.582311e-001
4.948655e+003,1.634542e-001
4.952512e+003,1.587816e-001
4.956369e+003,1.545214e-001
4.960226e+003,1.553589e-001
4.964083e+003,1.522724e-001
4.967940e+003,1.531305e-001
4.971797e+003,1.594547e-001
4.975654e+003,1.628902e-001
4.979511e+003,1.646715e-001
4.983369e+003,1.634565e-001
4.987226e+003,1.560718e-001
4.991083e+003,1.572438e-001
4.994940e+003,1.643511e-001
4.998797e+003,1.664238e-001
5.002654e+003,1.581185e-001
5.006511e+003,1.555421e-001
5.010368e+003,1.578839e-001
5.014225e+003,1.596669e-001
5.018083e+003,1.566772e-001
5.021939e+003,1.503797e-001
5.025796e+003,1.508390e-001
5.029654e+003,1.511738e-001
5.033511e+003,1.539200e-001
5.037368e+003,1.578555e-001
5.041225e+003,1.616143e-001
5.045082e+003,1.654239e-001
5.048939e+003,1.696474e-001
5.052796e+003,1.718535e-001
5.056653e+003,1.692456e-001
5.060510e+003,1.641568e-001
5.064368e+003,1.575570e-001
5.068225e+003,1.613562e-001
5.072082e+003,1.625169e-001
5.075939e+003,1.699845e-001
5.079796e+003,1.727781e-001
5.083653e+003,1.657255e-001
5.087510e+003,1.621502e-001
5.091367e+003,1.660509e-001
5.095224e+003,1.701609e-001
5.099082e+003,1.646673e-001
5.102938e+003,1.577471e-001
5.106795e+003,1.549756e-001
5.110653e+003,1.566415e-001
5.114510e+003,1.608970e-001
5.118367e+003,1.628379e-001
5.122224e+003,1.609480e-001
5.126081e+003,1.673415e-001
5.129938e+003,1.678922e-001
5.133795e+003,1.595514e-001
5.137652e+003,1.547762e-001
5.141509e+003,1.632036e-001
5.145367e+003,1.718588e-001
5.149224e+003,1.680713e-001
5.153081e+003,1.693145e-001
5.156938e+003,1.738599e-001
5.160795e+003,1.702182e-001
5.164652e+003,1.648016e-001
5.168509e+003,1.628889e-001
5.172366e+003,1.670214e-001
5.176223e+003,1.725975e-001
5.180081e+003,1.735697e-001
5.183938e+003,1.724163e-001
5.187794e+003,1.741057e-001
5.191652e+003,1.706202e-001
5.195509e+003,1.713465e-001
5.199366e+003,1.753391e-001
5.203223e+003,1.738015e-001
5.207080e+003,1.680720e-001
5.210937e+003,1.609547e-001
5.214794e+003,1.655560e-001
5.218651e+003,1.742973e-001
5.222508e+003,1.716213e-001
5.226366e+003,1.654433e-001
5.230223e+003,1.626830e-001
5.234080e+003,1.608626e-001
5.237937e+003,1.573317e-001
5.241794e+003,1.603508e-001
5.245651e+003,1.610380e-001
5.249508e+003,1.556931e-001
5.253365e+003,1.575533e-001
5.257222e+003,1.609626e-001
5.261080e+003,1.627411e-001
5.264937e+003,1.683137e-001
5.268793e+003,1.677903e-001
5.272651e+003,1.626588e-001
5.276508e+003,1.617140e-001
5.280365e+003,1.672857e-001
5.284222e+003,1.687551e-001
5.288079e+003,1.626510e-001
5.291936e+003,1.584091e-001
5.295793e+003,1.575016e-001
5.299650e+003,1.555524e-001
5.303507e+003,1.535493e-001
5.307365e+003,1.552150e-001
5.311222e+003,1.573082e-001
5.315079e+003,1.564372e-001
5.318936e+003,1.592352e-001
5.322793e+003,1.586982e-001
5.326650e+003,1.561601e-001
5.330507e+003,1.504113e-001
5.334364e+003,1.473252e-001
5.338221e+003,1.503773e-001
5.342079e+003,1.520890e-001
5.345936e+003,1.590741e-001
5.349792e+003,1.657860e-001
5.353650e+003,1.653043e-001
5.357507e+003,1.624126e-001
5.361364e+003,1.621797e-001
5.365221e+003,1.630384e-001
5.369078e+003,1.668179e-001
5.372935e+003,1.652512e-001
5.376792e+003,1.602881e-001
5.380649e+003,1.598090e-001
5.384506e+003,1.572740e-001
5.388364e+003,1.572285e-001
5.392221e+003,1.576625e-001
5.396078e+003,1.531830e-001
5.399935e+003,1.546151e-001
5.403792e+003,1.494844e-001
5.407649e+003,1.547406e-001
5.411506e+003,1.603336e-001
5.415363e+003,1.607256e-001
5.419220e+003,1.638028e-001
5.423078e+003,1.573385e-001
5.426935e+003,1.535069e-001
5.430792e+003,1.541084e-001
5.434649e+003,1.537882e-001
5.438506e+003,1.584199e-001
5.442363e+003,1.561805e-001
5.446220e+003,1.553761e-001
5.450077e+003,1.594244e-001
5.453934e+003,1.632063e-001
5.457792e+003,1.600552e-001
5.461648e+003,1.604793e-001
5.465505e+003,1.610461e-001
5.469363e+003,1.616607e-001
5.473220e+003,1.688284e-001
5.477077e+003,1.670335e-001
5.480934e+003,1.624989e-001
5.484791e+003,1.643333e-001
5.488648e+003,1.596765e-001
5.492505e+003,1.560985e-001
5.496362e+003,1.580693e-001
5.500219e+003,1.611964e-001
5.504077e+003,1.636749e-001
5.507934e+003,1.602694e-001
5.511791e+003,1.533074e-001
5.515648e+003,1.549176e-001
5.519505e+003,1.651214e-001
5.523362e+003,1.658808e-001
5.527219e+003,1.653216e-001
5.531076e+003,1.635335e-001
5.534933e+003,1.666827e-001
5.538791e+003,1.666547e-001
5.542647e+003,1.658374e-001
5.546504e+003,1.667358e-001
5.550362e+003,1.656626e-001
5.554219e+003,1.643068e-001
5.558076e+003,1.604291e-001
5.561933e+003,1.600362e-001
5.565790e+003,1.618700e-001
5.569647e+003,1.651428e-001
5.573504e+003,1.681694e-001
5.577361e+003,1.676398e-001
5.581218e+003,1.655663e-001
5.585076e+003,1.615789e-001
5.588933e+003,1.606512e-001
5.592790e+003,1.570998e-001
5.596647e+003,1.620307e-001
5.600504e+003,1.690198e-001
5.604361e+003,1.694438e-001
5.608218e+003,1.652679e-001
5.612075e+003,1.597723e-001
5.615932e+003,1.611362e-001
5.619790e+003,1.611134e-001
5.623646e+003,1.625218e-001
5.627503e+003,1.629886e-001
5.631361e+003,1.676141e-001
5.635218e+003,1.689476e-001
5.639075e+003,1.567064e-001
5.642932e+003,1.592718e-001
5.646789e+003,1.650794e-001
5.650646e+003,1.582316e-001
5.654503e+003,1.543851e-001
5.658360e+003,1.614570e-001
5.662217e+003,1.624894e-001
5.666075e+003,1.594648e-001
5.669932e+003,1.618065e-001
5.673789e+003,1.643075e-001
5.677646e+003,1.683932e-001
5.681503e+003,1.664208e-001
5.685360e+003,1.567580e-001
5.689217e+003,1.589808e-001
5.693074e+003,1.610079e-001
5.696931e+003,1.603236e-001
5.700789e+003,1.604250e-001
5.704646e+003,1.621467e-001
5.708502e+003,1.631604e-001
5.712360e+003,1.634044e-001
5.716217e+003,1.685189e-001
5.720074e+003,1.652716e-001
5.723931e+003,1.572454e-001
5.727788e+003,1.544002e-001
5.731645e+003,1.547008e-001
5.735502e+003,1.566521e-001
5.739359e+003,1.587346e-001
5.743216e+003,1.677718e-001
5.747074e+003,1.701241e-001
5.750931e+003,1.652170e-001
5.754788e+003,1.675178e-001
5.758645e+003,1.608979e-001
5.762502e+003,1.616011e-001
5.766359e+003,1.712561e-001
5.770216e+003,1.758097e-001
5.774073e+003,1.718700e-001
5.777930e+003,1.597443e-001
5.781788e+003,1.549895e-001
5.785645e+003,1.595783e-001
5.789501e+003,1.593627e-001
5.793359e+003,1.607288e-001
5.797216e+003,1.554928e-001
5.801073e+003,1.501804e-001
5.804930e+003,1.544222e-001
5.808787e+003,1.614669e-001
5.812644e+003,1.642834e-001
5.816501e+003,1.567262e-001
5.820358e+003,1.565196e-001
5.824215e+003,1.639943e-001
5.828073e+003,1.581933e-001
5.831930e+003,1.608065e-001
5.835787e+003,1.593787e-001
5.839644e+003,1.574081e-001
5.843501e+003,1.607618e-001
5.847358e+003,1.619921e-001
5.851215e+003,1.611918e-001
5.855072e+003,1.689411e-001
5.858929e+003,1.698863e-001
5.862787e+003,1.584461e-001
5.866644e+003,1.547067e-001
5.870500e+003,1.599110e-001
5.874358e+003,1.621031e-001
5.878215e+003,1.673647e-001
5.882072e+003,1.620575e-001
5.885929e+003,1.609429e-001
5.889786e+003,1.636961e-001
5.893643e+003,1.647121e-001
5.897500e+003,1.641032e-001
5.901357e+003,1.556280e-001
5.905214e+003,1.559736e-001
5.909072e+003,1.593107e-001
5.912929e+003,1.535909e-001
5.916786e+003,1.516279e-001
5.920643e+003,1.612641e-001
5.924500e+003,1.704398e-001
5.928357e+003,1.684370e-001
5.932214e+003,1.694506e-001
5.936071e+003,1.700441e-001
5.939928e+003,1.563339e-001
5.943786e+003,1.540721e-001
5.947643e+003,1.578162e-001
5.951500e+003,1.628786e-001
5.955357e+003,1.698901e-001
5.959214e+003,1.660656e-001
5.963071e+003,1.592063e-001
5.966928e+003,1.590161e-001
5.970785e+003,1.630373e-001
5.974642e+003,1.634704e-001
5.978500e+003,1.678617e-001
5.982356e+003,1.673070e-001
5.986213e+003,1.620947e-001
5.990071e+003,1.635943e-001
5.993928e+003,1.650084e-001
5.997785e+003,1.676045e-001
6.001642e+003,1.626851e-001
6.005499e+003,1.565387e-001
6.009356e+003,1.631405e-001
6.013213e+003,1.590695e-001
6.017070e+003,1.492594e-001
6.020927e+003,1.478690e-001
6.024785e+003,1.544629e-001
6.028642e+003,1.542905e-001
6.032499e+003,1.650151e-001
6.036356e+003,1.723397e-001
6.040213e+003,1.604695e-001
6.044070e+003,1.671276e-001
6.047927e+003,1.753037e-001
6.051784e+003,1.685444e-001
6.055641e+003,1.705814e-001
6.059499e+003,1.676593e-001
6.063355e+003,1.608382e-001
6.067212e+003,1.634409e-001
6.071070e+003,1.653960e-001
6.074927e+003,1.586388e-001
6.078784e+003,1.564739e-001
6.082641e+003,1.548651e-001
6.086498e+003,1.619890e-001
6.090355e+003,1.633323e-001
6.094212e+003,1.658971e-001
6.098069e+003,1.654164e-001
6.101926e+003,1.514686e-001
6.105784e+003,1.525357e-001
6.109641e+003,1.581030e-001
6.113498e+003,1.636825e-001
6.117355e+003,1.691339e-001
6.121212e+003,1.764676e-001
6.125069e+003,1.737378e-001
6.128926e+003,1.677848e-001
6.132783e+003,1.577210e-001
6.136640e+003,1.558445e-001
6.140498e+003,1.590056e-001
6.144354e+003,1.595552e-001
6.148211e+003,1.648727e-001
6.152069e+003,1.725222e-001
6.155926e+003,1.689899e-001
6.159783e+003,1.672018e-001
6.163640e+003,1.643434e-001
6.167497e+003,1.613797e-001
6.171354e+003,1.682579e-001
6.175211e+003,1.729464e-001
6.179068e+003,1.703803e-001
6.182925e+003,1.659292e-001
6.186783e+003,1.597616e-001
6.190640e+003,1.607572e-001
6.194497e+003,1.630144e-001
6.198354e+003,1.641364e-001
6.202211e+003,1.599226e-001
6.206068e+003,1.613968e-001
6.209925e+003,1.695883e-001
6.213782e+003,1.744250e-001
6.217639e+003,1.765022e-001
6.221497e+003,1.762835e-001
6.225354e+003,1.644337e-001
6.229210e+003,1.647584e-001
6.233068e+003,1.686383e-001
6.236925e+003,1.535928e-001
6.240782e+003,1.525678e-001
6.244639e+003,1.674386e-001
6.248496e+003,1.643515e-001
6.252353e+003,1.532182e-001
6.256210e+003,1.638821e-001
6.260067e+003,1.708548e-001
6.263924e+003,1.713105e-001
6.267782e+003,1.728749e-001
6.271639e+003,1.512199e-001
6.275496e+003,1.492612e-001
6.279353e+003,1.642817e-001
6.283210e+003,1.702646e-001
6.287067e+003,1.711564e-001
6.290924e+003,1.624710e-001
6.294781e+003,1.520674e-001
6.298638e+003,1.538426e-001
6.302496e+003,1.586397e-001
6.306353e+003,1.702815e-001
6.310209e+003,1.643650e-001
6.314067e+003,1.573878e-001
6.317924e+003,1.657675e-001
6.321781e+003,1.592719e-001
6.325638e+003,1.597047e-001
6.329495e+003,1.708578e-001
6.333352e+003,1.649417e-001
6.337209e+003,1.641505e-001
6.341066e+003,1.648118e-001
6.344923e+003,1.628778e-001
6.348780e+003,1.591352e-001
6.352638e+003,1.632938e-001
6.356495e+003,1.572545e-001
6.360352e+003,1.549028e-001
6.364209e+003,1.716085e-001
6.368066e+003,1.718007e-001
6.371923e+003,1.628513e-001
6.375780e+003,1.689775e-001
6.379637e+003,1.643891e-001
6.383494e+003,1.563139e-001
6.387352e+003,1.545540e-001
6.391208e+003,1.591113e-001
6.395065e+003,1.660385e-001
6.398923e+003,1.638842e-001
6.402780e+003,1.524097e-001
6.406637e+003,1.602110e-001
6.410494e+003,1.725062e-001
6.414351e+003,1.735230e-001
6.418208e+003,1.594619e-001
6.422065e+003,1.511753e-001
6.425922e+003,1.728079e-001
6.429779e+003,1.783395e-001
6.433637e+003,1.738948e-001
6.437494e+003,1.731072e-001
6.441351e+003,1.635178e-001
6.445208e+003,1.620010e-001
6.449065e+003,1.720672e-001
6.452922e+003,1.699377e-001
6.456779e+003,1.571995e-001
6.460636e+003,1.575086e-001
6.464493e+003,1.629827e-001
6.468351e+003,1.631518e-001
6.472208e+003,1.590702e-001
6.476064e+003,1.528242e-001
6.479922e+003,1.709061e-001
6.483779e+003,1.898389e-001
6.487636e+003,1.744814e-001
6.491493e+003,1.525897e-001
6.495350e+003,1.561836e-001
6.499207e+003,1.652709e-001
6.503064e+003,1.698524e-001
6.506921e+003,1.714638e-001
6.510778e+003,1.649718e-001
6.514636e+003,1.703204e-001
6.518493e+003,1.777320e-001
6.522350e+003,1.726954e-001
6.526207e+003,1.632368e-001
6.530064e+003,1.494401e-001
6.533921e+003,1.622356e-001
6.537778e+003,1.704307e-001
6.541635e+003,1.706012e-001
6.545492e+003,1.866343e-001
6.549350e+003,1.809063e-001
6.553207e+003,1.762605e-001
6.557063e+003,1.710953e-001
6.560921e+003,1.555641e-001
6.564778e+003,1.533539e-001
6.568635e+003,1.554127e-001
6.572492e+003,1.640171e-001
6.576349e+003,1.662561e-001
6.580206e+003,1.740766e-001
6.584063e+003,1.859235e-001
6.587920e+003,1.731532e-001
6.591777e+003,1.573247e-001
6.595635e+003,1.659160e-001
6.599492e+003,1.726075e-001
6.603349e+003,1.655061e-001
6.607206e+003,1.610428e-001
6.611063e+003,1.599112e-001
6.614920e+003,1.608855e-001
6.618777e+003,1.803875e-001
6.622634e+003,1.722746e-001
6.626491e+003,1.546208e-001
6.630349e+003,1.518703e-001
6.634206e+003,1.598439e-001
6.638063e+003,1.610156e-001
6.641920e+003,1.620791e-001
6.645777e+003,1.788058e-001
6.649634e+003,1.840229e-001
6.653491e+003,1.625208e-001
6.657348e+003,1.498077e-001
6.661205e+003,1.541447e-001
6.665063e+003,1.596337e-001
6.668919e+003,1.534971e-001
6.672776e+003,1.466296e-001
6.676634e+003,1.487185e-001
6.680491e+003,1.602472e-001
6.684348e+003,1.692279e-001
6.688205e+003,1.570080e-001
6.692062e+003,1.729258e-001
6.695919e+003,1.810865e-001
6.699776e+003,1.805556e-001
6.703633e+003,1.860806e-001
6.707490e+003,1.801993e-001
6.711348e+003,1.752936e-001
6.715205e+003,1.746939e-001
6.719062e+003,1.635738e-001
6.722919e+003,1.552610e-001
6.726776e+003,1.609056e-001
6.730633e+003,1.682187e-001
6.734490e+003,1.886405e-001
6.738347e+003,1.908947e-001
6.742204e+003,1.695737e-001
6.746062e+003,1.678237e-001
6.749918e+003,1.707394e-001
6.753775e+003,1.639477e-001
6.757633e+003,1.580719e-001
6.761490e+003,1.615945e-001
6.765347e+003,1.732100e-001
6.769204e+003,1.561550e-001
6.773061e+003,1.443918e-001
6.776918e+003,1.507162e-001
6.780775e+003,1.578255e-001
6.784632e+003,1.686388e-001
6.788489e+003,1.819382e-001
6.792347e+003,1.928546e-001
6.796204e+003,1.701348e-001
6.800061e+003,1.488104e-001
6.803918e+003,1.564873e-001
6.807775e+003,1.654001e-001
6.811632e+003,1.620633e-001
6.815489e+003,1.546574e-001
6.819346e+003,1.650045e-001
6.823203e+003,1.646077e-001
6.827061e+003,1.737502e-001
6.830917e+003,1.724343e-001
6.834774e+003,1.773791e-001
6.838632e+003,1.928785e-001
6.842489e+003,1.701403e-001
6.846346e+003,1.689970e-001
6.850203e+003,1.708254e-001
6.854060e+003,1.594266e-001
6.857917e+003,1.650525e-001
6.861774e+003,1.607720e-001
6.865631e+003,1.731025e-001
6.869488e+003,1.803808e-001
6.873346e+003,1.615594e-001
6.877203e+003,1.546075e-001
6.881060e+003,1.501243e-001
6.884917e+003,1.620832e-001
6.888774e+003,1.717236e-001
6.892631e+003,1.674065e-001
6.896488e+003,1.729242e-001
6.900345e+003,1.730369e-001
6.904202e+003,1.751163e-001
6.908060e+003,1.928597e-001
6.911917e+003,2.093780e-001
6.915773e+003,1.902104e-001
6.919631e+003,1.604738e-001
6.923488e+003,1.598544e-001
6.927345e+003,1.739271e-001
6.931202e+003,1.768702e-001
6.935059e+003,1.869254e-001
6.938916e+003,1.974796e-001
6.942773e+003,2.053151e-001
6.946630e+003,2.007796e-001
6.950487e+003,1.841236e-001
6.954345e+003,1.757839e-001
6.958202e+003,1.732818e-001
6.962059e+003,1.445827e-001
6.965916e+003,1.537150e-001
6.969773e+003,1.671107e-001
6.973630e+003,1.636789e-001
6.977487e+003,1.692834e-001
6.981344e+003,1.852693e-001
6.985201e+003,1.971145e-001
6.989059e+003,1.915012e-001
6.992916e+003,1.900793e-001
6.996772e+003,1.994690e-001
7.000630e+003,2.046846e-001
7.004487e+003,1.978266e-001
7.008344e+003,1.930005e-001
7.012201e+003,1.939626e-001
7.016058e+003,1.873154e-001
7.019915e+003,1.817885e-001
7.023772e+003,1.679023e-001
7.027629e+003,1.714156e-001
7.031486e+003,1.752837e-001
7.035344e+003,1.763766e-001
7.039201e+003,1.833947e-001
7.043058e+003,1.867344e-001
7.046915e+003,1.962507e-001
7.050772e+003,2.061596e-001
7.054629e+003,1.990510e-001
7.058486e+003,1.807304e-001
7.062343e+003,1.716366e-001
7.066200e+003,1.633254e-001
7.070058e+003,1.454626e-001
7.073915e+003,1.464482e-001
7.077771e+003,1.744986e-001
7.081629e+003,2.006732e-001
7.085486e+003,2.078368e-001
7.089343e+003,1.973232e-001
7.093200e+003,1.755658e-001
7.097057e+003,1.520756e-001
7.100914e+003,1.614243e-001
7.104771e+003,1.797130e-001
7.108628e+003,1.884448e-001
7.112485e+003,1.837291e-001
7.116343e+003,1.732168e-001
7.120200e+003,1.842200e-001
7.124057e+003,2.000270e-001
7.127914e+003,1.905160e-001
7.131771e+003,1.706123e-001
7.135628e+003,1.646707e-001
7.139485e+003,1.692299e-001
7.143342e+003,1.702317e-001
7.147199e+003,1.710982e-001
7.151057e+003,1.727625e-001
7.154914e+003,1.431998e-001
7.158771e+003,1.330632e-001
7.162628e+003,1.585387e-001
7.166485e+003,1.653525e-001
7.170342e+003,1.691788e-001
7.174199e+003,1.961463e-001
7.178056e+003,1.916111e-001
7.181913e+003,1.607428e-001
7.185771e+003,1.559114e-001
7.189627e+003,1.546905e-001
7.193484e+003,1.724098e-001
7.197342e+003,2.093614e-001
7.201199e+003,1.961134e-001
7.205056e+003,1.892958e-001
7.208913e+003,2.035334e-001
7.212770e+003,1.981126e-001
7.216627e+003,1.900860e-001
7.220484e+003,1.754599e-001
7.224341e+003,1.526257e-001
7.228198e+003,1.747515e-001
7.232056e+003,1.990614e-001
7.235913e+003,1.951865e-001
7.239770e+003,1.846467e-001
7.243627e+003,1.844025e-001
7.247484e+003,1.824440e-001
7.251341e+003,1.835203e-001
7.255198e+003,1.904860e-001
7.259055e+003,1.763851e-001
7.262912e+003,1.674176e-001
7.266770e+003,1.740950e-001
7.270626e+003,1.770178e-001
7.274483e+003,1.673860e-001
7.278341e+003,1.483206e-001
7.282198e+003,1.627577e-001
7.286055e+003,1.779740e-001
7.289912e+003,1.858279e-001
7.293769e+003,1.962832e-001
7.297626e+003,2.279701e-001
7.301483e+003,2.168661e-001
7.305340e+003,1.724638e-001
7.309197e+003,1.841887e-001
7.313055e+003,1.940735e-001
7.316912e+003,2.013152e-001
7.320769e+003,1.995089e-001
7.324626e+003,1.737623e-001
7.328483e+003,1.738830e-001
7.332340e+003,1.941215e-001
7.336197e+003,2.094592e-001
7.340054e+003,2.057486e-001
7.343911e+003,1.670385e-001
7.347769e+003,1.710238e-001
7.351625e+003,1.857048e-001
7.355482e+003,1.718695e-001
7.359340e+003,1.649990e-001
7.363197e+003,1.810253e-001
7.367054e+003,1.643923e-001
7.370911e+003,1.686019e-001
7.374768e+003,1.785953e-001
7.378625e+003,1.789801e-001
7.382482e+003,1.955245e-001
7.386339e+003,1.917777e-001
7.390196e+003,2.012337e-001
7.394054e+003,2.033672e-001
7.397911e+003,1.859517e-001
7.401768e+003,1.551799e-001
7.405625e+003,1.598077e-001
7.409482e+003,1.826382e-001
7.413339e+003,1.740726e-001
7.417196e+003,1.636515e-001
7.421053e+003,1.783913e-001
7.424910e+003,2.038308e-001
7.428768e+003,1.911374e-001
7.432625e+003,1.601186e-001
7.436481e+003,1.727137e-001
7.440339e+003,1.759514e-001
7.444196e+003,1.861333e-001
7.448053e+003,2.106984e-001
7.451910e+003,1.653332e-001
7.455767e+003,1.464511e-001
7.459624e+003,1.754091e-001
7.463481e+003,1.900930e-001
7.467338e+003,1.923880e-001
7.471195e+003,2.029132e-001
7.475053e+003,2.097144e-001
7.478910e+003,2.005345e-001
7.482767e+003,2.062917e-001
7.486624e+003,2.053547e-001
7.490481e+003,1.657574e-001
7.494338e+003,1.638306e-001
7.498195e+003,2.131675e-001
7.502052e+003,1.957185e-001
7.505909e+003,2.083670e-001
7.509767e+003,2.054918e-001
7.513624e+003,1.979790e-001
7.517480e+003,1.879877e-001
7.521338e+003,1.741420e-001
7.525195e+003,2.074126e-001
7.529052e+003,2.077713e-001
7.532909e+003,1.760402e-001
7.536766e+003,1.584712e-001
7.540623e+003,1.688854e-001
7.544480e+003,1.988064e-001
7.548337e+003,1.892118e-001
7.552194e+003,1.672394e-001
7.556052e+003,2.063409e-001
7.559909e+003,2.018090e-001
7.563766e+003,1.970493e-001
7.567623e+003,1.797098e-001
7.571480e+003,1.675431e-001
7.575337e+003,1.869195e-001
7.579194e+003,1.727845e-001
7.583051e+003,1.651947e-001
7.586908e+003,2.081043e-001
7.590766e+003,2.320494e-001
7.594623e+003,1.880756e-001
7.598479e+003,1.754347e-001
7.602337e+003,2.093419e-001
7.606194e+003,2.031026e-001
7.610051e+003,2.125006e-001
7.613908e+003,2.107697e-001
7.617765e+003,1.646408e-001
7.621622e+003,1.828273e-001
7.625479e+003,1.634988e-001
7.629336e+003,1.061571e-001
7.633193e+003,5.236304e-002
7.637051e+003,1.032616e-001
7.640908e+003,1.341335e-001
7.644765e+003,1.249774e-001
7.648622e+003,1.880464e-001
7.652479e+003,1.814950e-001
7.656336e+003,1.455535e-001
7.660193e+003,1.238740e-001
7.664050e+003,1.534647e-001
7.667907e+003,1.710932e-001
7.671765e+003,1.504590e-001
7.675622e+003,1.711136e-001
7.679479e+003,2.518492e-001
7.683336e+003,2.327008e-001
7.687193e+003,1.414602e-001
7.691050e+003,7.537366e-002
7.694907e+003,1.230666e-001
7.698764e+003,1.694923e-001
7.702621e+003,1.907628e-001
7.706479e+003,1.823068e-001
7.710335e+003,1.979727e-001
7.714192e+003,1.887523e-001
7.718050e+003,1.635385e-001
7.721907e+003,1.598856e-001
7.725764e+003,1.559617e-001
7.729621e+003,1.817988e-001
7.733478e+003,2.296349e-001
7.737335e+003,1.891928e-001
7.741192e+003,1.474342e-001
7.745049e+003,1.410035e-001
7.748906e+003,1.748799e-001
7.752764e+003,2.172557e-001
7.756621e+003,1.594272e-001
7.760478e+003,1.591411e-001
7.764335e+003,2.172798e-001
7.768192e+003,1.964014e-001
7.772049e+003,1.521628e-001
7.775906e+003,1.655505e-001
7.779763e+003,1.685224e-001
7.783620e+003,1.492661e-001
7.787478e+003,1.577199e-001
7.791334e+003,1.916146e-001
7.795191e+003,2.632741e-001
7.799049e+003,2.864808e-001
7.802906e+003,2.453926e-001
7.806763e+003,1.764721e-001
7.810620e+003,1.468564e-001
7.814477e+003,1.453208e-001
7.818334e+003,1.474432e-001
7.822191e+003,1.673604e-001
7.826048e+003,1.950976e-001
7.829905e+003,1.784328e-001
7.833763e+003,1.306011e-001
7.837620e+003,1.674386e-001
7.841477e+003,2.027032e-001
7.845334e+003,1.924629e-001
7.849191e+003,2.212189e-001
7.853048e+003,1.207471e-001
7.856905e+003,1.111870e-001
7.860762e+003,2.152022e-001
7.864619e+003,2.205128e-001
7.868477e+003,1.147782e-001
7.872333e+003,1.447372e-001
7.876190e+003,1.770901e-001
7.880048e+003,2.057248e-001
7.883905e+003,2.183805e-001
7.887762e+003,1.815612e-001
7.891619e+003,1.664789e-001
7.895476e+003,1.928056e-001
7.899333e+003,1.810231e-001
7.903190e+003,1.358941e-001
7.907047e+003,1.650903e-001
7.910904e+003,1.971577e-001
7.914762e+003,1.901895e-001
7.918619e+003,2.028444e-001
7.922476e+003,2.377547e-001
7.926333e+003,1.813401e-001
7.930190e+003,9.395756e-002
7.934047e+003,1.758424e-001
7.937904e+003,2.816723e-001
7.941761e+003,2.279083e-001
7.945618e+003,2.258683e-001
7.949476e+003,2.306713e-001
7.953333e+003,1.561502e-001
7.957189e+003,1.499618e-001
7.961047e+003,2.008933e-001
7.964904e+003,2.659960e-001
7.968761e+003,2.442398e-001
7.972618e+003,2.172377e-001
7.976475e+003,2.807524e-001
7.980332e+003,3.231452e-001
7.984189e+003,3.466657e-001
7.988046e+003,3.042305e-001
7.991903e+003,2.291042e-001
7.995761e+003,1.340176e-001
7.999618e+003,1.179442e-001
