4.011380e+002,-1.005215e+000
4.049951e+002,6.000000e+000
4.088522e+002,6.000000e+000
4.127093e+002,6.000000e+000
4.165664e+002,6.000000e+000
4.204235e+002,6.000000e+000
4.242806e+002,9.251961e-002
4.281377e+002,-1.567618e-001
4.319948e+002,5.641935e-001
4.358519e+002,6.000000e+000
4.397090e+002,6.000000e+000
4.435661e+002,6.000000e+000
4.474232e+002,6.000465e-001
4.512803e+002,6.000000e+000
4.551374e+002,6.000000e+000
4.589945e+002,1.087485e+000
4.628516e+002,1.862352e-001
4.667087e+002,-3.030118e-002
4.705658e+002,4.563498e-002
4.744229e+002,-8.967213e-001
4.782800e+002,6.000000e+000
4.821371e+002,6.000000e+000
4.859941e+002,6.000000e+000
4.898513e+002,-4.565336e-002
4.937083e+002,8.768781e-002
4.975654e+002,6.000000e+000
5.014225e+002,-2.513107e-001
5.052796e+002,6.000000e+000
5.091367e+002,3.065469e-001
5.129938e+002,6.000000e+000
5.168509e+002,6.000000e+000
5.207080e+002,6.000000e+000
5.245651e+002,6.000000e+000
5.284222e+002,6.000000e+000
5.322793e+002,6.000000e+000
5.361364e+002,6.000000e+000
5.399935e+002,6.000000e+000
5.438506e+002,4.770816e-001
5.477077e+002,4.410428e-001
5.515648e+002,6.000000e+000
5.554219e+002,6.000000e+000
5.592790e+002,6.000000e+000
5.631361e+002,6.000000e+000
5.669932e+002,6.000000e+000
5.708503e+002,2.790285e-001
5.747074e+002,-1.005961e-001
5.785645e+002,6.000000e+000
5.824216e+002,5.862145e-001
5.862787e+002,6.000000e+000
5.901357e+002,6.000000e+000
5.939929e+002,6.000000e+000
5.978499e+002,6.000000e+000
6.017070e+002,6.000000e+000
6.055641e+002,6.000000e+000
6.094212e+002,6.000000e+000
6.132783e+002,6.000000e+000
6.171354e+002,6.000000e+000
6.209925e+002,6.000000e+000
6.248496e+002,-3.120332e-002
6.287067e+002,2.223977e-001
6.325638e+002,6.000000e+000
6.364209e+002,6.000000e+000
6.402780e+002,1.467445e+000
6.441351e+002,-1.443427e-001
6.479922e+002,6.000000e+000
6.518493e+002,6.000000e+000
6.557064e+002,6.000000e+000
6.595635e+002,6.000000e+000
6.634205e+002,6.000000e+000
6.672777e+002,-3.193677e-001
6.711348e+002,3.229694e-001
6.749918e+002,6.000000e+000
6.788490e+002,6.000000e+000
6.827061e+002,5.706821e-002
6.865631e+002,6.000000e+000
6.904203e+002,6.000000e+000
6.942773e+002,6.000000e+000
6.981344e+002,2.418729e-001
7.019916e+002,-6.098090e-001
7.058486e+002,4.433861e-001
7.097057e+002,6.000000e+000
7.135629e+002,2.423076e-001
7.174199e+002,-1.019946e-001
7.212770e+002,-3.577237e-001
7.251342e+002,1.183450e-001
7.289912e+002,-2.067368e-001
7.328483e+002,-1.490531e+000
7.367054e+002,6.730000e-001
7.405625e+002,3.637229e-002
7.444196e+002,6.000000e+000
7.482767e+002,6.000000e+000
7.521338e+002,-5.451729e-001
7.559908e+002,-1.310122e-002
7.598480e+002,1.458812e-001
7.637051e+002,7.599124e-001
7.675621e+002,6.000000e+000
7.714193e+002,3.115346e-001
7.752764e+002,6.000000e+000
7.791334e+002,6.000000e+000
7.829905e+002,6.000000e+000
7.868477e+002,6.000000e+000
7.907047e+002,6.000000e+000
7.945618e+002,6.000000e+000
7.984189e+002,6.000000e+000
8.022760e+002,6.000000e+000
8.061331e+002,-5.690157e-001
8.099902e+002,1.234202e-001
8.138473e+002,3.328046e-001
8.177044e+002,5.707924e-001
8.215615e+002,9.523561e-001
8.254186e+002,7.114917e-001
8.292757e+002,6.413458e-001
8.331328e+002,1.321673e+000
8.369899e+002,8.725577e-001
8.408470e+002,6.098533e-001
8.447041e+002,8.735570e-001
8.485612e+002,1.453727e+000
8.524183e+002,9.838434e-001
8.562754e+002,1.133440e+000
8.601324e+002,6.000000e+000
8.639896e+002,6.000000e+000
8.678467e+002,6.000000e+000
8.717037e+002,6.000000e+000
8.755609e+002,1.519577e+000
8.794180e+002,1.449286e+000
8.832750e+002,6.000000e+000
8.871321e+002,6.000000e+000
8.909893e+002,6.000000e+000
8.948463e+002,6.000000e+000
8.987034e+002,1.514240e+000
9.025605e+002,1.756004e+000
9.064176e+002,6.000000e+000
9.102747e+002,6.000000e+000
9.141318e+002,6.000000e+000
9.179889e+002,2.688097e+000
9.218461e+002,6.000000e+000
9.257031e+002,6.000000e+000
9.295602e+002,6.000000e+000
9.334174e+002,2.881584e+000
9.372744e+002,2.089267e+000
9.411315e+002,1.852297e+000
9.449886e+002,6.000000e+000
9.488457e+002,2.280294e+000
9.527028e+002,2.013066e+000
9.565599e+002,3.681561e+000
9.604170e+002,3.376575e+000
9.642740e+002,6.000000e+000
9.681312e+002,6.000000e+000
9.719883e+002,6.000000e+000
9.758453e+002,6.000000e+000
9.797025e+002,6.000000e+000
9.835596e+002,6.000000e+000
9.874166e+002,1.949376e+000
9.912738e+002,1.908632e+000
9.951309e+002,2.131148e+000
9.989879e+002,2.101355e+000
1.002845e+003,1.980808e+000
1.006702e+003,1.795838e+000
1.010559e+003,1.860941e+000
1.014416e+003,6.000000e+000
1.018273e+003,2.750592e+000
1.022130e+003,1.895489e+000
1.025988e+003,1.978878e+000
1.029845e+003,2.036133e+000
1.033702e+003,1.780675e+000
1.037559e+003,1.798355e+000
1.041416e+003,1.655176e+000
1.045273e+003,1.612640e+000
1.049130e+003,1.664422e+000
1.052987e+003,1.690759e+000
1.056844e+003,1.576525e+000
1.060702e+003,1.565481e+000
1.064559e+003,1.676171e+000
1.068416e+003,1.853926e+000
1.072273e+003,1.696657e+000
1.076130e+003,1.567827e+000
1.079987e+003,1.568073e+000
1.083844e+003,1.555521e+000
1.087701e+003,1.466623e+000
1.091558e+003,1.435806e+000
1.095415e+003,1.419502e+000
1.099272e+003,1.404052e+000
1.103130e+003,1.399830e+000
1.106987e+003,1.387615e+000
1.110844e+003,1.366592e+000
1.114701e+003,1.377765e+000
1.118558e+003,1.385257e+000
1.122415e+003,1.403518e+000
1.126272e+003,1.478259e+000
1.130129e+003,1.420539e+000
1.133986e+003,1.331682e+000
1.137843e+003,1.314083e+000
1.141701e+003,1.290651e+000
1.145558e+003,1.304458e+000
1.149415e+003,1.326341e+000
1.153272e+003,1.314741e+000
1.157129e+003,1.303778e+000
1.160986e+003,1.278669e+000
1.164843e+003,1.241200e+000
1.168700e+003,1.248180e+000
1.172557e+003,1.268557e+000
1.176414e+003,1.273165e+000
1.180271e+003,1.292156e+000
1.184129e+003,1.275676e+000
1.187986e+003,1.272667e+000
1.191843e+003,1.263302e+000
1.195700e+003,1.261087e+000
1.199557e+003,1.264624e+000
1.203414e+003,1.206455e+000
1.207271e+003,1.120383e+000
1.211128e+003,1.084600e+000
1.214985e+003,1.038650e+000
1.218842e+003,9.471955e-001
1.222699e+003,8.683456e-001
1.226557e+003,7.976420e-001
1.230414e+003,7.368453e-001
1.234271e+003,6.848354e-001
1.238128e+003,6.403107e-001
1.241985e+003,6.078458e-001
1.245842e+003,5.830047e-001
1.249699e+003,5.541638e-001
1.253556e+003,5.256999e-001
1.257413e+003,5.050359e-001
1.261271e+003,4.875040e-001
1.265128e+003,4.736875e-001
1.268985e+003,4.593222e-001
1.272842e+003,4.419537e-001
1.276699e+003,4.272802e-001
1.280556e+003,4.121212e-001
1.284413e+003,4.031280e-001
1.288270e+003,3.983011e-001
1.292127e+003,3.912947e-001
1.295984e+003,3.853344e-001
1.299841e+003,3.794269e-001
1.303698e+003,3.721514e-001
1.307556e+003,3.671560e-001
1.311413e+003,3.592741e-001
1.315270e+003,3.513453e-001
1.319127e+003,3.452244e-001
1.322984e+003,3.364823e-001
1.326841e+003,3.318994e-001
1.330698e+003,3.302133e-001
1.334555e+003,3.234838e-001
1.338412e+003,3.175655e-001
1.342270e+003,3.167380e-001
1.346127e+003,3.174199e-001
1.349984e+003,3.190342e-001
1.353841e+003,3.194289e-001
1.357698e+003,3.207647e-001
1.361555e+003,3.240603e-001
1.365412e+003,3.300307e-001
1.369269e+003,3.348594e-001
1.373126e+003,3.423029e-001
1.376983e+003,3.509813e-001
1.380840e+003,3.592330e-001
1.384698e+003,3.714641e-001
1.388555e+003,3.805603e-001
1.392412e+003,3.864729e-001
1.396269e+003,3.940547e-001
1.400126e+003,4.002025e-001
1.403983e+003,4.106084e-001
1.407840e+003,4.218127e-001
1.411697e+003,4.277413e-001
1.415554e+003,4.327587e-001
1.419411e+003,4.385085e-001
1.423269e+003,4.468881e-001
1.427126e+003,4.567567e-001
1.430983e+003,4.633242e-001
1.434840e+003,4.609683e-001
1.438697e+003,4.533289e-001
1.442554e+003,4.510225e-001
1.446411e+003,4.516291e-001
1.450268e+003,4.458569e-001
1.454125e+003,4.369648e-001
1.457982e+003,4.301481e-001
1.461839e+003,4.303854e-001
1.465697e+003,4.307868e-001
1.469554e+003,4.287515e-001
1.473411e+003,4.285611e-001
1.477268e+003,4.351796e-001
1.481125e+003,4.432743e-001
1.484982e+003,4.469291e-001
1.488839e+003,4.512294e-001
1.492696e+003,4.604698e-001
1.496553e+003,4.692073e-001
1.500411e+003,4.741164e-001
1.504268e+003,4.756087e-001
1.508125e+003,4.736074e-001
1.511982e+003,4.667147e-001
1.515839e+003,4.613962e-001
1.519696e+003,4.560995e-001
1.523553e+003,4.484636e-001
1.527410e+003,4.397708e-001
1.531267e+003,4.273347e-001
1.535124e+003,4.164574e-001
1.538981e+003,4.071637e-001
1.542839e+003,3.957597e-001
1.546696e+003,3.863755e-001
1.550553e+003,3.778145e-001
1.554410e+003,3.721209e-001
1.558267e+003,3.677813e-001
1.562124e+003,3.640476e-001
1.565981e+003,3.590953e-001
1.569838e+003,3.553850e-001
1.573695e+003,3.525266e-001
1.577552e+003,3.516012e-001
1.581410e+003,3.524296e-001
1.585267e+003,3.558154e-001
1.589124e+003,3.602365e-001
1.592981e+003,3.624920e-001
1.596838e+003,3.652130e-001
1.600695e+003,3.705946e-001
1.604552e+003,3.857785e-001
1.608409e+003,4.056378e-001
1.612266e+003,4.231460e-001
1.616123e+003,4.421797e-001
1.619980e+003,4.621105e-001
1.623838e+003,4.804425e-001
1.627695e+003,5.005510e-001
1.631552e+003,5.139280e-001
1.635409e+003,5.188763e-001
1.639266e+003,5.190593e-001
1.643123e+003,5.148747e-001
1.646980e+003,5.064164e-001
1.650837e+003,4.936002e-001
1.654694e+003,4.778332e-001
1.658551e+003,4.603085e-001
1.662409e+003,4.371643e-001
1.666266e+003,4.168524e-001
1.670123e+003,4.017788e-001
1.673980e+003,3.885950e-001
1.677837e+003,3.725592e-001
1.681694e+003,3.553117e-001
1.685551e+003,3.421891e-001
1.689408e+003,3.337924e-001
1.693265e+003,3.247612e-001
1.697122e+003,3.165278e-001
1.700979e+003,3.106008e-001
1.704837e+003,3.045455e-001
1.708694e+003,2.981007e-001
1.712551e+003,2.916033e-001
1.716408e+003,2.881170e-001
1.720265e+003,2.868684e-001
1.724122e+003,2.820476e-001
1.727979e+003,2.750363e-001
1.731836e+003,2.704855e-001
1.735693e+003,2.674088e-001
1.739550e+003,2.656579e-001
1.743408e+003,2.623889e-001
1.747265e+003,2.613626e-001
1.751122e+003,2.627258e-001
1.754979e+003,2.588682e-001
1.758836e+003,2.536935e-001
1.762693e+003,2.549054e-001
1.766550e+003,2.546503e-001
1.770407e+003,2.526470e-001
1.774264e+003,2.509211e-001
1.778121e+003,2.512714e-001
1.781979e+003,2.510028e-001
1.785836e+003,2.494106e-001
1.789693e+003,2.490066e-001
1.793550e+003,2.474691e-001
1.797407e+003,2.461749e-001
1.801264e+003,2.462037e-001
1.805121e+003,2.455713e-001
1.808978e+003,2.429429e-001
1.812835e+003,2.433385e-001
1.816692e+003,2.434610e-001
1.820549e+003,2.431348e-001
1.824407e+003,2.442149e-001
1.828264e+003,2.432015e-001
1.832121e+003,2.377173e-001
1.835978e+003,2.348670e-001
1.839835e+003,2.333723e-001
1.843692e+003,2.316777e-001
1.847549e+003,2.292142e-001
1.851406e+003,2.278186e-001
1.855263e+003,2.269233e-001
1.859120e+003,2.249828e-001
1.862978e+003,2.207275e-001
1.866835e+003,2.190348e-001
1.870692e+003,2.172488e-001
1.874549e+003,2.166889e-001
1.878406e+003,2.154782e-001
1.882263e+003,2.130231e-001
1.886120e+003,2.123571e-001
1.889977e+003,2.130471e-001
1.893834e+003,2.120091e-001
1.897691e+003,2.117429e-001
1.901548e+003,2.117991e-001
1.905406e+003,2.104461e-001
1.909263e+003,2.090405e-001
1.913120e+003,2.098987e-001
1.916977e+003,2.101421e-001
1.920834e+003,2.097155e-001
1.924691e+003,2.098439e-001
1.928548e+003,2.098672e-001
1.932405e+003,2.079348e-001
1.936262e+003,2.060896e-001
1.940119e+003,2.060305e-001
1.943977e+003,2.052346e-001
1.947834e+003,2.026674e-001
1.951691e+003,2.008592e-001
1.955548e+003,1.999549e-001
1.959405e+003,1.980163e-001
1.963262e+003,1.961561e-001
1.967119e+003,1.947955e-001
1.970976e+003,1.934831e-001
1.974833e+003,1.918013e-001
1.978690e+003,1.894251e-001
1.982547e+003,1.874212e-001
1.986405e+003,1.877593e-001
1.990262e+003,1.869432e-001
1.994119e+003,1.834936e-001
1.997976e+003,1.797499e-001
2.001833e+003,1.794020e-001
2.005690e+003,1.797542e-001
2.009547e+003,1.801217e-001
2.013404e+003,1.792944e-001
2.017261e+003,1.768350e-001
2.021118e+003,1.754227e-001
2.024976e+003,1.751531e-001
2.028833e+003,1.756414e-001
2.032690e+003,1.775886e-001
2.036547e+003,1.777555e-001
2.040404e+003,1.760423e-001
2.044261e+003,1.733074e-001
2.048118e+003,1.724711e-001
2.051975e+003,1.734158e-001
2.055832e+003,1.753543e-001
2.059689e+003,1.759545e-001
2.063546e+003,1.747651e-001
2.067404e+003,1.726691e-001
2.071261e+003,1.731516e-001
2.075118e+003,1.734298e-001
2.078975e+003,1.732463e-001
2.082832e+003,1.725085e-001
2.086689e+003,1.714356e-001
2.090546e+003,1.709275e-001
2.094403e+003,1.702822e-001
2.098260e+003,1.694565e-001
2.102117e+003,1.680442e-001
2.105975e+003,1.678698e-001
2.109832e+003,1.663759e-001
2.113689e+003,1.659703e-001
2.117546e+003,1.667187e-001
2.121403e+003,1.651643e-001
2.125260e+003,1.626501e-001
2.129117e+003,1.622024e-001
2.132974e+003,1.632062e-001
2.136831e+003,1.653235e-001
2.140688e+003,1.643664e-001
2.144545e+003,1.619742e-001
2.148403e+003,1.626073e-001
2.152260e+003,1.646440e-001
2.156117e+003,1.656525e-001
2.159974e+003,1.665248e-001
2.163831e+003,1.683446e-001
2.167688e+003,1.687887e-001
2.171545e+003,1.682462e-001
2.175402e+003,1.683456e-001
2.179259e+003,1.697216e-001
2.183116e+003,1.700726e-001
2.186974e+003,1.689937e-001
2.190831e+003,1.692695e-001
2.194688e+003,1.718334e-001
2.198545e+003,1.735778e-001
2.202402e+003,1.734259e-001
2.206259e+003,1.729115e-001
2.210116e+003,1.727203e-001
2.213973e+003,1.709318e-001
2.217830e+003,1.693119e-001
2.221688e+003,1.700798e-001
2.225544e+003,1.710558e-001
2.229402e+003,1.686256e-001
2.233259e+003,1.670733e-001
2.237116e+003,1.687220e-001
2.240973e+003,1.710792e-001
2.244830e+003,1.720545e-001
2.248687e+003,1.712653e-001
2.252544e+003,1.691731e-001
2.256401e+003,1.671080e-001
2.260258e+003,1.666393e-001
2.264115e+003,1.675988e-001
2.267973e+003,1.682168e-001
2.271830e+003,1.688506e-001
2.275687e+003,1.692424e-001
2.279544e+003,1.695069e-001
2.283401e+003,1.712649e-001
2.287258e+003,1.723130e-001
2.291115e+003,1.729719e-001
2.294972e+003,1.746544e-001
2.298829e+003,1.751210e-001
2.302687e+003,1.765029e-001
2.306543e+003,1.776878e-001
2.310401e+003,1.797807e-001
2.314258e+003,1.826532e-001
2.318115e+003,1.834739e-001
2.321972e+003,1.850813e-001
2.325829e+003,1.875569e-001
2.329686e+003,1.883364e-001
2.333543e+003,1.882087e-001
2.337400e+003,1.891769e-001
2.341257e+003,1.920273e-001
2.345115e+003,1.913076e-001
2.348972e+003,1.880616e-001
2.352829e+003,1.903722e-001
2.356686e+003,1.962322e-001
2.360543e+003,1.941440e-001
2.364400e+003,1.888665e-001
2.368257e+003,1.860576e-001
2.372114e+003,1.853708e-001
2.375971e+003,1.852542e-001
2.379828e+003,1.821323e-001
2.383686e+003,1.777789e-001
2.387542e+003,1.754239e-001
2.391400e+003,1.754222e-001
2.395257e+003,1.746130e-001
2.399114e+003,1.740820e-001
2.402971e+003,1.736796e-001
2.406828e+003,1.721059e-001
2.410685e+003,1.728167e-001
2.414542e+003,1.748137e-001
2.418399e+003,1.755103e-001
2.422256e+003,1.749493e-001
2.426114e+003,1.766502e-001
2.429971e+003,1.784979e-001
2.433828e+003,1.786059e-001
2.437685e+003,1.796197e-001
2.441542e+003,1.809053e-001
2.445399e+003,1.822182e-001
2.449256e+003,1.818888e-001
2.453113e+003,1.814192e-001
2.456970e+003,1.818029e-001
2.460827e+003,1.822827e-001
2.464684e+003,1.823158e-001
2.468542e+003,1.811932e-001
2.472399e+003,1.806192e-001
2.476256e+003,1.812949e-001
2.480113e+003,1.809276e-001
2.483970e+003,1.783552e-001
2.487827e+003,1.761044e-001
2.491684e+003,1.764296e-001
2.495541e+003,1.762160e-001
2.499398e+003,1.743508e-001
2.503255e+003,1.744240e-001
2.507113e+003,1.749388e-001
2.510969e+003,1.762301e-001
2.514827e+003,1.767183e-001
2.518684e+003,1.782835e-001
2.522541e+003,1.795786e-001
2.526398e+003,1.789118e-001
2.530255e+003,1.788978e-001
2.534112e+003,1.793286e-001
2.537969e+003,1.798238e-001
2.541826e+003,1.814699e-001
2.545683e+003,1.841114e-001
2.549541e+003,1.845992e-001
2.553398e+003,1.855758e-001
2.557255e+003,1.890554e-001
2.561112e+003,1.902061e-001
2.564969e+003,1.919167e-001
2.568826e+003,1.953339e-001
2.572683e+003,1.982367e-001
2.576540e+003,1.991282e-001
2.580397e+003,2.020659e-001
2.584254e+003,2.042038e-001
2.588112e+003,2.034694e-001
2.591969e+003,2.044166e-001
2.595826e+003,2.064061e-001
2.599683e+003,2.066905e-001
2.603540e+003,2.071054e-001
2.607397e+003,2.064303e-001
2.611254e+003,2.069520e-001
2.615111e+003,2.106145e-001
2.618968e+003,2.116930e-001
2.622825e+003,2.110805e-001
2.626682e+003,2.121975e-001
2.630540e+003,2.130215e-001
2.634397e+003,2.125316e-001
2.638254e+003,2.122536e-001
2.642111e+003,2.143984e-001
2.645968e+003,2.190352e-001
2.649825e+003,2.218531e-001
2.653682e+003,2.224168e-001
2.657539e+003,2.239692e-001
2.661396e+003,2.258522e-001
2.665253e+003,2.264551e-001
2.669111e+003,2.271336e-001
2.672968e+003,2.308417e-001
2.676825e+003,2.376620e-001
2.680682e+003,2.407450e-001
2.684539e+003,2.429929e-001
2.688396e+003,2.462422e-001
2.692253e+003,2.505267e-001
2.696110e+003,2.525226e-001
2.699967e+003,2.540151e-001
2.703824e+003,2.569886e-001
2.707681e+003,2.604668e-001
2.711539e+003,2.630829e-001
2.715396e+003,2.650423e-001
2.719253e+003,2.666648e-001
2.723110e+003,2.692717e-001
2.726967e+003,2.731509e-001
2.730824e+003,2.725101e-001
2.734681e+003,2.716605e-001
2.738538e+003,2.746817e-001
2.742395e+003,2.769035e-001
2.746252e+003,2.788548e-001
2.750110e+003,2.797535e-001
2.753967e+003,2.805624e-001
2.757824e+003,2.829269e-001
2.761681e+003,2.861334e-001
2.765538e+003,2.886551e-001
2.769395e+003,2.916306e-001
2.773252e+003,2.943428e-001
2.777109e+003,2.975362e-001
2.780966e+003,3.015088e-001
2.784823e+003,3.051617e-001
2.788680e+003,3.081194e-001
2.792538e+003,3.112584e-001
2.796395e+003,3.145349e-001
2.800252e+003,3.185639e-001
2.804109e+003,3.244224e-001
2.807966e+003,3.282223e-001
2.811823e+003,3.325889e-001
2.815680e+003,3.366474e-001
2.819537e+003,3.386837e-001
2.823394e+003,3.409931e-001
2.827251e+003,3.447994e-001
2.831109e+003,3.480460e-001
2.834966e+003,3.504242e-001
2.838823e+003,3.527771e-001
2.842680e+003,3.573691e-001
2.846537e+003,3.620216e-001
2.850394e+003,3.666830e-001
2.854251e+003,3.696501e-001
2.858108e+003,3.719753e-001
2.861965e+003,3.711668e-001
2.865823e+003,3.710786e-001
2.869679e+003,3.767917e-001
2.873537e+003,3.808686e-001
2.877394e+003,3.846657e-001
2.881251e+003,3.888514e-001
2.885108e+003,3.922973e-001
2.888965e+003,3.944753e-001
2.892822e+003,3.964130e-001
2.896679e+003,4.002618e-001
2.900536e+003,4.053489e-001
2.904393e+003,4.058990e-001
2.908250e+003,4.102983e-001
2.912108e+003,4.179572e-001
2.915965e+003,4.260182e-001
2.919822e+003,4.306304e-001
2.923679e+003,4.318842e-001
2.927536e+003,4.381006e-001
2.931393e+003,4.429420e-001
2.935250e+003,4.460081e-001
2.939107e+003,4.496942e-001
2.942964e+003,4.516430e-001
2.946822e+003,4.551139e-001
2.950678e+003,4.597220e-001
2.954536e+003,4.625328e-001
2.958393e+003,4.680918e-001
2.962250e+003,4.733409e-001
2.966107e+003,4.763290e-001
2.969964e+003,4.807530e-001
2.973821e+003,4.834770e-001
2.977678e+003,4.842033e-001
2.981535e+003,4.872519e-001
2.985392e+003,4.921037e-001
2.989250e+003,4.971825e-001
2.993107e+003,5.021933e-001
2.996964e+003,5.064049e-001
3.000821e+003,5.095493e-001
3.004678e+003,5.128460e-001
3.008535e+003,5.157613e-001
3.012392e+003,5.180892e-001
3.016249e+003,5.249424e-001
3.020106e+003,5.267990e-001
3.023963e+003,5.317115e-001
3.027821e+003,5.390922e-001
3.031677e+003,5.474384e-001
3.035535e+003,5.522597e-001
3.039392e+003,5.558721e-001
3.043249e+003,5.616251e-001
3.047106e+003,5.664300e-001
3.050963e+003,5.649590e-001
3.054820e+003,5.693933e-001
3.058677e+003,5.751239e-001
3.062534e+003,5.811834e-001
3.066391e+003,5.897035e-001
3.070249e+003,5.961425e-001
3.074106e+003,6.021649e-001
3.077963e+003,6.113951e-001
3.081820e+003,6.157366e-001
3.085677e+003,6.151747e-001
3.089534e+003,6.220663e-001
3.093391e+003,6.324572e-001
3.097248e+003,6.301308e-001
3.101105e+003,6.310462e-001
3.104962e+003,6.408134e-001
3.108820e+003,6.423028e-001
3.112677e+003,6.502039e-001
3.116534e+003,6.563970e-001
3.120391e+003,6.606601e-001
3.124248e+003,6.651554e-001
3.128105e+003,6.673816e-001
3.131962e+003,6.686643e-001
3.135819e+003,6.742595e-001
3.139676e+003,6.865915e-001
3.143533e+003,6.930764e-001
3.147390e+003,6.917375e-001
3.151248e+003,6.989518e-001
3.155105e+003,7.095525e-001
3.158962e+003,7.166185e-001
3.162819e+003,7.261354e-001
3.166676e+003,7.327766e-001
3.170533e+003,7.318137e-001
3.174390e+003,7.360696e-001
3.178247e+003,7.404310e-001
3.182104e+003,7.424724e-001
3.185961e+003,7.528405e-001
3.189819e+003,7.588475e-001
3.193676e+003,7.590285e-001
3.197533e+003,7.648473e-001
3.201390e+003,7.756844e-001
3.205247e+003,7.850009e-001
3.209104e+003,7.870495e-001
3.212961e+003,7.884742e-001
3.216818e+003,7.971296e-001
3.220675e+003,8.014463e-001
3.224532e+003,8.076825e-001
3.228389e+003,8.206282e-001
3.232247e+003,8.300788e-001
3.236104e+003,8.300355e-001
3.239961e+003,8.294256e-001
3.243818e+003,8.242091e-001
3.247675e+003,8.247281e-001
3.251532e+003,8.394157e-001
3.255389e+003,8.451776e-001
3.259246e+003,8.413821e-001
3.263103e+003,8.397347e-001
3.266960e+003,8.477151e-001
3.270818e+003,8.517114e-001
3.274675e+003,8.469996e-001
3.278532e+003,8.465614e-001
3.282389e+003,8.622341e-001
3.286246e+003,8.815269e-001
3.290103e+003,8.799700e-001
3.293960e+003,8.758630e-001
3.297817e+003,8.794662e-001
3.301674e+003,8.824554e-001
3.305531e+003,8.920020e-001
3.309388e+003,9.014747e-001
3.313246e+003,9.056934e-001
3.317103e+003,9.125210e-001
3.320960e+003,9.249077e-001
3.324817e+003,9.337550e-001
3.328674e+003,9.295363e-001
3.332531e+003,9.256214e-001
3.336388e+003,9.335011e-001
3.340245e+003,9.395522e-001
3.344102e+003,9.503293e-001
3.347959e+003,9.536818e-001
3.351817e+003,9.573916e-001
3.355674e+003,9.528896e-001
3.359531e+003,9.536483e-001
3.363388e+003,9.695010e-001
3.367245e+003,9.725781e-001
3.371102e+003,9.745035e-001
3.374959e+003,9.848585e-001
3.378816e+003,9.850087e-001
3.382673e+003,9.868608e-001
3.386530e+003,9.954853e-001
3.390387e+003,9.978548e-001
3.394245e+003,9.873629e-001
3.398102e+003,9.933165e-001
3.401959e+003,1.001874e+000
3.405816e+003,1.001356e+000
3.409673e+003,9.999333e-001
3.413530e+003,1.001145e+000
3.417387e+003,1.012317e+000
3.421244e+003,1.017015e+000
3.425101e+003,1.014826e+000
3.428958e+003,1.013910e+000
3.432815e+003,1.020151e+000
3.436673e+003,1.027150e+000
3.440530e+003,1.034979e+000
3.444387e+003,1.046257e+000
3.448244e+003,1.051901e+000
3.452101e+003,1.038618e+000
3.455958e+003,1.044352e+000
3.459815e+003,1.053964e+000
3.463672e+003,1.056809e+000
3.467529e+003,1.042117e+000
3.471386e+003,1.036929e+000
3.475244e+003,1.042194e+000
3.479101e+003,1.046997e+000
3.482958e+003,1.058730e+000
3.486815e+003,1.073205e+000
3.490672e+003,1.064482e+000
3.494529e+003,1.047735e+000
3.498386e+003,1.048077e+000
3.502243e+003,1.048056e+000
3.506100e+003,1.052346e+000
3.509958e+003,1.065355e+000
3.513814e+003,1.065249e+000
3.517672e+003,1.061620e+000
3.521529e+003,1.048967e+000
3.525386e+003,1.035767e+000
3.529243e+003,1.039733e+000
3.533100e+003,1.045566e+000
3.536957e+003,1.032412e+000
3.540814e+003,1.025830e+000
3.544671e+003,1.023914e+000
3.548528e+003,1.024725e+000
3.552385e+003,1.017579e+000
3.556243e+003,9.980488e-001
3.560100e+003,9.896445e-001
3.563957e+003,1.005289e+000
3.567814e+003,1.002832e+000
3.571671e+003,9.861174e-001
3.575528e+003,9.785886e-001
3.579385e+003,9.744247e-001
3.583242e+003,9.628099e-001
3.587099e+003,9.457843e-001
3.590957e+003,9.259046e-001
3.594813e+003,9.005597e-001
3.598671e+003,8.809869e-001
3.602528e+003,8.577552e-001
3.606385e+003,8.298473e-001
3.610242e+003,8.021572e-001
3.614099e+003,7.737480e-001
3.617956e+003,7.474915e-001
3.621813e+003,7.152371e-001
3.625670e+003,6.827370e-001
3.629527e+003,6.433910e-001
3.633385e+003,6.079367e-001
3.637242e+003,5.775958e-001
3.641099e+003,5.441477e-001
3.644956e+003,5.084496e-001
3.648813e+003,4.771661e-001
3.652670e+003,4.464628e-001
3.656527e+003,4.183092e-001
3.660384e+003,3.932589e-001
3.664241e+003,3.694849e-001
3.668098e+003,3.467252e-001
3.671956e+003,3.219209e-001
3.675813e+003,2.978956e-001
3.679670e+003,2.765330e-001
3.683527e+003,2.596544e-001
3.687384e+003,2.377615e-001
3.691241e+003,2.185299e-001
3.695098e+003,2.047410e-001
3.698955e+003,1.914003e-001
3.702812e+003,1.810847e-001
3.706669e+003,1.713817e-001
3.710526e+003,1.611344e-001
3.714384e+003,1.536829e-001
3.718241e+003,1.468208e-001
3.722098e+003,1.397901e-001
3.725955e+003,1.316743e-001
3.729812e+003,1.281202e-001
3.733669e+003,1.246291e-001
3.737526e+003,1.238537e-001
3.741383e+003,1.260778e-001
3.745240e+003,1.241015e-001
3.749097e+003,1.216736e-001
3.752955e+003,1.219508e-001
3.756812e+003,1.218637e-001
3.760669e+003,1.214576e-001
3.764526e+003,1.197856e-001
3.768383e+003,1.177187e-001
3.772240e+003,1.172140e-001
3.776097e+003,1.175175e-001
3.779954e+003,1.179503e-001
3.783811e+003,1.179372e-001
3.787668e+003,1.151618e-001
3.791525e+003,1.124257e-001
3.795383e+003,1.119898e-001
3.799240e+003,1.118076e-001
3.803097e+003,1.109500e-001
3.806954e+003,1.089119e-001
3.810811e+003,1.070916e-001
3.814668e+003,1.052307e-001
3.818525e+003,1.054983e-001
3.822382e+003,1.040490e-001
3.826239e+003,1.005004e-001
3.830096e+003,1.007802e-001
3.833954e+003,9.988868e-002
3.837811e+003,9.933139e-002
3.841668e+003,1.002056e-001
3.845525e+003,1.000442e-001
3.849382e+003,1.009999e-001
3.853239e+003,1.022062e-001
3.857096e+003,1.013570e-001
3.860953e+003,9.984235e-002
3.864810e+003,9.981354e-002
3.868667e+003,1.019569e-001
3.872524e+003,1.001109e-001
3.876382e+003,9.974650e-002
3.880239e+003,1.012028e-001
3.884096e+003,1.004850e-001
3.887953e+003,1.002217e-001
3.891810e+003,1.024271e-001
3.895667e+003,1.019742e-001
3.899524e+003,1.011857e-001
3.903381e+003,1.012371e-001
3.907238e+003,1.030957e-001
3.911095e+003,1.018463e-001
3.914953e+003,9.816516e-002
3.918810e+003,9.813131e-002
3.922667e+003,9.921217e-002
3.926524e+003,9.682872e-002
3.930381e+003,9.392391e-002
3.934238e+003,9.235252e-002
3.938095e+003,9.218644e-002
3.941952e+003,9.279687e-002
3.945809e+003,9.217751e-002
3.949667e+003,9.141760e-002
3.953523e+003,9.160212e-002
3.957381e+003,9.253130e-002
3.961238e+003,9.119288e-002
3.965095e+003,8.992057e-002
3.968952e+003,9.097025e-002
3.972809e+003,9.076402e-002
3.976666e+003,8.833588e-002
3.980523e+003,8.595605e-002
3.984380e+003,8.609209e-002
3.988237e+003,8.776093e-002
3.992094e+003,9.082315e-002
3.995952e+003,9.295850e-002
3.999809e+003,9.007343e-002
4.003666e+003,8.625020e-002
4.007523e+003,8.821151e-002
4.011380e+003,9.007607e-002
4.015237e+003,8.793088e-002
4.019094e+003,8.836662e-002
4.022951e+003,8.991200e-002
4.026808e+003,9.069469e-002
4.030666e+003,9.044187e-002
4.034522e+003,8.841028e-002
4.038380e+003,8.902074e-002
4.042237e+003,9.103162e-002
4.046094e+003,8.954968e-002
4.049951e+003,8.644491e-002
4.053808e+003,8.452362e-002
4.057665e+003,8.333184e-002
4.061522e+003,8.217891e-002
4.065379e+003,8.285256e-002
4.069236e+003,8.384307e-002
4.073094e+003,8.444940e-002
4.076951e+003,8.447105e-002
4.080808e+003,8.297908e-002
4.084665e+003,8.045720e-002
4.088522e+003,7.873364e-002
4.092379e+003,7.987721e-002
4.096236e+003,8.324362e-002
4.100093e+003,7.924768e-002
4.103950e+003,7.566048e-002
4.107808e+003,7.502171e-002
4.111665e+003,7.482119e-002
4.115521e+003,7.468580e-002
4.119379e+003,7.725437e-002
4.123236e+003,7.756051e-002
4.127093e+003,7.577255e-002
4.130950e+003,7.507603e-002
4.134807e+003,7.475518e-002
4.138664e+003,7.482564e-002
4.142521e+003,7.460002e-002
4.146378e+003,7.354716e-002
4.150235e+003,7.235127e-002
4.154093e+003,7.358009e-002
4.157950e+003,7.606351e-002
4.161807e+003,7.772394e-002
4.165664e+003,7.884896e-002
4.169521e+003,7.903605e-002
4.173378e+003,8.039639e-002
4.177235e+003,7.891686e-002
4.181092e+003,7.468989e-002
4.184949e+003,7.481170e-002
4.188807e+003,7.673659e-002
4.192664e+003,7.689481e-002
4.196521e+003,7.608684e-002
4.200378e+003,7.564483e-002
4.204235e+003,7.824036e-002
4.208092e+003,7.559924e-002
4.211949e+003,7.035882e-002
4.215806e+003,6.943117e-002
4.219663e+003,7.076085e-002
4.223521e+003,7.199547e-002
4.227377e+003,6.940952e-002
4.231234e+003,6.738502e-002
4.235092e+003,6.677599e-002
4.238949e+003,6.464884e-002
4.242806e+003,6.656390e-002
4.246663e+003,6.936528e-002
4.250520e+003,6.797273e-002
4.254377e+003,6.852672e-002
4.258234e+003,6.878790e-002
4.262091e+003,6.701081e-002
4.265948e+003,6.967100e-002
4.269806e+003,7.358336e-002
4.273663e+003,7.108828e-002
4.277520e+003,6.971508e-002
4.281377e+003,6.996129e-002
4.285234e+003,6.797766e-002
4.289091e+003,6.870876e-002
4.292948e+003,7.378339e-002
4.296805e+003,7.628886e-002
4.300662e+003,7.657594e-002
4.304520e+003,7.545442e-002
4.308376e+003,7.613675e-002
4.312233e+003,7.781909e-002
4.316091e+003,7.788050e-002
4.319948e+003,7.365856e-002
4.323805e+003,7.023408e-002
4.327662e+003,7.064571e-002
4.331519e+003,7.078172e-002
4.335376e+003,7.045893e-002
4.339233e+003,7.220396e-002
4.343090e+003,7.109722e-002
4.346947e+003,6.820405e-002
4.350805e+003,6.963821e-002
4.354662e+003,7.020725e-002
4.358519e+003,6.852715e-002
4.362376e+003,6.782319e-002
4.366233e+003,6.838699e-002
4.370090e+003,6.707089e-002
4.373947e+003,6.480499e-002
4.377804e+003,6.569111e-002
4.381661e+003,6.608360e-002
4.385519e+003,6.768218e-002
4.389375e+003,6.888520e-002
4.393232e+003,6.727762e-002
4.397090e+003,6.745677e-002
4.400947e+003,6.846081e-002
4.404804e+003,6.776816e-002
4.408661e+003,6.864499e-002
4.412518e+003,6.930297e-002
4.416375e+003,7.137862e-002
4.420232e+003,7.527234e-002
4.424089e+003,7.716626e-002
4.427946e+003,7.963268e-002
4.431804e+003,8.028102e-002
4.435661e+003,7.557803e-002
4.439518e+003,7.379851e-002
4.443375e+003,7.734091e-002
4.447232e+003,7.859750e-002
4.451089e+003,7.908642e-002
4.454946e+003,8.271480e-002
4.458803e+003,8.082148e-002
4.462660e+003,7.856208e-002
4.466518e+003,7.751579e-002
4.470375e+003,7.708838e-002
4.474231e+003,7.768650e-002
4.478089e+003,7.744493e-002
4.481946e+003,7.804377e-002
4.485803e+003,7.577460e-002
4.489660e+003,7.275104e-002
4.493517e+003,7.496654e-002
4.497375e+003,7.630742e-002
4.501231e+003,7.452669e-002
4.505088e+003,7.349551e-002
4.508946e+003,6.993595e-002
4.512803e+003,6.570048e-002
4.516660e+003,6.925264e-002
4.520517e+003,6.981931e-002
4.524374e+003,6.804655e-002
4.528231e+003,7.107154e-002
4.532088e+003,7.299992e-002
4.535945e+003,7.397456e-002
4.539802e+003,7.749333e-002
4.543660e+003,7.600268e-002
4.547517e+003,7.333975e-002
4.551374e+003,7.706875e-002
4.555231e+003,7.956048e-002
4.559088e+003,8.204625e-002
4.562945e+003,8.385336e-002
4.566802e+003,8.499210e-002
4.570659e+003,8.434453e-002
4.574516e+003,8.169129e-002
4.578374e+003,8.349087e-002
4.582230e+003,8.303930e-002
4.586087e+003,8.054387e-002
4.589945e+003,7.972255e-002
4.593802e+003,7.828547e-002
4.597659e+003,7.532845e-002
4.601516e+003,7.790420e-002
4.605373e+003,7.929274e-002
4.609230e+003,7.625356e-002
4.613087e+003,7.557920e-002
4.616944e+003,7.684778e-002
4.620801e+003,7.328369e-002
4.624659e+003,7.116033e-002
4.628516e+003,7.569069e-002
4.632373e+003,7.607650e-002
4.636230e+003,7.201127e-002
4.640087e+003,7.164184e-002
4.643944e+003,7.131091e-002
4.647801e+003,6.911998e-002
4.651658e+003,7.103669e-002
4.655515e+003,7.471240e-002
4.659373e+003,7.538418e-002
4.663229e+003,7.540338e-002
4.667086e+003,7.763182e-002
4.670944e+003,8.406715e-002
4.674801e+003,8.550113e-002
4.678658e+003,8.402638e-002
4.682515e+003,8.454069e-002
4.686372e+003,8.658875e-002
4.690229e+003,9.049235e-002
4.694086e+003,8.651547e-002
4.697943e+003,8.388106e-002
4.701800e+003,8.515082e-002
4.705658e+003,8.897954e-002
4.709515e+003,8.828155e-002
4.713372e+003,8.836195e-002
4.717229e+003,9.026673e-002
4.721086e+003,9.062810e-002
4.724943e+003,9.036826e-002
4.728800e+003,8.562606e-002
4.732657e+003,8.297223e-002
4.736514e+003,8.806065e-002
4.740372e+003,9.229875e-002
4.744229e+003,9.049892e-002
4.748085e+003,8.513662e-002
4.751943e+003,8.548863e-002
4.755800e+003,8.398823e-002
4.759657e+003,8.221234e-002
4.763514e+003,8.166619e-002
4.767371e+003,8.003645e-002
4.771228e+003,7.991400e-002
4.775085e+003,7.979135e-002
4.778942e+003,8.236011e-002
4.782799e+003,8.429725e-002
4.786657e+003,8.607052e-002
4.790514e+003,8.661100e-002
4.794371e+003,8.571202e-002
4.798228e+003,9.000632e-002
4.802085e+003,9.527495e-002
4.805942e+003,9.508856e-002
4.809799e+003,9.719341e-002
4.813656e+003,9.838038e-002
4.817513e+003,9.503495e-002
4.821371e+003,9.775210e-002
4.825228e+003,1.042054e-001
4.829084e+003,1.036674e-001
4.832942e+003,9.752985e-002
4.836799e+003,9.822062e-002
4.840656e+003,9.960211e-002
4.844513e+003,9.654482e-002
4.848370e+003,9.767799e-002
4.852227e+003,1.013412e-001
4.856084e+003,1.003852e-001
4.859941e+003,9.919414e-002
4.863798e+003,9.508003e-002
4.867656e+003,8.820104e-002
4.871513e+003,8.834948e-002
4.875370e+003,9.494597e-002
4.879227e+003,9.572262e-002
4.883084e+003,9.314984e-002
4.886941e+003,9.220856e-002
4.890798e+003,9.342495e-002
4.894655e+003,9.199344e-002
4.898512e+003,9.337988e-002
4.902370e+003,9.505017e-002
4.906227e+003,9.653687e-002
4.910083e+003,9.912553e-002
4.913941e+003,9.677058e-002
4.917798e+003,9.597114e-002
4.921655e+003,1.009519e-001
4.925512e+003,1.029696e-001
4.929369e+003,1.021517e-001
4.933226e+003,1.025003e-001
4.937083e+003,1.013095e-001
4.940940e+003,1.045967e-001
4.944797e+003,1.068081e-001
4.948655e+003,1.083651e-001
4.952512e+003,1.082529e-001
4.956369e+003,1.083517e-001
4.960226e+003,1.125489e-001
4.964083e+003,1.111566e-001
4.967940e+003,1.093511e-001
4.971797e+003,1.126178e-001
4.975654e+003,1.126075e-001
4.979511e+003,1.091645e-001
4.983369e+003,1.052623e-001
4.987226e+003,1.052040e-001
4.991083e+003,1.069333e-001
4.994940e+003,1.061342e-001
4.998797e+003,1.069246e-001
5.002654e+003,1.075770e-001
5.006511e+003,1.089950e-001
5.010368e+003,1.118681e-001
5.014225e+003,1.089471e-001
5.018083e+003,1.080264e-001
5.021939e+003,1.071845e-001
5.025796e+003,1.051987e-001
5.029654e+003,1.077697e-001
5.033511e+003,1.113298e-001
5.037368e+003,1.085046e-001
5.041225e+003,1.047680e-001
5.045082e+003,1.061216e-001
5.048939e+003,1.082197e-001
5.052796e+003,1.106662e-001
5.056653e+003,1.112675e-001
5.060510e+003,1.108647e-001
5.064368e+003,1.155944e-001
5.068225e+003,1.200539e-001
5.072082e+003,1.152279e-001
5.075939e+003,1.127985e-001
5.079796e+003,1.175101e-001
5.083653e+003,1.180473e-001
5.087510e+003,1.154162e-001
5.091367e+003,1.145274e-001
5.095224e+003,1.142938e-001
5.099082e+003,1.183470e-001
5.102938e+003,1.260008e-001
5.106795e+003,1.248945e-001
5.110653e+003,1.194332e-001
5.114510e+003,1.117470e-001
5.118367e+003,1.099549e-001
5.122224e+003,1.150317e-001
5.126081e+003,1.181018e-001
5.129938e+003,1.251936e-001
5.133795e+003,1.296545e-001
5.137652e+003,1.243749e-001
5.141509e+003,1.193680e-001
5.145367e+003,1.138415e-001
5.149224e+003,1.097453e-001
5.153081e+003,1.122331e-001
5.156938e+003,1.103400e-001
5.160795e+003,1.116289e-001
5.164652e+003,1.178244e-001
5.168509e+003,1.177756e-001
5.172366e+003,1.222994e-001
5.176223e+003,1.249612e-001
5.180081e+003,1.231892e-001
5.183938e+003,1.280485e-001
5.187794e+003,1.294764e-001
5.191652e+003,1.275880e-001
5.195509e+003,1.260392e-001
5.199366e+003,1.302701e-001
5.203223e+003,1.296391e-001
5.207080e+003,1.281891e-001
5.210937e+003,1.299748e-001
5.214794e+003,1.308418e-001
5.218651e+003,1.301036e-001
5.222508e+003,1.275918e-001
5.226366e+003,1.307635e-001
5.230223e+003,1.334991e-001
5.234080e+003,1.267687e-001
5.237937e+003,1.237658e-001
5.241794e+003,1.254622e-001
5.245651e+003,1.282075e-001
5.249508e+003,1.281764e-001
5.253365e+003,1.288174e-001
5.257222e+003,1.257171e-001
5.261080e+003,1.214058e-001
5.264937e+003,1.183092e-001
5.268793e+003,1.146521e-001
5.272651e+003,1.169124e-001
5.276508e+003,1.185923e-001
5.280365e+003,1.169133e-001
5.284222e+003,1.206781e-001
5.288079e+003,1.247044e-001
5.291936e+003,1.248863e-001
5.295793e+003,1.230263e-001
5.299650e+003,1.203986e-001
5.303507e+003,1.158511e-001
5.307365e+003,1.189337e-001
5.311222e+003,1.214564e-001
5.315079e+003,1.185855e-001
5.318936e+003,1.208530e-001
5.322793e+003,1.311287e-001
5.326650e+003,1.305440e-001
5.330507e+003,1.272631e-001
5.334364e+003,1.296072e-001
5.338221e+003,1.288988e-001
5.342079e+003,1.255153e-001
5.345936e+003,1.265253e-001
5.349792e+003,1.266140e-001
5.353650e+003,1.279651e-001
5.357507e+003,1.283490e-001
5.361364e+003,1.291928e-001
5.365221e+003,1.246251e-001
5.369078e+003,1.176219e-001
5.372935e+003,1.193824e-001
5.376792e+003,1.237750e-001
5.380649e+003,1.235342e-001
5.384506e+003,1.236329e-001
5.388364e+003,1.270732e-001
5.392221e+003,1.297391e-001
5.396078e+003,1.253437e-001
5.399935e+003,1.188897e-001
5.403792e+003,1.181178e-001
5.407649e+003,1.192308e-001
5.411506e+003,1.186060e-001
5.415363e+003,1.136247e-001
5.419220e+003,1.206215e-001
5.423078e+003,1.267748e-001
5.426935e+003,1.275104e-001
5.430792e+003,1.264654e-001
5.434649e+003,1.215849e-001
5.438506e+003,1.213413e-001
5.442363e+003,1.321393e-001
5.446220e+003,1.376659e-001
5.450077e+003,1.299189e-001
5.453934e+003,1.248962e-001
5.457792e+003,1.291561e-001
5.461648e+003,1.359030e-001
5.465505e+003,1.334468e-001
5.469363e+003,1.314169e-001
5.473220e+003,1.316671e-001
5.477077e+003,1.307804e-001
5.480934e+003,1.281263e-001
5.484791e+003,1.273521e-001
5.488648e+003,1.260859e-001
5.492505e+003,1.218378e-001
5.496362e+003,1.237108e-001
5.500219e+003,1.287837e-001
5.504077e+003,1.245245e-001
5.507934e+003,1.216822e-001
5.511791e+003,1.263786e-001
5.515648e+003,1.248366e-001
5.519505e+003,1.225713e-001
5.523362e+003,1.206413e-001
5.527219e+003,1.194616e-001
5.531076e+003,1.201526e-001
5.534933e+003,1.192110e-001
5.538791e+003,1.186777e-001
5.542647e+003,1.183728e-001
5.546504e+003,1.210976e-001
5.550362e+003,1.256961e-001
5.554219e+003,1.284901e-001
5.558076e+003,1.297536e-001
5.561933e+003,1.293240e-001
5.565790e+003,1.271841e-001
5.569647e+003,1.236431e-001
5.573504e+003,1.219366e-001
5.577361e+003,1.192176e-001
5.581218e+003,1.234401e-001
5.585076e+003,1.237323e-001
5.588933e+003,1.246011e-001
5.592790e+003,1.257689e-001
5.596647e+003,1.286367e-001
5.600504e+003,1.284496e-001
5.604361e+003,1.255046e-001
5.608218e+003,1.229920e-001
5.612075e+003,1.238860e-001
5.615932e+003,1.203631e-001
5.619790e+003,1.196983e-001
5.623646e+003,1.188578e-001
5.627503e+003,1.165443e-001
5.631361e+003,1.190760e-001
5.635218e+003,1.227852e-001
5.639075e+003,1.240315e-001
5.642932e+003,1.192154e-001
5.646789e+003,1.158124e-001
5.650646e+003,1.232646e-001
5.654503e+003,1.291817e-001
5.658360e+003,1.222058e-001
5.662217e+003,1.197850e-001
5.666075e+003,1.208047e-001
5.669932e+003,1.176445e-001
5.673789e+003,1.187253e-001
5.677646e+003,1.225767e-001
5.681503e+003,1.234697e-001
5.685360e+003,1.189714e-001
5.689217e+003,1.200142e-001
5.693074e+003,1.238859e-001
5.696931e+003,1.208514e-001
5.700789e+003,1.176786e-001
5.704646e+003,1.185215e-001
5.708502e+003,1.164473e-001
5.712360e+003,1.122427e-001
5.716217e+003,1.129336e-001
5.720074e+003,1.194284e-001
5.723931e+003,1.249618e-001
5.727788e+003,1.222198e-001
5.731645e+003,1.189102e-001
5.735502e+003,1.186510e-001
5.739359e+003,1.208598e-001
5.743216e+003,1.276869e-001
5.747074e+003,1.258162e-001
5.750931e+003,1.175014e-001
5.754788e+003,1.143335e-001
5.758645e+003,1.155065e-001
5.762502e+003,1.088321e-001
5.766359e+003,1.082654e-001
5.770216e+003,1.171094e-001
5.774073e+003,1.229431e-001
5.777930e+003,1.227717e-001
5.781788e+003,1.159104e-001
5.785645e+003,1.101332e-001
5.789501e+003,1.142545e-001
5.793359e+003,1.122492e-001
5.797216e+003,1.087183e-001
5.801073e+003,1.079698e-001
5.804930e+003,1.044441e-001
5.808787e+003,1.053272e-001
5.812644e+003,1.107706e-001
5.816501e+003,1.169494e-001
5.820358e+003,1.126705e-001
5.824215e+003,1.156994e-001
5.828073e+003,1.162506e-001
5.831930e+003,1.100761e-001
5.835787e+003,1.079084e-001
5.839644e+003,1.119341e-001
5.843501e+003,1.086618e-001
5.847358e+003,1.075054e-001
5.851215e+003,1.145765e-001
5.855072e+003,1.227515e-001
5.858929e+003,1.195270e-001
5.862787e+003,1.151298e-001
5.866644e+003,1.131587e-001
5.870500e+003,1.115444e-001
5.874358e+003,1.135043e-001
5.878215e+003,1.141329e-001
5.882072e+003,1.081805e-001
5.885929e+003,1.039589e-001
5.889786e+003,9.591039e-002
5.893643e+003,9.670570e-002
5.897500e+003,1.027838e-001
5.901357e+003,1.079288e-001
5.905214e+003,1.063811e-001
5.909072e+003,1.038038e-001
5.912929e+003,1.039033e-001
5.916786e+003,1.048530e-001
5.920643e+003,9.903683e-002
5.924500e+003,9.854735e-002
5.928357e+003,1.010625e-001
5.932214e+003,1.015331e-001
5.936071e+003,1.027399e-001
5.939928e+003,1.038224e-001
5.943786e+003,1.024873e-001
5.947643e+003,1.086608e-001
5.951500e+003,1.161535e-001
5.955357e+003,1.102380e-001
5.959214e+003,9.908266e-002
5.963071e+003,9.582065e-002
5.966928e+003,1.015942e-001
5.970785e+003,1.039208e-001
5.974642e+003,1.007382e-001
5.978500e+003,1.002964e-001
5.982356e+003,1.046802e-001
5.986213e+003,1.017137e-001
5.990071e+003,1.012515e-001
5.993928e+003,1.003244e-001
5.997785e+003,1.041317e-001
6.001642e+003,1.110600e-001
6.005499e+003,9.946619e-002
6.009356e+003,9.183822e-002
6.013213e+003,9.763260e-002
6.017070e+003,1.014486e-001
6.020927e+003,9.649831e-002
6.024785e+003,9.095521e-002
6.028642e+003,9.480177e-002
6.032499e+003,9.717927e-002
6.036356e+003,1.008950e-001
6.040213e+003,9.997009e-002
6.044070e+003,9.389598e-002
6.047927e+003,9.321629e-002
6.051784e+003,9.861927e-002
6.055641e+003,1.045130e-001
6.059499e+003,1.019308e-001
6.063355e+003,9.555029e-002
6.067212e+003,9.451598e-002
6.071070e+003,9.045174e-002
6.074927e+003,9.363356e-002
6.078784e+003,1.014427e-001
6.082641e+003,1.026168e-001
6.086498e+003,9.879091e-002
6.090355e+003,9.344735e-002
6.094212e+003,8.755407e-002
6.098069e+003,8.484355e-002
6.101926e+003,8.986062e-002
6.105784e+003,9.866752e-002
6.109641e+003,9.527396e-002
6.113498e+003,8.918232e-002
6.117355e+003,8.883446e-002
6.121212e+003,9.791841e-002
6.125069e+003,1.064559e-001
6.128926e+003,9.788122e-002
6.132783e+003,9.501767e-002
6.136640e+003,9.739238e-002
6.140498e+003,9.146143e-002
6.144354e+003,8.519673e-002
6.148211e+003,8.326496e-002
6.152069e+003,8.430760e-002
6.155926e+003,8.805939e-002
6.159783e+003,9.553625e-002
6.163640e+003,9.787778e-002
6.167497e+003,9.509648e-002
6.171354e+003,9.581362e-002
6.175211e+003,8.699570e-002
6.179068e+003,8.157118e-002
6.182925e+003,8.414408e-002
6.186783e+003,8.780400e-002
6.190640e+003,8.633184e-002
6.194497e+003,8.223139e-002
6.198354e+003,7.729205e-002
6.202211e+003,7.835472e-002
6.206068e+003,8.242640e-002
6.209925e+003,8.205798e-002
6.213782e+003,8.337592e-002
6.217639e+003,7.900298e-002
6.221497e+003,8.085648e-002
6.225354e+003,8.367596e-002
6.229210e+003,8.344136e-002
6.233068e+003,8.468603e-002
6.236925e+003,8.167594e-002
6.240782e+003,8.538432e-002
6.244639e+003,8.596320e-002
6.248496e+003,8.772155e-002
6.252353e+003,8.798444e-002
6.256210e+003,9.065794e-002
6.260067e+003,8.492550e-002
6.263924e+003,7.408469e-002
6.267782e+003,8.320039e-002
6.271639e+003,9.165167e-002
6.275496e+003,9.391198e-002
6.279353e+003,8.870231e-002
6.283210e+003,8.536431e-002
6.287067e+003,9.179135e-002
6.290924e+003,9.921970e-002
6.294781e+003,8.892798e-002
6.298638e+003,7.183465e-002
6.302496e+003,7.390247e-002
6.306353e+003,7.510179e-002
6.310209e+003,8.125593e-002
6.314067e+003,8.554338e-002
6.317924e+003,7.160917e-002
6.321781e+003,6.677035e-002
6.325638e+003,7.563107e-002
6.329495e+003,8.094602e-002
6.333352e+003,8.040138e-002
6.337209e+003,7.852019e-002
6.341066e+003,8.266278e-002
6.344923e+003,8.316752e-002
6.348780e+003,7.973116e-002
6.352638e+003,8.004104e-002
6.356495e+003,8.465261e-002
6.360352e+003,8.155883e-002
6.364209e+003,8.053912e-002
6.368066e+003,8.182217e-002
6.371923e+003,7.459258e-002
6.375780e+003,7.813456e-002
6.379637e+003,8.252320e-002
6.383494e+003,7.677756e-002
6.387352e+003,8.097876e-002
6.391208e+003,8.822812e-002
6.395065e+003,8.341072e-002
6.398923e+003,8.229607e-002
6.402780e+003,9.830932e-002
6.406637e+003,9.860098e-002
6.410494e+003,9.140889e-002
6.414351e+003,9.561987e-002
6.418208e+003,8.802303e-002
6.422065e+003,8.208023e-002
6.425922e+003,8.516964e-002
6.429779e+003,8.785640e-002
6.433637e+003,8.666743e-002
6.437494e+003,8.542227e-002
6.441351e+003,7.873420e-002
6.445208e+003,7.315176e-002
6.449065e+003,8.575812e-002
6.452922e+003,9.324007e-002
6.456779e+003,9.146647e-002
6.460636e+003,8.810160e-002
6.464493e+003,8.263524e-002
6.468351e+003,6.969710e-002
6.472208e+003,7.094169e-002
6.476064e+003,7.417508e-002
6.479922e+003,6.954300e-002
6.483779e+003,6.643342e-002
6.487636e+003,6.538633e-002
6.491493e+003,7.485870e-002
6.495350e+003,8.233464e-002
6.499207e+003,8.313210e-002
6.503064e+003,8.562900e-002
6.506921e+003,8.227236e-002
6.510778e+003,7.881562e-002
6.514636e+003,7.478014e-002
6.518493e+003,7.584506e-002
6.522350e+003,8.449230e-002
6.526207e+003,9.965271e-002
6.530064e+003,9.436999e-002
6.533921e+003,8.157710e-002
6.537778e+003,8.390815e-002
6.541635e+003,9.285558e-002
6.545492e+003,9.176233e-002
6.549350e+003,8.393520e-002
6.553207e+003,8.282457e-002
6.557063e+003,8.532669e-002
6.560921e+003,8.901066e-002
6.564778e+003,8.984953e-002
6.568635e+003,9.523604e-002
6.572492e+003,8.904047e-002
6.576349e+003,8.354155e-002
6.580206e+003,8.624975e-002
6.584063e+003,8.387611e-002
6.587920e+003,8.475889e-002
6.591777e+003,9.086167e-002
6.595635e+003,8.577455e-002
6.599492e+003,8.014053e-002
6.603349e+003,8.586548e-002
6.607206e+003,7.749301e-002
6.611063e+003,6.886485e-002
6.614920e+003,7.164336e-002
6.618777e+003,7.809363e-002
6.622634e+003,7.346546e-002
6.626491e+003,7.557712e-002
6.630349e+003,7.823969e-002
6.634206e+003,8.095165e-002
6.638063e+003,8.358099e-002
6.641920e+003,9.227195e-002
6.645777e+003,1.014181e-001
6.649634e+003,9.542149e-002
6.653491e+003,8.583559e-002
6.657348e+003,8.091221e-002
6.661205e+003,8.785437e-002
6.665063e+003,9.264776e-002
6.668919e+003,8.586875e-002
6.672776e+003,8.919835e-002
6.676634e+003,8.385232e-002
6.680491e+003,8.703375e-002
6.684348e+003,8.766993e-002
6.688205e+003,9.305423e-002
6.692062e+003,1.030107e-001
6.695919e+003,9.983777e-002
6.699776e+003,9.922820e-002
6.703633e+003,8.907830e-002
6.707490e+003,8.729736e-002
6.711348e+003,8.237569e-002
6.715205e+003,8.706059e-002
6.719062e+003,9.219054e-002
6.722919e+003,8.652825e-002
6.726776e+003,7.550224e-002
6.730633e+003,8.586369e-002
6.734490e+003,9.010258e-002
6.738347e+003,8.232274e-002
6.742204e+003,8.141461e-002
6.746062e+003,8.742806e-002
6.749918e+003,8.104284e-002
6.753775e+003,7.655361e-002
6.757633e+003,8.620037e-002
6.761490e+003,8.915506e-002
6.765347e+003,9.501178e-002
6.769204e+003,1.013726e-001
6.773061e+003,9.409378e-002
6.776918e+003,8.959773e-002
6.780775e+003,9.439720e-002
6.784632e+003,8.630610e-002
6.788489e+003,7.548288e-002
6.792347e+003,7.631671e-002
6.796204e+003,9.382791e-002
6.800061e+003,9.867134e-002
6.803918e+003,9.816421e-002
6.807775e+003,8.900439e-002
6.811632e+003,8.639765e-002
6.815489e+003,9.050867e-002
6.819346e+003,8.305959e-002
6.823203e+003,9.878767e-002
6.827061e+003,1.058941e-001
6.830917e+003,9.549439e-002
6.834774e+003,8.248465e-002
6.838632e+003,9.267130e-002
6.842489e+003,1.055272e-001
6.846346e+003,1.030190e-001
6.850203e+003,1.000627e-001
6.854060e+003,9.458864e-002
6.857917e+003,8.909709e-002
6.861774e+003,1.095139e-001
6.865631e+003,1.095547e-001
6.869488e+003,1.072874e-001
6.873346e+003,1.102416e-001
6.877203e+003,9.821530e-002
6.881060e+003,9.090730e-002
6.884917e+003,8.645906e-002
6.888774e+003,9.469400e-002
6.892631e+003,1.123831e-001
6.896488e+003,1.014872e-001
6.900345e+003,9.853850e-002
6.904202e+003,9.800029e-002
6.908060e+003,9.563267e-002
6.911917e+003,8.955912e-002
6.915773e+003,7.227910e-002
6.919631e+003,7.381170e-002
6.923488e+003,8.944210e-002
6.927345e+003,1.008463e-001
6.931202e+003,1.145869e-001
6.935059e+003,1.148481e-001
6.938916e+003,9.703317e-002
6.942773e+003,9.729176e-002
6.946630e+003,1.129660e-001
6.950487e+003,1.201859e-001
6.954345e+003,1.230636e-001
6.958202e+003,1.128138e-001
6.962059e+003,1.059469e-001
6.965916e+003,9.076063e-002
6.969773e+003,8.170561e-002
6.973630e+003,9.872898e-002
6.977487e+003,1.149976e-001
6.981344e+003,1.079480e-001
6.985201e+003,1.074759e-001
6.989059e+003,1.159183e-001
6.992916e+003,1.235903e-001
6.996772e+003,1.138055e-001
7.000630e+003,1.070978e-001
7.004487e+003,1.226906e-001
7.008344e+003,1.173892e-001
7.012201e+003,1.128902e-001
7.016058e+003,1.166454e-001
7.019915e+003,1.117297e-001
7.023772e+003,1.066120e-001
7.027629e+003,1.112072e-001
7.031486e+003,1.163973e-001
7.035344e+003,1.262528e-001
7.039201e+003,1.316932e-001
7.043058e+003,1.292114e-001
7.046915e+003,1.233031e-001
7.050772e+003,1.207509e-001
7.054629e+003,1.129800e-001
7.058486e+003,9.792522e-002
7.062343e+003,1.082297e-001
7.066200e+003,1.384085e-001
7.070058e+003,1.480707e-001
7.073915e+003,1.390325e-001
7.077771e+003,1.382727e-001
7.081629e+003,1.285870e-001
7.085486e+003,1.336950e-001
7.089343e+003,1.230884e-001
7.093200e+003,9.954148e-002
7.097057e+003,1.020819e-001
7.100914e+003,1.243019e-001
7.104771e+003,1.552653e-001
7.108628e+003,1.468047e-001
7.112485e+003,1.166380e-001
7.116343e+003,1.242210e-001
7.120200e+003,1.414937e-001
7.124057e+003,1.248981e-001
7.127914e+003,1.077167e-001
7.131771e+003,1.176565e-001
7.135628e+003,1.318230e-001
7.139485e+003,1.404313e-001
7.143342e+003,1.190219e-001
7.147199e+003,9.431193e-002
7.151057e+003,7.800329e-002
7.154914e+003,9.423359e-002
7.158771e+003,9.356043e-002
7.162628e+003,9.657475e-002
7.166485e+003,9.837011e-002
7.170342e+003,8.905531e-002
7.174199e+003,9.827043e-002
7.178056e+003,1.118872e-001
7.181913e+003,1.056084e-001
7.185771e+003,1.243801e-001
7.189627e+003,1.381773e-001
7.193484e+003,1.484360e-001
7.197342e+003,1.524109e-001
7.201199e+003,1.243080e-001
7.205056e+003,1.308572e-001
7.208913e+003,1.428853e-001
7.212770e+003,1.087305e-001
7.216627e+003,1.011244e-001
7.220484e+003,1.053153e-001
7.224341e+003,9.503908e-002
7.228198e+003,1.005432e-001
7.232056e+003,1.211241e-001
7.235913e+003,1.157644e-001
7.239770e+003,1.121970e-001
7.243627e+003,1.331861e-001
7.247484e+003,1.220052e-001
7.251341e+003,1.284072e-001
7.255198e+003,1.315770e-001
7.259055e+003,1.229793e-001
7.262912e+003,1.146839e-001
7.266770e+003,1.255223e-001
7.270626e+003,1.150270e-001
7.274483e+003,1.083776e-001
7.278341e+003,1.177530e-001
7.282198e+003,1.206665e-001
7.286055e+003,1.546564e-001
7.289912e+003,1.437393e-001
7.293769e+003,1.176486e-001
7.297626e+003,1.195751e-001
7.301483e+003,1.514037e-001
7.305340e+003,1.625710e-001
7.309197e+003,1.187094e-001
7.313055e+003,1.108252e-001
7.316912e+003,1.295571e-001
7.320769e+003,1.212475e-001
7.324626e+003,1.306326e-001
7.328483e+003,1.498864e-001
7.332340e+003,1.446524e-001
7.336197e+003,1.294431e-001
7.340054e+003,1.138192e-001
7.343911e+003,1.321948e-001
7.347769e+003,1.262604e-001
7.351625e+003,1.384128e-001
7.355482e+003,1.431856e-001
7.359340e+003,1.516482e-001
7.363197e+003,1.447662e-001
7.367054e+003,1.284909e-001
7.370911e+003,1.132746e-001
7.374768e+003,1.276983e-001
7.378625e+003,1.458000e-001
7.382482e+003,1.544812e-001
7.386339e+003,1.566234e-001
7.390196e+003,1.437563e-001
7.394054e+003,1.214359e-001
7.397911e+003,1.266519e-001
7.401768e+003,1.261725e-001
7.405625e+003,1.149031e-001
7.409482e+003,1.017750e-001
7.413339e+003,8.773441e-002
7.417196e+003,1.116287e-001
7.421053e+003,1.416728e-001
7.424910e+003,1.414793e-001
7.428768e+003,1.493450e-001
7.432625e+003,1.397074e-001
7.436481e+003,1.427370e-001
7.440339e+003,1.645212e-001
7.444196e+003,1.556494e-001
7.448053e+003,1.362410e-001
7.451910e+003,1.303502e-001
7.455767e+003,1.451028e-001
7.459624e+003,1.472864e-001
7.463481e+003,1.242539e-001
7.467338e+003,1.309233e-001
7.471195e+003,1.404450e-001
7.475053e+003,1.184770e-001
7.478910e+003,9.239093e-002
7.482767e+003,9.265145e-002
7.486624e+003,1.220418e-001
7.490481e+003,1.533407e-001
7.494338e+003,1.587526e-001
7.498195e+003,1.722311e-001
7.502052e+003,1.532677e-001
7.505909e+003,1.461040e-001
7.509767e+003,1.394943e-001
7.513624e+003,1.392525e-001
7.517480e+003,1.338781e-001
7.521338e+003,1.135546e-001
7.525195e+003,9.600735e-002
7.529052e+003,9.077496e-002
7.532909e+003,1.200713e-001
7.536766e+003,1.394195e-001
7.540623e+003,1.331891e-001
7.544480e+003,1.457613e-001
7.548337e+003,1.282585e-001
7.552194e+003,1.154546e-001
7.556052e+003,1.051063e-001
7.559909e+003,1.393995e-001
7.563766e+003,1.427785e-001
7.567623e+003,1.273029e-001
7.571480e+003,1.529219e-001
7.575337e+003,1.773852e-001
7.579194e+003,1.256322e-001
7.583051e+003,1.021639e-001
7.586908e+003,1.274364e-001
7.590766e+003,1.332110e-001
7.594623e+003,9.931552e-002
7.598479e+003,1.129043e-001
7.602337e+003,1.456944e-001
7.606194e+003,1.331287e-001
7.610051e+003,1.317585e-001
7.613908e+003,1.268259e-001
7.617765e+003,1.218921e-001
7.621622e+003,1.226940e-001
7.625479e+003,1.007667e-001
7.629336e+003,9.890682e-002
7.633193e+003,9.911603e-002
7.637051e+003,9.321908e-002
7.640908e+003,8.702832e-002
7.644765e+003,1.013040e-001
7.648622e+003,1.009681e-001
7.652479e+003,1.161505e-001
7.656336e+003,1.369511e-001
7.660193e+003,1.358072e-001
7.664050e+003,1.125747e-001
7.667907e+003,1.132936e-001
7.671765e+003,1.108190e-001
7.675622e+003,1.029068e-001
7.679479e+003,1.517296e-001
7.683336e+003,1.445352e-001
7.687193e+003,1.236174e-001
7.691050e+003,1.344156e-001
7.694907e+003,1.409234e-001
7.698764e+003,1.366606e-001
7.702621e+003,1.228478e-001
7.706479e+003,1.286124e-001
7.710335e+003,1.536922e-001
7.714192e+003,1.758511e-001
7.718050e+003,1.618162e-001
7.721907e+003,1.184072e-001
7.725764e+003,1.050787e-001
7.729621e+003,1.345407e-001
7.733478e+003,9.534922e-002
7.737335e+003,9.341896e-002
7.741192e+003,1.442138e-001
7.745049e+003,1.142466e-001
7.748906e+003,1.084690e-001
7.752764e+003,1.618601e-001
7.756621e+003,1.640712e-001
7.760478e+003,1.084742e-001
7.764335e+003,1.007354e-001
7.768192e+003,1.605849e-001
7.772049e+003,1.376548e-001
7.775906e+003,1.091051e-001
7.779763e+003,1.510659e-001
7.783620e+003,1.677175e-001
7.787478e+003,1.102346e-001
7.791334e+003,9.522432e-002
7.795191e+003,1.436492e-001
7.799049e+003,2.038830e-001
7.802906e+003,1.863492e-001
7.806763e+003,1.175914e-001
7.810620e+003,1.154223e-001
7.814477e+003,1.931933e-001
7.818334e+003,1.940023e-001
7.822191e+003,1.648943e-001
7.826048e+003,1.642035e-001
7.829905e+003,1.688154e-001
7.833763e+003,1.699580e-001
7.837620e+003,1.277554e-001
7.841477e+003,1.149809e-001
7.845334e+003,1.454859e-001
7.849191e+003,1.125638e-001
7.853048e+003,8.311103e-002
7.856905e+003,1.155053e-001
7.860762e+003,1.043309e-001
7.864619e+003,8.478748e-002
7.868477e+003,7.676976e-002
7.872333e+003,6.736626e-002
7.876190e+003,9.014539e-002
7.880048e+003,1.910777e-001
7.883905e+003,1.709016e-001
7.887762e+003,1.324429e-001
7.891619e+003,1.623938e-001
7.895476e+003,1.991974e-001
7.899333e+003,2.295187e-001
7.903190e+003,2.017325e-001
7.907047e+003,1.197428e-001
7.910904e+003,1.113761e-001
7.914762e+003,1.262674e-001
7.918619e+003,1.416997e-001
7.922476e+003,1.601428e-001
7.926333e+003,1.251528e-001
7.930190e+003,7.886998e-002
7.934047e+003,6.872723e-002
7.937904e+003,1.002984e-001
7.941761e+003,1.054651e-001
7.945618e+003,1.325692e-001
7.949476e+003,1.834980e-001
7.953333e+003,1.769210e-001
7.957189e+003,1.480874e-001
7.961047e+003,1.452270e-001
7.964904e+003,1.800344e-001
7.968761e+003,1.514375e-001
7.972618e+003,8.520298e-002
7.976475e+003,9.489695e-002
7.980332e+003,1.910664e-001
7.984189e+003,1.764415e-001
7.988046e+003,1.712728e-001
7.991903e+003,1.497632e-001
7.995761e+003,1.275185e-001
7.999618e+003,2.084411e-001
