4.011380e+002,6.000000e+000
4.049951e+002,6.000000e+000
4.088522e+002,6.000000e+000
4.127093e+002,6.000000e+000
4.165664e+002,6.000000e+000
4.204235e+002,6.000000e+000
4.242806e+002,6.000000e+000
4.281377e+002,6.861461e-001
4.319948e+002,6.000000e+000
4.358519e+002,6.000000e+000
4.397090e+002,6.000000e+000
4.435661e+002,6.000000e+000
4.474232e+002,2.025931e-001
4.512803e+002,3.643531e-001
4.551374e+002,6.000000e+000
4.589945e+002,6.000000e+000
4.628516e+002,6.000000e+000
4.667087e+002,3.724563e-002
4.705658e+002,6.000000e+000
4.744229e+002,6.000000e+000
4.782800e+002,-2.187882e-002
4.821371e+002,6.000000e+000
4.859941e+002,6.000000e+000
4.898513e+002,6.000000e+000
4.937083e+002,8.500155e-001
4.975654e+002,1.529640e-001
5.014225e+002,6.000000e+000
5.052796e+002,-2.111442e-001
5.091367e+002,6.000000e+000
5.129938e+002,6.000000e+000
5.168509e+002,6.000000e+000
5.207080e+002,6.000000e+000
5.245651e+002,6.000000e+000
5.284222e+002,6.000000e+000
5.322793e+002,2.668646e-002
5.361364e+002,6.000000e+000
5.399935e+002,6.000000e+000
5.438506e+002,6.000000e+000
5.477077e+002,1.895234e-002
5.515648e+002,-4.514948e-001
5.554219e+002,6.000000e+000
5.592790e+002,6.000000e+000
5.631361e+002,6.000000e+000
5.669932e+002,-7.778087e-002
5.708503e+002,-8.724483e-002
5.747074e+002,6.000000e+000
5.785645e+002,6.000000e+000
5.824216e+002,6.000000e+000
5.862787e+002,6.965599e-001
5.901357e+002,-1.830983e+000
5.939929e+002,-3.403632e-001
5.978499e+002,6.000000e+000
6.017070e+002,6.000000e+000
6.055641e+002,6.000000e+000
6.094212e+002,6.000000e+000
6.132783e+002,1.848071e+000
6.171354e+002,1.533587e+000
6.209925e+002,9.596333e-001
6.248496e+002,1.376887e+000
6.287067e+002,-1.019981e-001
6.325638e+002,2.293549e-002
6.364209e+002,-1.697806e-001
6.402780e+002,-4.075117e-001
6.441351e+002,-3.649214e-001
6.479922e+002,6.000000e+000
6.518493e+002,4.521582e-001
6.557064e+002,-4.413971e-002
6.595635e+002,4.941811e-001
6.634205e+002,-2.964922e-001
6.672777e+002,-3.184153e-001
6.711348e+002,8.059834e-001
6.749918e+002,6.000000e+000
6.788490e+002,8.906206e-002
6.827061e+002,2.930521e-001
6.865631e+002,6.000000e+000
6.904203e+002,6.000000e+000
6.942773e+002,6.000000e+000
6.981344e+002,6.000000e+000
7.019916e+002,6.000000e+000
7.058486e+002,6.000000e+000
7.097057e+002,5.317292e-001
7.135629e+002,6.000000e+000
7.174199e+002,8.267593e-001
7.212770e+002,6.000000e+000
7.251342e+002,6.000000e+000
7.289912e+002,6.849460e-002
7.328483e+002,6.000000e+000
7.367054e+002,6.000000e+000
7.405625e+002,-3.362532e-001
7.444196e+002,-2.971884e-001
7.482767e+002,-3.919931e-001
7.521338e+002,-8.504701e-001
7.559908e+002,6.000000e+000
7.598480e+002,1.502445e+000
7.637051e+002,5.675478e-001
7.675621e+002,7.512664e-001
7.714193e+002,6.000000e+000
7.752764e+002,4.151629e-001
7.791334e+002,6.000000e+000
7.829905e+002,6.000000e+000
7.868477e+002,-5.862353e-001
7.907047e+002,-1.105697e-001
7.945618e+002,-9.375429e-001
7.984189e+002,6.000000e+000
8.022760e+002,6.000000e+000
8.061331e+002,-4.257722e-001
8.099902e+002,6.000000e+000
8.138473e+002,6.000000e+000
8.177044e+002,6.000000e+000
8.215615e+002,6.000000e+000
8.254186e+002,6.000000e+000
8.292757e+002,6.000000e+000
8.331328e+002,6.000000e+000
8.369899e+002,1.657972e+000
8.408470e+002,1.321838e+000
8.447041e+002,9.627786e-001
8.485612e+002,8.550517e-001
8.524183e+002,1.280672e+000
8.562754e+002,6.000000e+000
8.601324e+002,6.000000e+000
8.639896e+002,2.156600e+000
8.678467e+002,1.406610e+000
8.717037e+002,2.379759e+000
8.755609e+002,1.892203e+000
8.794180e+002,1.284662e+000
8.832750e+002,2.503338e+000
8.871321e+002,2.023957e+000
8.909893e+002,1.945860e+000
8.948463e+002,1.725318e+000
8.987034e+002,1.681723e+000
9.025605e+002,2.064348e+000
9.064176e+002,2.213785e+000
9.102747e+002,3.855681e+000
9.141318e+002,6.000000e+000
9.179889e+002,6.000000e+000
9.218461e+002,2.654830e+000
9.257031e+002,2.545985e+000
9.295602e+002,6.000000e+000
9.334174e+002,6.000000e+000
9.372744e+002,6.000000e+000
9.411315e+002,1.915761e+000
9.449886e+002,1.848207e+000
9.488457e+002,1.877176e+000
9.527028e+002,1.856703e+000
9.565599e+002,2.171843e+000
9.604170e+002,2.525552e+000
9.642740e+002,2.266646e+000
9.681312e+002,2.242350e+000
9.719883e+002,6.000000e+000
9.758453e+002,6.000000e+000
9.797025e+002,2.095663e+000
9.835596e+002,1.843856e+000
9.874166e+002,2.215959e+000
9.912738e+002,2.865926e+000
9.951309e+002,6.000000e+000
9.989879e+002,6.000000e+000
1.002845e+003,2.326578e+000
1.006702e+003,2.467183e+000
1.010559e+003,3.268359e+000
1.014416e+003,3.066158e+000
1.018273e+003,4.152817e+000
1.022130e+003,2.700831e+000
1.025988e+003,2.328742e+000
1.029845e+003,2.598491e+000
1.033702e+003,3.126583e+000
1.037559e+003,2.794139e+000
1.041416e+003,2.432292e+000
1.045273e+003,1.962073e+000
1.049130e+003,1.893723e+000
1.052987e+003,1.987305e+000
1.056844e+003,2.077745e+000
1.060702e+003,1.905401e+000
1.064559e+003,1.883321e+000
1.068416e+003,1.795383e+000
1.072273e+003,1.878422e+000
1.076130e+003,2.049451e+000
1.079987e+003,1.968397e+000
1.083844e+003,1.875128e+000
1.087701e+003,1.956800e+000
1.091558e+003,1.942974e+000
1.095415e+003,1.800794e+000
1.099272e+003,1.816673e+000
1.103130e+003,1.852564e+000
1.106987e+003,1.775968e+000
1.110844e+003,1.866379e+000
1.114701e+003,2.122562e+000
1.118558e+003,2.004793e+000
1.122415e+003,1.862128e+000
1.126272e+003,1.846862e+000
1.130129e+003,1.827837e+000
1.133986e+003,1.846044e+000
1.137843e+003,1.878578e+000
1.141701e+003,1.922608e+000
1.145558e+003,1.809590e+000
1.149415e+003,1.804722e+000
1.153272e+003,1.841721e+000
1.157129e+003,1.858306e+000
1.160986e+003,1.794966e+000
1.164843e+003,1.773479e+000
1.168700e+003,1.800521e+000
1.172557e+003,1.783103e+000
1.176414e+003,1.748271e+000
1.180271e+003,1.653346e+000
1.184129e+003,1.620253e+000
1.187986e+003,1.676871e+000
1.191843e+003,1.741916e+000
1.195700e+003,1.877716e+000
1.199557e+003,1.784293e+000
1.203414e+003,1.726072e+000
1.207271e+003,1.716456e+000
1.211128e+003,1.659007e+000
1.214985e+003,1.683653e+000
1.218842e+003,1.677383e+000
1.222699e+003,1.561895e+000
1.226557e+003,1.501198e+000
1.230414e+003,1.451247e+000
1.234271e+003,1.387522e+000
1.238128e+003,1.312275e+000
1.241985e+003,1.271382e+000
1.245842e+003,1.227549e+000
1.249699e+003,1.146329e+000
1.253556e+003,1.076818e+000
1.257413e+003,1.018994e+000
1.261271e+003,9.776164e-001
1.265128e+003,9.445536e-001
1.268985e+003,9.145934e-001
1.272842e+003,8.858981e-001
1.276699e+003,8.573525e-001
1.280556e+003,8.347337e-001
1.284413e+003,8.217642e-001
1.288270e+003,8.070337e-001
1.292127e+003,7.825409e-001
1.295984e+003,7.597604e-001
1.299841e+003,7.433018e-001
1.303698e+003,7.236104e-001
1.307556e+003,7.045950e-001
1.311413e+003,6.955281e-001
1.315270e+003,6.890982e-001
1.319127e+003,6.774512e-001
1.322984e+003,6.613799e-001
1.326841e+003,6.563008e-001
1.330698e+003,6.547112e-001
1.334555e+003,6.509438e-001
1.338412e+003,6.485574e-001
1.342270e+003,6.432257e-001
1.346127e+003,6.356401e-001
1.349984e+003,6.353804e-001
1.353841e+003,6.323820e-001
1.357698e+003,6.373281e-001
1.361555e+003,6.504964e-001
1.365412e+003,6.585543e-001
1.369269e+003,6.677287e-001
1.373126e+003,6.854979e-001
1.376983e+003,7.056546e-001
1.380840e+003,7.208540e-001
1.384698e+003,7.445796e-001
1.388555e+003,7.701617e-001
1.392412e+003,7.859755e-001
1.396269e+003,8.136684e-001
1.400126e+003,8.417164e-001
1.403983e+003,8.695845e-001
1.407840e+003,8.928738e-001
1.411697e+003,9.228613e-001
1.415554e+003,9.511439e-001
1.419411e+003,9.649850e-001
1.423269e+003,9.868850e-001
1.427126e+003,9.960604e-001
1.430983e+003,1.011369e+000
1.434840e+003,1.013667e+000
1.438697e+003,1.001465e+000
1.442554e+003,1.000133e+000
1.446411e+003,9.896632e-001
1.450268e+003,9.617925e-001
1.454125e+003,9.505699e-001
1.457982e+003,9.343430e-001
1.461839e+003,9.137021e-001
1.465697e+003,9.033536e-001
1.469554e+003,8.987004e-001
1.473411e+003,8.866037e-001
1.477268e+003,8.947843e-001
1.481125e+003,9.127786e-001
1.484982e+003,9.287224e-001
1.488839e+003,9.333502e-001
1.492696e+003,9.421778e-001
1.496553e+003,9.769645e-001
1.500411e+003,9.998558e-001
1.504268e+003,1.009561e+000
1.508125e+003,1.012820e+000
1.511982e+003,1.011492e+000
1.515839e+003,1.006016e+000
1.519696e+003,9.872312e-001
1.523553e+003,9.658743e-001
1.527410e+003,9.488860e-001
1.531267e+003,9.434791e-001
1.535124e+003,9.263258e-001
1.538981e+003,8.958369e-001
1.542839e+003,8.740423e-001
1.546696e+003,8.586325e-001
1.550553e+003,8.269892e-001
1.554410e+003,7.978014e-001
1.558267e+003,7.789657e-001
1.562124e+003,7.647229e-001
1.565981e+003,7.505274e-001
1.569838e+003,7.422268e-001
1.573695e+003,7.371758e-001
1.577552e+003,7.268229e-001
1.581410e+003,7.216758e-001
1.585267e+003,7.225686e-001
1.589124e+003,7.231175e-001
1.592981e+003,7.277929e-001
1.596838e+003,7.429467e-001
1.600695e+003,7.712424e-001
1.604552e+003,7.967300e-001
1.608409e+003,8.186358e-001
1.612266e+003,8.588355e-001
1.616123e+003,9.041303e-001
1.619980e+003,9.426935e-001
1.623838e+003,9.762595e-001
1.627695e+003,1.000537e+000
1.631552e+003,1.033625e+000
1.635409e+003,1.052831e+000
1.639266e+003,1.049364e+000
1.643123e+003,1.036053e+000
1.646980e+003,1.025072e+000
1.650837e+003,1.001015e+000
1.654694e+003,9.699953e-001
1.658551e+003,9.360506e-001
1.662409e+003,8.927087e-001
1.666266e+003,8.574972e-001
1.670123e+003,8.305399e-001
1.673980e+003,7.960294e-001
1.677837e+003,7.618336e-001
1.681694e+003,7.279690e-001
1.685551e+003,6.976050e-001
1.689408e+003,6.705407e-001
1.693265e+003,6.491352e-001
1.697122e+003,6.346258e-001
1.700979e+003,6.188979e-001
1.704837e+003,6.026744e-001
1.708694e+003,5.876786e-001
1.712551e+003,5.764573e-001
1.716408e+003,5.702723e-001
1.720265e+003,5.659338e-001
1.724122e+003,5.592957e-001
1.727979e+003,5.523858e-001
1.731836e+003,5.497739e-001
1.735693e+003,5.464651e-001
1.739550e+003,5.424005e-001
1.743408e+003,5.381460e-001
1.747265e+003,5.355515e-001
1.751122e+003,5.344769e-001
1.754979e+003,5.324430e-001
1.758836e+003,5.316192e-001
1.762693e+003,5.287310e-001
1.766550e+003,5.271401e-001
1.770407e+003,5.298494e-001
1.774264e+003,5.322931e-001
1.778121e+003,5.315456e-001
1.781979e+003,5.288730e-001
1.785836e+003,5.243598e-001
1.789693e+003,5.212469e-001
1.793550e+003,5.165858e-001
1.797407e+003,5.117115e-001
1.801264e+003,5.103282e-001
1.805121e+003,5.105504e-001
1.808978e+003,5.098224e-001
1.812835e+003,5.084867e-001
1.816692e+003,5.047809e-001
1.820549e+003,4.997355e-001
1.824407e+003,4.987197e-001
1.828264e+003,5.013897e-001
1.832121e+003,5.014278e-001
1.835978e+003,4.966738e-001
1.839835e+003,4.928278e-001
1.843692e+003,4.913051e-001
1.847549e+003,4.907952e-001
1.851406e+003,4.883337e-001
1.855263e+003,4.852339e-001
1.859120e+003,4.829309e-001
1.862978e+003,4.828865e-001
1.866835e+003,4.817099e-001
1.870692e+003,4.790838e-001
1.874549e+003,4.753653e-001
1.878406e+003,4.720117e-001
1.882263e+003,4.715172e-001
1.886120e+003,4.731356e-001
1.889977e+003,4.750918e-001
1.893834e+003,4.746119e-001
1.897691e+003,4.710221e-001
1.901548e+003,4.678192e-001
1.905406e+003,4.652070e-001
1.909263e+003,4.603476e-001
1.913120e+003,4.581423e-001
1.916977e+003,4.595383e-001
1.920834e+003,4.583657e-001
1.924691e+003,4.559734e-001
1.928548e+003,4.549315e-001
1.932405e+003,4.543361e-001
1.936262e+003,4.529882e-001
1.940119e+003,4.498121e-001
1.943977e+003,4.475400e-001
1.947834e+003,4.470731e-001
1.951691e+003,4.450715e-001
1.955548e+003,4.424039e-001
1.959405e+003,4.390848e-001
1.963262e+003,4.369139e-001
1.967119e+003,4.344532e-001
1.970976e+003,4.355663e-001
1.974833e+003,4.345373e-001
1.978690e+003,4.325100e-001
1.982547e+003,4.324354e-001
1.986405e+003,4.284332e-001
1.990262e+003,4.247707e-001
1.994119e+003,4.240263e-001
1.997976e+003,4.234220e-001
2.001833e+003,4.231968e-001
2.005690e+003,4.235126e-001
2.009547e+003,4.240044e-001
2.013404e+003,4.242083e-001
2.017261e+003,4.231457e-001
2.021118e+003,4.197522e-001
2.024976e+003,4.149582e-001
2.028833e+003,4.133031e-001
2.032690e+003,4.117418e-001
2.036547e+003,4.105745e-001
2.040404e+003,4.078780e-001
2.044261e+003,4.051617e-001
2.048118e+003,4.060399e-001
2.051975e+003,4.038059e-001
2.055832e+003,4.018897e-001
2.059689e+003,4.039986e-001
2.063546e+003,4.047655e-001
2.067404e+003,4.017343e-001
2.071261e+003,4.000828e-001
2.075118e+003,3.998275e-001
2.078975e+003,4.014206e-001
2.082832e+003,4.016864e-001
2.086689e+003,4.001974e-001
2.090546e+003,3.972207e-001
2.094403e+003,3.938338e-001
2.098260e+003,3.964676e-001
2.102117e+003,3.989195e-001
2.105975e+003,3.962420e-001
2.109832e+003,3.946405e-001
2.113689e+003,3.961748e-001
2.117546e+003,3.976545e-001
2.121403e+003,3.950984e-001
2.125260e+003,3.930976e-001
2.129117e+003,3.946269e-001
2.132974e+003,3.955832e-001
2.136831e+003,3.949669e-001
2.140688e+003,3.945372e-001
2.144545e+003,3.947394e-001
2.148403e+003,3.924750e-001
2.152260e+003,3.931690e-001
2.156117e+003,3.952324e-001
2.159974e+003,3.951062e-001
2.163831e+003,3.962170e-001
2.167688e+003,3.984845e-001
2.171545e+003,4.008257e-001
2.175402e+003,4.042983e-001
2.179259e+003,4.042061e-001
2.183116e+003,4.006642e-001
2.186974e+003,4.000154e-001
2.190831e+003,4.018256e-001
2.194688e+003,4.019032e-001
2.198545e+003,4.023308e-001
2.202402e+003,4.057692e-001
2.206259e+003,4.075040e-001
2.210116e+003,4.073945e-001
2.213973e+003,4.085161e-001
2.217830e+003,4.099772e-001
2.221688e+003,4.111870e-001
2.225544e+003,4.132296e-001
2.229402e+003,4.131909e-001
2.233259e+003,4.153762e-001
2.237116e+003,4.172329e-001
2.240973e+003,4.185302e-001
2.244830e+003,4.199831e-001
2.248687e+003,4.189779e-001
2.252544e+003,4.163153e-001
2.256401e+003,4.164006e-001
2.260258e+003,4.188228e-001
2.264115e+003,4.185449e-001
2.267973e+003,4.203252e-001
2.271830e+003,4.250734e-001
2.275687e+003,4.254234e-001
2.279544e+003,4.271285e-001
2.283401e+003,4.296181e-001
2.287258e+003,4.292413e-001
2.291115e+003,4.301251e-001
2.294972e+003,4.318357e-001
2.298829e+003,4.346922e-001
2.302687e+003,4.339699e-001
2.306543e+003,4.311732e-001
2.310401e+003,4.323600e-001
2.314258e+003,4.349101e-001
2.318115e+003,4.364823e-001
2.321972e+003,4.383980e-001
2.325829e+003,4.381403e-001
2.329686e+003,4.360905e-001
2.333543e+003,4.342629e-001
2.337400e+003,4.388795e-001
2.341257e+003,4.404579e-001
2.345115e+003,4.403505e-001
2.348972e+003,4.431646e-001
2.352829e+003,4.407822e-001
2.356686e+003,4.401425e-001
2.360543e+003,4.439721e-001
2.364400e+003,4.454189e-001
2.368257e+003,4.432046e-001
2.372114e+003,4.412676e-001
2.375971e+003,4.403873e-001
2.379828e+003,4.382271e-001
2.383686e+003,4.402094e-001
2.387542e+003,4.423794e-001
2.391400e+003,4.430305e-001
2.395257e+003,4.443961e-001
2.399114e+003,4.444862e-001
2.402971e+003,4.416471e-001
2.406828e+003,4.364844e-001
2.410685e+003,4.350545e-001
2.414542e+003,4.375332e-001
2.418399e+003,4.401060e-001
2.422256e+003,4.398085e-001
2.426114e+003,4.378018e-001
2.429971e+003,4.348153e-001
2.433828e+003,4.340698e-001
2.437685e+003,4.378256e-001
2.441542e+003,4.369090e-001
2.445399e+003,4.333920e-001
2.449256e+003,4.322785e-001
2.453113e+003,4.319026e-001
2.456970e+003,4.338745e-001
2.460827e+003,4.332764e-001
2.464684e+003,4.292135e-001
2.468542e+003,4.287194e-001
2.472399e+003,4.265113e-001
2.476256e+003,4.267186e-001
2.480113e+003,4.290345e-001
2.483970e+003,4.258291e-001
2.487827e+003,4.245961e-001
2.491684e+003,4.282851e-001
2.495541e+003,4.288384e-001
2.499398e+003,4.293189e-001
2.503255e+003,4.307255e-001
2.507113e+003,4.285885e-001
2.510969e+003,4.293911e-001
2.514827e+003,4.304735e-001
2.518684e+003,4.304247e-001
2.522541e+003,4.322000e-001
2.526398e+003,4.340060e-001
2.530255e+003,4.344877e-001
2.534112e+003,4.356959e-001
2.537969e+003,4.362854e-001
2.541826e+003,4.374828e-001
2.545683e+003,4.404910e-001
2.549541e+003,4.435965e-001
2.553398e+003,4.435942e-001
2.557255e+003,4.449712e-001
2.561112e+003,4.455145e-001
2.564969e+003,4.479972e-001
2.568826e+003,4.500735e-001
2.572683e+003,4.530282e-001
2.576540e+003,4.573546e-001
2.580397e+003,4.592153e-001
2.584254e+003,4.604466e-001
2.588112e+003,4.626124e-001
2.591969e+003,4.635838e-001
2.595826e+003,4.639375e-001
2.599683e+003,4.701432e-001
2.603540e+003,4.786114e-001
2.607397e+003,4.857375e-001
2.611254e+003,4.875741e-001
2.615111e+003,4.871322e-001
2.618968e+003,4.873862e-001
2.622825e+003,4.892683e-001
2.626682e+003,4.952454e-001
2.630540e+003,4.999202e-001
2.634397e+003,5.012401e-001
2.638254e+003,5.044284e-001
2.642111e+003,5.097643e-001
2.645968e+003,5.162957e-001
2.649825e+003,5.190558e-001
2.653682e+003,5.233802e-001
2.657539e+003,5.296022e-001
2.661396e+003,5.319157e-001
2.665253e+003,5.336481e-001
2.669111e+003,5.396629e-001
2.672968e+003,5.446146e-001
2.676825e+003,5.507540e-001
2.680682e+003,5.562916e-001
2.684539e+003,5.595512e-001
2.688396e+003,5.635232e-001
2.692253e+003,5.663854e-001
2.696110e+003,5.716221e-001
2.699967e+003,5.795566e-001
2.703824e+003,5.908293e-001
2.707681e+003,5.983679e-001
2.711539e+003,5.945709e-001
2.715396e+003,5.947933e-001
2.719253e+003,6.072277e-001
2.723110e+003,6.129203e-001
2.726967e+003,6.133761e-001
2.730824e+003,6.208772e-001
2.734681e+003,6.272426e-001
2.738538e+003,6.332145e-001
2.742395e+003,6.386435e-001
2.746252e+003,6.411159e-001
2.750110e+003,6.447221e-001
2.753967e+003,6.539395e-001
2.757824e+003,6.645418e-001
2.761681e+003,6.693136e-001
2.765538e+003,6.728879e-001
2.769395e+003,6.812212e-001
2.773252e+003,6.926703e-001
2.777109e+003,6.936510e-001
2.780966e+003,6.947335e-001
2.784823e+003,7.013851e-001
2.788680e+003,7.038079e-001
2.792538e+003,7.140530e-001
2.796395e+003,7.305545e-001
2.800252e+003,7.372167e-001
2.804109e+003,7.322367e-001
2.807966e+003,7.355806e-001
2.811823e+003,7.558107e-001
2.815680e+003,7.635521e-001
2.819537e+003,7.618762e-001
2.823394e+003,7.710059e-001
2.827251e+003,7.800311e-001
2.831109e+003,7.867536e-001
2.834966e+003,7.954314e-001
2.838823e+003,8.053880e-001
2.842680e+003,8.096101e-001
2.846537e+003,8.179224e-001
2.850394e+003,8.270873e-001
2.854251e+003,8.270151e-001
2.858108e+003,8.267075e-001
2.861965e+003,8.361647e-001
2.865823e+003,8.488979e-001
2.869679e+003,8.586543e-001
2.873537e+003,8.667271e-001
2.877394e+003,8.765035e-001
2.881251e+003,8.806740e-001
2.885108e+003,8.899513e-001
2.888965e+003,9.026518e-001
2.892822e+003,9.057513e-001
2.896679e+003,9.163088e-001
2.900536e+003,9.213291e-001
2.904393e+003,9.235377e-001
2.908250e+003,9.326410e-001
2.912108e+003,9.551892e-001
2.915965e+003,9.706669e-001
2.919822e+003,9.647879e-001
2.923679e+003,9.662451e-001
2.927536e+003,9.839391e-001
2.931393e+003,9.891362e-001
2.935250e+003,9.942532e-001
2.939107e+003,1.000116e+000
2.942964e+003,1.005137e+000
2.946822e+003,1.016798e+000
2.950678e+003,1.028934e+000
2.954536e+003,1.032637e+000
2.958393e+003,1.046762e+000
2.962250e+003,1.056544e+000
2.966107e+003,1.059578e+000
2.969964e+003,1.073032e+000
2.973821e+003,1.083752e+000
2.977678e+003,1.093622e+000
2.981535e+003,1.103357e+000
2.985392e+003,1.113382e+000
2.989250e+003,1.118106e+000
2.993107e+003,1.107322e+000
2.996964e+003,1.112966e+000
3.000821e+003,1.128535e+000
3.004678e+003,1.145400e+000
3.008535e+003,1.161376e+000
3.012392e+003,1.162221e+000
3.016249e+003,1.160788e+000
3.020106e+003,1.170120e+000
3.023963e+003,1.184307e+000
3.027821e+003,1.194665e+000
3.031677e+003,1.209508e+000
3.035535e+003,1.226106e+000
3.039392e+003,1.220257e+000
3.043249e+003,1.216970e+000
3.047106e+003,1.225595e+000
3.050963e+003,1.254933e+000
3.054820e+003,1.270656e+000
3.058677e+003,1.270450e+000
3.062534e+003,1.292278e+000
3.066391e+003,1.315017e+000
3.070249e+003,1.323981e+000
3.074106e+003,1.335882e+000
3.077963e+003,1.328314e+000
3.081820e+003,1.327818e+000
3.085677e+003,1.353592e+000
3.089534e+003,1.368712e+000
3.093391e+003,1.367332e+000
3.097248e+003,1.367258e+000
3.101105e+003,1.368773e+000
3.104962e+003,1.371610e+000
3.108820e+003,1.372070e+000
3.112677e+003,1.396934e+000
3.116534e+003,1.433676e+000
3.120391e+003,1.454522e+000
3.124248e+003,1.469071e+000
3.128105e+003,1.462703e+000
3.131962e+003,1.443774e+000
3.135819e+003,1.450950e+000
3.139676e+003,1.478392e+000
3.143533e+003,1.488743e+000
3.147390e+003,1.525893e+000
3.151248e+003,1.553577e+000
3.155105e+003,1.528731e+000
3.158962e+003,1.530728e+000
3.162819e+003,1.530638e+000
3.166676e+003,1.523640e+000
3.170533e+003,1.504993e+000
3.174390e+003,1.498924e+000
3.178247e+003,1.551182e+000
3.182104e+003,1.604623e+000
3.185961e+003,1.652900e+000
3.189819e+003,1.664408e+000
3.193676e+003,1.634836e+000
3.197533e+003,1.629111e+000
3.201390e+003,1.622913e+000
3.205247e+003,1.610347e+000
3.209104e+003,1.655040e+000
3.212961e+003,1.675783e+000
3.216818e+003,1.716965e+000
3.220675e+003,1.721331e+000
3.224532e+003,1.657613e+000
3.228389e+003,1.602342e+000
3.232247e+003,1.605361e+000
3.236104e+003,1.665267e+000
3.239961e+003,1.708634e+000
3.243818e+003,1.720357e+000
3.247675e+003,1.728503e+000
3.251532e+003,1.827977e+000
3.255389e+003,1.872380e+000
3.259246e+003,1.810477e+000
3.263103e+003,1.769035e+000
3.266960e+003,1.704750e+000
3.270818e+003,1.694210e+000
3.274675e+003,1.745883e+000
3.278532e+003,1.756061e+000
3.282389e+003,1.762339e+000
3.286246e+003,1.800668e+000
3.290103e+003,1.840387e+000
3.293960e+003,1.755388e+000
3.297817e+003,1.702772e+000
3.301674e+003,1.745828e+000
3.305531e+003,1.825725e+000
3.309388e+003,1.852903e+000
3.313246e+003,1.881528e+000
3.317103e+003,1.881770e+000
3.320960e+003,1.819253e+000
3.324817e+003,1.783626e+000
3.328674e+003,1.800979e+000
3.332531e+003,1.793905e+000
3.336388e+003,1.896377e+000
3.340245e+003,2.004434e+000
3.344102e+003,1.974539e+000
3.347959e+003,1.825892e+000
3.351817e+003,1.811120e+000
3.355674e+003,1.787308e+000
3.359531e+003,1.790126e+000
3.363388e+003,1.825001e+000
3.367245e+003,1.855282e+000
3.371102e+003,1.977247e+000
3.374959e+003,2.024341e+000
3.378816e+003,1.995916e+000
3.382673e+003,1.978774e+000
3.386530e+003,1.933367e+000
3.390387e+003,1.850650e+000
3.394245e+003,1.877306e+000
3.398102e+003,1.946633e+000
3.401959e+003,1.984970e+000
3.405816e+003,1.977969e+000
3.409673e+003,1.999533e+000
3.413530e+003,1.990344e+000
3.417387e+003,2.037417e+000
3.421244e+003,2.017109e+000
3.425101e+003,1.887005e+000
3.428958e+003,1.899583e+000
3.432815e+003,1.922806e+000
3.436673e+003,1.966468e+000
3.440530e+003,1.989710e+000
3.444387e+003,1.933450e+000
3.448244e+003,1.903812e+000
3.452101e+003,1.929148e+000
3.455958e+003,1.926851e+000
3.459815e+003,1.935084e+000
3.463672e+003,1.923638e+000
3.467529e+003,1.889652e+000
3.471386e+003,1.927652e+000
3.475244e+003,1.863384e+000
3.479101e+003,1.824172e+000
3.482958e+003,1.879984e+000
3.486815e+003,1.967029e+000
3.490672e+003,2.014307e+000
3.494529e+003,1.915797e+000
3.498386e+003,1.839999e+000
3.502243e+003,1.928838e+000
3.506100e+003,2.042373e+000
3.509958e+003,2.016308e+000
3.513814e+003,1.997076e+000
3.517672e+003,1.990458e+000
3.521529e+003,1.989118e+000
3.525386e+003,2.101413e+000
3.529243e+003,2.115275e+000
3.533100e+003,1.930842e+000
3.536957e+003,1.861778e+000
3.540814e+003,1.909857e+000
3.544671e+003,1.806976e+000
3.548528e+003,1.801274e+000
3.552385e+003,1.919971e+000
3.556243e+003,1.942119e+000
3.560100e+003,1.948155e+000
3.563957e+003,1.966591e+000
3.567814e+003,2.050183e+000
3.571671e+003,1.914445e+000
3.575528e+003,1.870765e+000
3.579385e+003,1.896790e+000
3.583242e+003,1.818828e+000
3.587099e+003,1.834338e+000
3.590957e+003,2.071177e+000
3.594813e+003,2.204695e+000
3.598671e+003,1.964833e+000
3.602528e+003,1.838811e+000
3.606385e+003,1.734953e+000
3.610242e+003,1.656797e+000
3.614099e+003,1.630761e+000
3.617956e+003,1.578159e+000
3.621813e+003,1.507750e+000
3.625670e+003,1.413836e+000
3.629527e+003,1.300993e+000
3.633385e+003,1.221212e+000
3.637242e+003,1.179904e+000
3.641099e+003,1.101812e+000
3.644956e+003,1.009705e+000
3.648813e+003,9.161525e-001
3.652670e+003,8.356239e-001
3.656527e+003,7.663529e-001
3.660384e+003,7.009072e-001
3.664241e+003,6.377892e-001
3.668098e+003,5.779462e-001
3.671956e+003,5.263391e-001
3.675813e+003,4.823846e-001
3.679670e+003,4.451781e-001
3.683527e+003,4.147549e-001
3.687384e+003,3.852613e-001
3.691241e+003,3.595947e-001
3.695098e+003,3.381265e-001
3.698955e+003,3.203693e-001
3.702812e+003,3.063008e-001
3.706669e+003,2.897860e-001
3.710526e+003,2.753012e-001
3.714384e+003,2.653875e-001
3.718241e+003,2.558144e-001
3.722098e+003,2.486922e-001
3.725955e+003,2.441266e-001
3.729812e+003,2.386167e-001
3.733669e+003,2.327042e-001
3.737526e+003,2.315111e-001
3.741383e+003,2.301042e-001
3.745240e+003,2.254394e-001
3.749097e+003,2.225267e-001
3.752955e+003,2.178161e-001
3.756812e+003,2.141288e-001
3.760669e+003,2.124821e-001
3.764526e+003,2.127913e-001
3.768383e+003,2.131768e-001
3.772240e+003,2.108281e-001
3.776097e+003,2.092748e-001
3.779954e+003,2.081675e-001
3.783811e+003,2.041442e-001
3.787668e+003,2.020628e-001
3.791525e+003,2.017252e-001
3.795383e+003,2.015463e-001
3.799240e+003,1.992655e-001
3.803097e+003,1.952487e-001
3.806954e+003,1.977222e-001
3.810811e+003,1.995060e-001
3.814668e+003,1.976032e-001
3.818525e+003,1.967697e-001
3.822382e+003,1.968757e-001
3.826239e+003,1.938011e-001
3.830096e+003,1.927543e-001
3.833954e+003,1.931257e-001
3.837811e+003,1.951112e-001
3.841668e+003,1.953285e-001
3.845525e+003,1.922247e-001
3.849382e+003,1.905065e-001
3.853239e+003,1.910688e-001
3.857096e+003,1.910306e-001
3.860953e+003,1.905106e-001
3.864810e+003,1.914952e-001
3.868667e+003,1.897496e-001
3.872524e+003,1.887767e-001
3.876382e+003,1.920902e-001
3.880239e+003,1.911713e-001
3.884096e+003,1.882301e-001
3.887953e+003,1.906027e-001
3.891810e+003,1.910542e-001
3.895667e+003,1.891735e-001
3.899524e+003,1.892657e-001
3.903381e+003,1.869738e-001
3.907238e+003,1.872862e-001
3.911095e+003,1.899500e-001
3.914953e+003,1.911959e-001
3.918810e+003,1.898640e-001
3.922667e+003,1.890931e-001
3.926524e+003,1.886686e-001
3.930381e+003,1.876970e-001
3.934238e+003,1.882979e-001
3.938095e+003,1.874889e-001
3.941952e+003,1.864531e-001
3.945809e+003,1.843899e-001
3.949667e+003,1.836469e-001
3.953523e+003,1.822315e-001
3.957381e+003,1.831325e-001
3.961238e+003,1.853265e-001
3.965095e+003,1.834672e-001
3.968952e+003,1.817438e-001
3.972809e+003,1.815499e-001
3.976666e+003,1.807513e-001
3.980523e+003,1.818215e-001
3.984380e+003,1.827394e-001
3.988237e+003,1.815837e-001
3.992094e+003,1.798749e-001
3.995952e+003,1.824719e-001
3.999809e+003,1.819649e-001
4.003666e+003,1.811372e-001
4.007523e+003,1.808950e-001
4.011380e+003,1.786176e-001
4.015237e+003,1.759697e-001
4.019094e+003,1.758646e-001
4.022951e+003,1.784885e-001
4.026808e+003,1.788756e-001
4.030666e+003,1.781580e-001
4.034522e+003,1.788374e-001
4.038380e+003,1.793548e-001
4.042237e+003,1.759071e-001
4.046094e+003,1.744487e-001
4.049951e+003,1.770217e-001
4.053808e+003,1.763277e-001
4.057665e+003,1.753421e-001
4.061522e+003,1.758797e-001
4.065379e+003,1.757395e-001
4.069236e+003,1.745404e-001
4.073094e+003,1.760540e-001
4.076951e+003,1.751722e-001
4.080808e+003,1.735829e-001
4.084665e+003,1.728291e-001
4.088522e+003,1.727209e-001
4.092379e+003,1.733493e-001
4.096236e+003,1.720830e-001
4.100093e+003,1.733747e-001
4.103950e+003,1.750866e-001
4.107808e+003,1.694881e-001
4.111665e+003,1.639432e-001
4.115521e+003,1.654970e-001
4.119379e+003,1.682057e-001
4.123236e+003,1.686843e-001
4.127093e+003,1.691079e-001
4.130950e+003,1.683359e-001
4.134807e+003,1.683992e-001
4.138664e+003,1.687424e-001
4.142521e+003,1.673566e-001
4.146378e+003,1.645502e-001
4.150235e+003,1.653192e-001
4.154093e+003,1.662009e-001
4.157950e+003,1.633769e-001
4.161807e+003,1.630656e-001
4.165664e+003,1.646404e-001
4.169521e+003,1.639017e-001
4.173378e+003,1.644996e-001
4.177235e+003,1.677593e-001
4.181092e+003,1.671428e-001
4.184949e+003,1.628384e-001
4.188807e+003,1.605342e-001
4.192664e+003,1.619069e-001
4.196521e+003,1.635273e-001
4.200378e+003,1.605162e-001
4.204235e+003,1.579413e-001
4.208092e+003,1.575750e-001
4.211949e+003,1.573594e-001
4.215806e+003,1.612923e-001
4.219663e+003,1.640528e-001
4.223521e+003,1.625888e-001
4.227377e+003,1.566940e-001
4.231234e+003,1.561489e-001
4.235092e+003,1.585816e-001
4.238949e+003,1.626572e-001
4.242806e+003,1.633489e-001
4.246663e+003,1.610172e-001
4.250520e+003,1.596858e-001
4.254377e+003,1.601383e-001
4.258234e+003,1.598155e-001
4.262091e+003,1.598549e-001
4.265948e+003,1.596572e-001
4.269806e+003,1.607746e-001
4.273663e+003,1.583764e-001
4.277520e+003,1.571255e-001
4.281377e+003,1.574735e-001
4.285234e+003,1.548285e-001
4.289091e+003,1.557113e-001
4.292948e+003,1.571905e-001
4.296805e+003,1.563745e-001
4.300662e+003,1.572294e-001
4.304520e+003,1.568419e-001
4.308376e+003,1.576037e-001
4.312233e+003,1.590804e-001
4.316091e+003,1.595759e-001
4.319948e+003,1.602151e-001
4.323805e+003,1.599746e-001
4.327662e+003,1.566751e-001
4.331519e+003,1.549991e-001
4.335376e+003,1.598056e-001
4.339233e+003,1.582311e-001
4.343090e+003,1.587937e-001
4.346947e+003,1.575268e-001
4.350805e+003,1.542668e-001
4.354662e+003,1.574929e-001
4.358519e+003,1.617423e-001
4.362376e+003,1.620754e-001
4.366233e+003,1.646249e-001
4.370090e+003,1.647885e-001
4.373947e+003,1.635320e-001
4.377804e+003,1.622773e-001
4.381661e+003,1.620527e-001
4.385519e+003,1.615872e-001
4.389375e+003,1.622711e-001
4.393232e+003,1.637037e-001
4.397090e+003,1.640352e-001
4.400947e+003,1.657052e-001
4.404804e+003,1.655624e-001
4.408661e+003,1.640504e-001
4.412518e+003,1.635831e-001
4.416375e+003,1.632949e-001
4.420232e+003,1.647958e-001
4.424089e+003,1.649434e-001
4.427946e+003,1.653429e-001
4.431804e+003,1.649488e-001
4.435661e+003,1.624275e-001
4.439518e+003,1.624486e-001
4.443375e+003,1.637664e-001
4.447232e+003,1.615156e-001
4.451089e+003,1.611041e-001
4.454946e+003,1.627186e-001
4.458803e+003,1.639106e-001
4.462660e+003,1.638911e-001
4.466518e+003,1.627497e-001
4.470375e+003,1.635079e-001
4.474231e+003,1.655194e-001
4.478089e+003,1.637992e-001
4.481946e+003,1.640022e-001
4.485803e+003,1.630718e-001
4.489660e+003,1.628685e-001
4.493517e+003,1.641722e-001
4.497375e+003,1.646242e-001
4.501231e+003,1.628929e-001
4.505088e+003,1.617432e-001
4.508946e+003,1.616006e-001
4.512803e+003,1.609626e-001
4.516660e+003,1.601089e-001
4.520517e+003,1.589065e-001
4.524374e+003,1.610022e-001
4.528231e+003,1.651009e-001
4.532088e+003,1.656561e-001
4.535945e+003,1.626616e-001
4.539802e+003,1.630206e-001
4.543660e+003,1.642977e-001
4.547517e+003,1.613003e-001
4.551374e+003,1.583968e-001
4.555231e+003,1.542560e-001
4.559088e+003,1.536651e-001
4.562945e+003,1.541843e-001
4.566802e+003,1.513345e-001
4.570659e+003,1.531411e-001
4.574516e+003,1.537983e-001
4.578374e+003,1.534476e-001
4.582230e+003,1.514909e-001
4.586087e+003,1.496918e-001
4.589945e+003,1.485565e-001
4.593802e+003,1.520338e-001
4.597659e+003,1.553051e-001
4.601516e+003,1.546078e-001
4.605373e+003,1.580541e-001
4.609230e+003,1.600271e-001
4.613087e+003,1.543326e-001
4.616944e+003,1.507475e-001
4.620801e+003,1.526333e-001
4.624659e+003,1.547811e-001
4.628516e+003,1.559923e-001
4.632373e+003,1.537856e-001
4.636230e+003,1.526669e-001
4.640087e+003,1.520020e-001
4.643944e+003,1.514872e-001
4.647801e+003,1.476832e-001
4.651658e+003,1.436607e-001
4.655515e+003,1.466272e-001
4.659373e+003,1.502760e-001
4.663229e+003,1.502700e-001
4.667086e+003,1.497021e-001
4.670944e+003,1.499615e-001
4.674801e+003,1.499486e-001
4.678658e+003,1.485920e-001
4.682515e+003,1.514376e-001
4.686372e+003,1.585703e-001
4.690229e+003,1.549460e-001
4.694086e+003,1.519579e-001
4.697943e+003,1.558630e-001
4.701800e+003,1.568950e-001
4.705658e+003,1.548624e-001
4.709515e+003,1.521423e-001
4.713372e+003,1.494116e-001
4.717229e+003,1.479489e-001
4.721086e+003,1.479858e-001
4.724943e+003,1.520543e-001
4.728800e+003,1.541734e-001
4.732657e+003,1.531100e-001
4.736514e+003,1.501145e-001
4.740372e+003,1.477772e-001
4.744229e+003,1.506134e-001
4.748085e+003,1.503660e-001
4.751943e+003,1.488345e-001
4.755800e+003,1.543456e-001
4.759657e+003,1.592237e-001
4.763514e+003,1.577973e-001
4.767371e+003,1.525726e-001
4.771228e+003,1.511204e-001
4.775085e+003,1.536839e-001
4.778942e+003,1.540702e-001
4.782799e+003,1.563908e-001
4.786657e+003,1.585336e-001
4.790514e+003,1.550290e-001
4.794371e+003,1.528891e-001
4.798228e+003,1.540600e-001
4.802085e+003,1.516795e-001
4.805942e+003,1.510412e-001
4.809799e+003,1.554956e-001
4.813656e+003,1.538137e-001
4.817513e+003,1.511979e-001
4.821371e+003,1.569686e-001
4.825228e+003,1.594906e-001
4.829084e+003,1.579821e-001
4.832942e+003,1.553319e-001
4.836799e+003,1.552783e-001
4.840656e+003,1.579191e-001
4.844513e+003,1.568910e-001
4.848370e+003,1.570935e-001
4.852227e+003,1.580852e-001
4.856084e+003,1.573514e-001
4.859941e+003,1.553776e-001
4.863798e+003,1.582634e-001
4.867656e+003,1.603010e-001
4.871513e+003,1.565662e-001
4.875370e+003,1.574926e-001
4.879227e+003,1.612243e-001
4.883084e+003,1.580663e-001
4.886941e+003,1.578420e-001
4.890798e+003,1.604370e-001
4.894655e+003,1.585843e-001
4.898512e+003,1.552116e-001
4.902370e+003,1.568382e-001
4.906227e+003,1.585035e-001
4.910083e+003,1.545565e-001
4.913941e+003,1.548929e-001
4.917798e+003,1.601129e-001
4.921655e+003,1.603213e-001
4.925512e+003,1.617661e-001
4.929369e+003,1.628998e-001
4.933226e+003,1.620281e-001
4.937083e+003,1.620666e-001
4.940940e+003,1.617997e-001
4.944797e+003,1.590273e-001
4.948655e+003,1.563534e-001
4.952512e+003,1.575079e-001
4.956369e+003,1.570624e-001
4.960226e+003,1.566217e-001
4.964083e+003,1.585901e-001
4.967940e+003,1.590947e-001
4.971797e+003,1.556467e-001
4.975654e+003,1.531699e-001
4.979511e+003,1.550479e-001
4.983369e+003,1.532186e-001
4.987226e+003,1.548394e-001
4.991083e+003,1.568840e-001
4.994940e+003,1.574490e-001
4.998797e+003,1.529273e-001
5.002654e+003,1.512728e-001
5.006511e+003,1.562760e-001
5.010368e+003,1.611959e-001
5.014225e+003,1.589093e-001
5.018083e+003,1.579486e-001
5.021939e+003,1.635796e-001
5.025796e+003,1.651900e-001
5.029654e+003,1.621501e-001
5.033511e+003,1.613014e-001
5.037368e+003,1.610675e-001
5.041225e+003,1.574585e-001
5.045082e+003,1.608341e-001
5.048939e+003,1.697630e-001
5.052796e+003,1.747488e-001
5.056653e+003,1.706933e-001
5.060510e+003,1.657845e-001
5.064368e+003,1.655577e-001
5.068225e+003,1.604850e-001
5.072082e+003,1.585876e-001
5.075939e+003,1.633130e-001
5.079796e+003,1.643218e-001
5.083653e+003,1.643972e-001
5.087510e+003,1.664528e-001
5.091367e+003,1.664599e-001
5.095224e+003,1.652506e-001
5.099082e+003,1.610948e-001
5.102938e+003,1.610391e-001
5.106795e+003,1.608662e-001
5.110653e+003,1.667646e-001
5.114510e+003,1.705022e-001
5.118367e+003,1.691386e-001
5.122224e+003,1.714419e-001
5.126081e+003,1.672996e-001
5.129938e+003,1.635336e-001
5.133795e+003,1.648393e-001
5.137652e+003,1.678914e-001
5.141509e+003,1.675497e-001
5.145367e+003,1.682832e-001
5.149224e+003,1.659836e-001
5.153081e+003,1.678535e-001
5.156938e+003,1.736278e-001
5.160795e+003,1.744800e-001
5.164652e+003,1.725197e-001
5.168509e+003,1.742465e-001
5.172366e+003,1.716043e-001
5.176223e+003,1.656761e-001
5.180081e+003,1.644035e-001
5.183938e+003,1.702637e-001
5.187794e+003,1.757738e-001
5.191652e+003,1.744674e-001
5.195509e+003,1.758108e-001
5.199366e+003,1.716992e-001
5.203223e+003,1.660212e-001
5.207080e+003,1.689627e-001
5.210937e+003,1.667455e-001
5.214794e+003,1.690189e-001
5.218651e+003,1.713411e-001
5.222508e+003,1.677900e-001
5.226366e+003,1.688453e-001
5.230223e+003,1.639478e-001
5.234080e+003,1.565280e-001
5.237937e+003,1.567353e-001
5.241794e+003,1.639096e-001
5.245651e+003,1.642421e-001
5.249508e+003,1.588977e-001
5.253365e+003,1.603144e-001
5.257222e+003,1.613875e-001
5.261080e+003,1.602459e-001
5.264937e+003,1.635783e-001
5.268793e+003,1.638814e-001
5.272651e+003,1.605851e-001
5.276508e+003,1.614464e-001
5.280365e+003,1.604901e-001
5.284222e+003,1.558220e-001
5.288079e+003,1.499199e-001
5.291936e+003,1.472131e-001
5.295793e+003,1.573625e-001
5.299650e+003,1.618341e-001
5.303507e+003,1.582997e-001
5.307365e+003,1.543326e-001
5.311222e+003,1.526631e-001
5.315079e+003,1.526010e-001
5.318936e+003,1.542845e-001
5.322793e+003,1.560070e-001
5.326650e+003,1.555116e-001
5.330507e+003,1.560546e-001
5.334364e+003,1.482855e-001
5.338221e+003,1.494091e-001
5.342079e+003,1.613884e-001
5.345936e+003,1.597718e-001
5.349792e+003,1.532207e-001
5.353650e+003,1.537933e-001
5.357507e+003,1.563464e-001
5.361364e+003,1.551710e-001
5.365221e+003,1.622844e-001
5.369078e+003,1.673226e-001
5.372935e+003,1.618472e-001
5.376792e+003,1.599752e-001
5.380649e+003,1.592618e-001
5.384506e+003,1.569313e-001
5.388364e+003,1.539729e-001
5.392221e+003,1.560334e-001
5.396078e+003,1.572380e-001
5.399935e+003,1.547358e-001
5.403792e+003,1.521151e-001
5.407649e+003,1.537962e-001
5.411506e+003,1.558370e-001
5.415363e+003,1.583626e-001
5.419220e+003,1.550105e-001
5.423078e+003,1.540800e-001
5.426935e+003,1.556737e-001
5.430792e+003,1.561599e-001
5.434649e+003,1.529933e-001
5.438506e+003,1.527164e-001
5.442363e+003,1.545592e-001
5.446220e+003,1.547766e-001
5.450077e+003,1.556161e-001
5.453934e+003,1.576441e-001
5.457792e+003,1.594820e-001
5.461648e+003,1.551683e-001
5.465505e+003,1.549547e-001
5.469363e+003,1.577287e-001
5.473220e+003,1.627513e-001
5.477077e+003,1.639601e-001
5.480934e+003,1.590888e-001
5.484791e+003,1.572139e-001
5.488648e+003,1.531464e-001
5.492505e+003,1.509231e-001
5.496362e+003,1.504348e-001
5.500219e+003,1.524076e-001
5.504077e+003,1.540353e-001
5.507934e+003,1.535252e-001
5.511791e+003,1.571094e-001
5.515648e+003,1.606803e-001
5.519505e+003,1.549838e-001
5.523362e+003,1.521581e-001
5.527219e+003,1.530426e-001
5.531076e+003,1.535016e-001
5.534933e+003,1.539759e-001
5.538791e+003,1.546364e-001
5.542647e+003,1.569583e-001
5.546504e+003,1.592390e-001
5.550362e+003,1.597764e-001
5.554219e+003,1.576342e-001
5.558076e+003,1.540305e-001
5.561933e+003,1.545960e-001
5.565790e+003,1.584874e-001
5.569647e+003,1.592009e-001
5.573504e+003,1.517320e-001
5.577361e+003,1.501203e-001
5.581218e+003,1.497451e-001
5.585076e+003,1.509967e-001
5.588933e+003,1.516375e-001
5.592790e+003,1.500351e-001
5.596647e+003,1.519416e-001
5.600504e+003,1.566880e-001
5.604361e+003,1.565395e-001
5.608218e+003,1.549015e-001
5.612075e+003,1.512116e-001
5.615932e+003,1.481683e-001
5.619790e+003,1.468849e-001
5.623646e+003,1.502568e-001
5.627503e+003,1.545314e-001
5.631361e+003,1.566496e-001
5.635218e+003,1.570408e-001
5.639075e+003,1.567867e-001
5.642932e+003,1.544441e-001
5.646789e+003,1.505390e-001
5.650646e+003,1.514662e-001
5.654503e+003,1.554928e-001
5.658360e+003,1.568709e-001
5.662217e+003,1.557643e-001
5.666075e+003,1.552518e-001
5.669932e+003,1.542380e-001
5.673789e+003,1.545233e-001
5.677646e+003,1.527046e-001
5.681503e+003,1.492674e-001
5.685360e+003,1.459567e-001
5.689217e+003,1.405191e-001
5.693074e+003,1.403799e-001
5.696931e+003,1.418656e-001
5.700789e+003,1.457170e-001
5.704646e+003,1.540690e-001
5.708502e+003,1.560654e-001
5.712360e+003,1.545779e-001
5.716217e+003,1.520388e-001
5.720074e+003,1.538355e-001
5.723931e+003,1.536111e-001
5.727788e+003,1.558091e-001
5.731645e+003,1.576594e-001
5.735502e+003,1.562974e-001
5.739359e+003,1.520056e-001
5.743216e+003,1.502455e-001
5.747074e+003,1.472162e-001
5.750931e+003,1.476662e-001
5.754788e+003,1.549911e-001
5.758645e+003,1.545790e-001
5.762502e+003,1.458378e-001
5.766359e+003,1.484938e-001
5.770216e+003,1.532699e-001
5.774073e+003,1.577433e-001
5.777930e+003,1.540316e-001
5.781788e+003,1.505985e-001
5.785645e+003,1.466795e-001
5.789501e+003,1.403340e-001
5.793359e+003,1.470141e-001
5.797216e+003,1.550937e-001
5.801073e+003,1.534144e-001
5.804930e+003,1.529862e-001
5.808787e+003,1.565005e-001
5.812644e+003,1.538534e-001
5.816501e+003,1.525890e-001
5.820358e+003,1.521332e-001
5.824215e+003,1.497563e-001
5.828073e+003,1.527334e-001
5.831930e+003,1.567021e-001
5.835787e+003,1.548718e-001
5.839644e+003,1.490274e-001
5.843501e+003,1.527742e-001
5.847358e+003,1.531165e-001
5.851215e+003,1.500960e-001
5.855072e+003,1.507582e-001
5.858929e+003,1.512436e-001
5.862787e+003,1.499773e-001
5.866644e+003,1.520404e-001
5.870500e+003,1.494656e-001
5.874358e+003,1.488764e-001
5.878215e+003,1.537417e-001
5.882072e+003,1.521245e-001
5.885929e+003,1.527958e-001
5.889786e+003,1.526302e-001
5.893643e+003,1.495117e-001
5.897500e+003,1.492013e-001
5.901357e+003,1.508194e-001
5.905214e+003,1.508522e-001
5.909072e+003,1.518347e-001
5.912929e+003,1.514036e-001
5.916786e+003,1.499549e-001
5.920643e+003,1.483683e-001
5.924500e+003,1.499025e-001
5.928357e+003,1.493450e-001
5.932214e+003,1.452917e-001
5.936071e+003,1.401153e-001
5.939928e+003,1.427647e-001
5.943786e+003,1.479655e-001
5.947643e+003,1.502681e-001
5.951500e+003,1.537675e-001
5.955357e+003,1.545845e-001
5.959214e+003,1.630400e-001
5.963071e+003,1.658683e-001
5.966928e+003,1.608402e-001
5.970785e+003,1.504698e-001
5.974642e+003,1.398016e-001
5.978500e+003,1.481968e-001
5.982356e+003,1.540530e-001
5.986213e+003,1.505819e-001
5.990071e+003,1.564617e-001
5.993928e+003,1.538333e-001
5.997785e+003,1.432357e-001
6.001642e+003,1.390774e-001
6.005499e+003,1.418062e-001
6.009356e+003,1.447426e-001
6.013213e+003,1.486037e-001
6.017070e+003,1.553687e-001
6.020927e+003,1.576509e-001
6.024785e+003,1.545820e-001
6.028642e+003,1.501277e-001
6.032499e+003,1.486067e-001
6.036356e+003,1.560583e-001
6.040213e+003,1.546436e-001
6.044070e+003,1.481329e-001
6.047927e+003,1.419525e-001
6.051784e+003,1.431983e-001
6.055641e+003,1.469569e-001
6.059499e+003,1.490445e-001
6.063355e+003,1.587367e-001
6.067212e+003,1.627821e-001
6.071070e+003,1.569139e-001
6.074927e+003,1.555598e-001
6.078784e+003,1.564574e-001
6.082641e+003,1.523031e-001
6.086498e+003,1.512972e-001
6.090355e+003,1.586991e-001
6.094212e+003,1.621476e-001
6.098069e+003,1.603485e-001
6.101926e+003,1.618673e-001
6.105784e+003,1.561667e-001
6.109641e+003,1.492441e-001
6.113498e+003,1.514887e-001
6.117355e+003,1.492315e-001
6.121212e+003,1.494502e-001
6.125069e+003,1.564860e-001
6.128926e+003,1.639099e-001
6.132783e+003,1.564072e-001
6.136640e+003,1.504392e-001
6.140498e+003,1.603098e-001
6.144354e+003,1.592924e-001
6.148211e+003,1.478929e-001
6.152069e+003,1.481169e-001
6.155926e+003,1.498428e-001
6.159783e+003,1.555220e-001
6.163640e+003,1.536686e-001
6.167497e+003,1.509582e-001
6.171354e+003,1.516881e-001
6.175211e+003,1.519987e-001
6.179068e+003,1.580943e-001
6.182925e+003,1.629518e-001
6.186783e+003,1.566809e-001
6.190640e+003,1.585853e-001
6.194497e+003,1.596301e-001
6.198354e+003,1.520869e-001
6.202211e+003,1.463044e-001
6.206068e+003,1.481647e-001
6.209925e+003,1.607585e-001
6.213782e+003,1.682178e-001
6.217639e+003,1.594338e-001
6.221497e+003,1.523526e-001
6.225354e+003,1.522812e-001
6.229210e+003,1.562580e-001
6.233068e+003,1.576099e-001
6.236925e+003,1.610758e-001
6.240782e+003,1.586950e-001
6.244639e+003,1.557757e-001
6.248496e+003,1.531214e-001
6.252353e+003,1.538669e-001
6.256210e+003,1.529221e-001
6.260067e+003,1.517722e-001
6.263924e+003,1.522388e-001
6.267782e+003,1.536787e-001
6.271639e+003,1.557417e-001
6.275496e+003,1.527385e-001
6.279353e+003,1.497618e-001
6.283210e+003,1.503818e-001
6.287067e+003,1.565961e-001
6.290924e+003,1.552640e-001
6.294781e+003,1.597192e-001
6.298638e+003,1.633067e-001
6.302496e+003,1.570553e-001
6.306353e+003,1.585005e-001
6.310209e+003,1.601511e-001
6.314067e+003,1.602077e-001
6.317924e+003,1.671552e-001
6.321781e+003,1.598293e-001
6.325638e+003,1.508267e-001
6.329495e+003,1.445837e-001
6.333352e+003,1.435603e-001
6.337209e+003,1.540017e-001
6.341066e+003,1.709300e-001
6.344923e+003,1.687595e-001
6.348780e+003,1.595314e-001
6.352638e+003,1.627835e-001
6.356495e+003,1.579798e-001
6.360352e+003,1.496676e-001
6.364209e+003,1.570246e-001
6.368066e+003,1.631922e-001
6.371923e+003,1.528814e-001
6.375780e+003,1.544969e-001
6.379637e+003,1.621038e-001
6.383494e+003,1.675976e-001
6.387352e+003,1.637732e-001
6.391208e+003,1.609990e-001
6.395065e+003,1.550567e-001
6.398923e+003,1.534441e-001
6.402780e+003,1.583670e-001
6.406637e+003,1.536764e-001
6.410494e+003,1.577855e-001
6.414351e+003,1.687764e-001
6.418208e+003,1.672208e-001
6.422065e+003,1.651098e-001
6.425922e+003,1.663589e-001
6.429779e+003,1.689182e-001
6.433637e+003,1.730804e-001
6.437494e+003,1.713845e-001
6.441351e+003,1.662089e-001
6.445208e+003,1.623044e-001
6.449065e+003,1.556197e-001
6.452922e+003,1.534181e-001
6.456779e+003,1.619609e-001
6.460636e+003,1.688166e-001
6.464493e+003,1.666717e-001
6.468351e+003,1.693456e-001
6.472208e+003,1.710153e-001
6.476064e+003,1.710579e-001
6.479922e+003,1.585056e-001
6.483779e+003,1.501490e-001
6.487636e+003,1.540951e-001
6.491493e+003,1.623714e-001
6.495350e+003,1.691539e-001
6.499207e+003,1.683819e-001
6.503064e+003,1.599120e-001
6.506921e+003,1.550970e-001
6.510778e+003,1.729427e-001
6.514636e+003,1.750838e-001
6.518493e+003,1.702700e-001
6.522350e+003,1.665662e-001
6.526207e+003,1.752897e-001
6.530064e+003,1.862440e-001
6.533921e+003,1.788559e-001
6.537778e+003,1.620047e-001
6.541635e+003,1.604919e-001
6.545492e+003,1.638682e-001
6.549350e+003,1.601196e-001
6.553207e+003,1.569196e-001
6.557063e+003,1.597377e-001
6.560921e+003,1.702199e-001
6.564778e+003,1.818791e-001
6.568635e+003,1.977955e-001
6.572492e+003,1.812135e-001
6.576349e+003,1.504883e-001
6.580206e+003,1.440212e-001
6.584063e+003,1.596610e-001
6.587920e+003,1.714022e-001
6.591777e+003,1.684350e-001
6.595635e+003,1.586742e-001
6.599492e+003,1.734223e-001
6.603349e+003,1.851366e-001
6.607206e+003,1.763322e-001
6.611063e+003,1.704474e-001
6.614920e+003,1.679899e-001
6.618777e+003,1.683109e-001
6.622634e+003,1.699951e-001
6.626491e+003,1.831155e-001
6.630349e+003,1.791856e-001
6.634206e+003,1.805898e-001
6.638063e+003,1.845399e-001
6.641920e+003,1.619046e-001
6.645777e+003,1.498761e-001
6.649634e+003,1.543336e-001
6.653491e+003,1.598351e-001
6.657348e+003,1.669962e-001
6.661205e+003,1.714082e-001
6.665063e+003,1.598441e-001
6.668919e+003,1.609002e-001
6.672776e+003,1.724192e-001
6.676634e+003,1.746013e-001
6.680491e+003,1.600635e-001
6.684348e+003,1.664669e-001
6.688205e+003,1.774487e-001
6.692062e+003,1.883464e-001
6.695919e+003,1.983735e-001
6.699776e+003,1.930884e-001
6.703633e+003,1.696026e-001
6.707490e+003,1.506545e-001
6.711348e+003,1.516203e-001
6.715205e+003,1.572103e-001
6.719062e+003,1.737560e-001
6.722919e+003,1.833168e-001
6.726776e+003,1.706539e-001
6.730633e+003,1.618249e-001
6.734490e+003,1.746603e-001
6.738347e+003,1.780860e-001
6.742204e+003,1.822717e-001
6.746062e+003,1.761136e-001
6.749918e+003,1.657934e-001
6.753775e+003,1.840809e-001
6.757633e+003,1.967889e-001
6.761490e+003,1.967866e-001
6.765347e+003,1.841869e-001
6.769204e+003,1.828804e-001
6.773061e+003,1.724153e-001
6.776918e+003,1.599937e-001
6.780775e+003,1.659491e-001
6.784632e+003,1.670965e-001
6.788489e+003,1.657456e-001
6.792347e+003,1.671741e-001
6.796204e+003,1.644897e-001
6.800061e+003,1.707880e-001
6.803918e+003,1.856509e-001
6.807775e+003,1.938719e-001
6.811632e+003,1.964944e-001
6.815489e+003,1.899971e-001
6.819346e+003,1.819116e-001
6.823203e+003,1.725772e-001
6.827061e+003,1.744642e-001
6.830917e+003,1.867185e-001
6.834774e+003,1.974847e-001
6.838632e+003,1.859621e-001
6.842489e+003,1.873140e-001
6.846346e+003,2.037365e-001
6.850203e+003,1.995421e-001
6.854060e+003,1.946175e-001
6.857917e+003,1.959812e-001
6.861774e+003,2.072803e-001
6.865631e+003,2.155959e-001
6.869488e+003,2.033618e-001
6.873346e+003,1.863169e-001
6.877203e+003,1.926473e-001
6.881060e+003,2.067952e-001
6.884917e+003,1.894713e-001
6.888774e+003,1.676348e-001
6.892631e+003,1.687234e-001
6.896488e+003,1.851508e-001
6.900345e+003,1.818944e-001
6.904202e+003,1.835525e-001
6.908060e+003,1.804923e-001
6.911917e+003,1.894729e-001
6.915773e+003,2.102437e-001
6.919631e+003,2.293439e-001
6.923488e+003,2.174834e-001
6.927345e+003,1.871098e-001
6.931202e+003,1.765928e-001
6.935059e+003,1.947396e-001
6.938916e+003,2.031349e-001
6.942773e+003,2.032764e-001
6.946630e+003,2.162445e-001
6.950487e+003,2.184309e-001
6.954345e+003,1.933605e-001
6.958202e+003,1.830101e-001
6.962059e+003,1.976190e-001
6.965916e+003,2.121307e-001
6.969773e+003,2.134528e-001
6.973630e+003,2.030776e-001
6.977487e+003,1.903545e-001
6.981344e+003,1.878743e-001
6.985201e+003,2.029531e-001
6.989059e+003,2.012987e-001
6.992916e+003,2.142467e-001
6.996772e+003,2.251772e-001
7.000630e+003,2.091877e-001
7.004487e+003,1.956124e-001
7.008344e+003,1.970887e-001
7.012201e+003,2.001371e-001
7.016058e+003,2.073945e-001
7.019915e+003,2.163353e-001
7.023772e+003,2.131443e-001
7.027629e+003,1.971411e-001
7.031486e+003,1.974004e-001
7.035344e+003,2.094081e-001
7.039201e+003,2.068514e-001
7.043058e+003,1.998880e-001
7.046915e+003,1.999656e-001
7.050772e+003,2.059728e-001
7.054629e+003,2.145385e-001
7.058486e+003,2.085341e-001
7.062343e+003,1.855112e-001
7.066200e+003,2.103166e-001
7.070058e+003,2.098950e-001
7.073915e+003,1.954807e-001
7.077771e+003,1.833795e-001
7.081629e+003,1.739826e-001
7.085486e+003,1.807708e-001
7.089343e+003,1.975110e-001
7.093200e+003,2.219639e-001
7.097057e+003,2.209650e-001
7.100914e+003,2.230138e-001
7.104771e+003,2.259603e-001
7.108628e+003,2.367938e-001
7.112485e+003,2.263889e-001
7.116343e+003,1.966251e-001
7.120200e+003,1.959197e-001
7.124057e+003,2.058445e-001
7.127914e+003,2.134977e-001
7.131771e+003,2.145932e-001
7.135628e+003,2.151510e-001
7.139485e+003,2.041077e-001
7.143342e+003,1.957744e-001
7.147199e+003,1.989984e-001
7.151057e+003,1.992441e-001
7.154914e+003,1.968270e-001
7.158771e+003,2.033852e-001
7.162628e+003,2.093948e-001
7.166485e+003,2.195890e-001
7.170342e+003,2.329358e-001
7.174199e+003,2.298277e-001
7.178056e+003,2.127865e-001
7.181913e+003,2.225140e-001
7.185771e+003,2.395739e-001
7.189627e+003,2.494611e-001
7.193484e+003,2.376910e-001
7.197342e+003,2.089361e-001
7.201199e+003,1.947308e-001
7.205056e+003,2.018971e-001
7.208913e+003,2.287811e-001
7.212770e+003,2.330120e-001
7.216627e+003,2.177628e-001
7.220484e+003,2.114511e-001
7.224341e+003,2.352052e-001
7.228198e+003,2.459468e-001
7.232056e+003,2.292809e-001
7.235913e+003,2.261263e-001
7.239770e+003,2.210927e-001
7.243627e+003,2.083715e-001
7.247484e+003,2.125172e-001
7.251341e+003,2.266882e-001
7.255198e+003,2.314484e-001
7.259055e+003,2.392293e-001
7.262912e+003,2.282125e-001
7.266770e+003,2.142753e-001
7.270626e+003,1.943146e-001
7.274483e+003,1.972494e-001
7.278341e+003,2.124769e-001
7.282198e+003,2.205109e-001
7.286055e+003,2.304654e-001
7.289912e+003,2.479537e-001
7.293769e+003,2.468940e-001
7.297626e+003,2.331063e-001
7.301483e+003,2.110841e-001
7.305340e+003,2.298166e-001
7.309197e+003,2.345522e-001
7.313055e+003,1.956653e-001
7.316912e+003,1.779656e-001
7.320769e+003,2.132250e-001
7.324626e+003,2.517802e-001
7.328483e+003,2.315337e-001
7.332340e+003,2.100629e-001
7.336197e+003,2.180941e-001
7.340054e+003,2.085634e-001
7.343911e+003,1.930416e-001
7.347769e+003,2.092626e-001
7.351625e+003,2.417544e-001
7.355482e+003,2.242136e-001
7.359340e+003,2.026348e-001
7.363197e+003,2.185793e-001
7.367054e+003,2.374625e-001
7.370911e+003,2.290682e-001
7.374768e+003,2.108121e-001
7.378625e+003,2.092900e-001
7.382482e+003,2.374564e-001
7.386339e+003,2.262585e-001
7.390196e+003,1.963911e-001
7.394054e+003,2.069722e-001
7.397911e+003,2.082397e-001
7.401768e+003,2.293044e-001
7.405625e+003,2.562609e-001
7.409482e+003,2.617134e-001
7.413339e+003,2.538055e-001
7.417196e+003,2.672854e-001
7.421053e+003,2.505674e-001
7.424910e+003,2.193866e-001
7.428768e+003,1.935237e-001
7.432625e+003,1.931714e-001
7.436481e+003,2.144338e-001
7.440339e+003,2.232563e-001
7.444196e+003,2.386767e-001
7.448053e+003,2.300340e-001
7.451910e+003,2.297478e-001
7.455767e+003,2.194866e-001
7.459624e+003,2.307594e-001
7.463481e+003,2.526775e-001
7.467338e+003,2.505565e-001
7.471195e+003,2.178806e-001
7.475053e+003,2.289639e-001
7.478910e+003,2.226073e-001
7.482767e+003,1.998343e-001
7.486624e+003,1.972901e-001
7.490481e+003,2.172381e-001
7.494338e+003,2.234348e-001
7.498195e+003,2.206036e-001
7.502052e+003,2.055735e-001
7.505909e+003,2.265806e-001
7.509767e+003,2.320705e-001
7.513624e+003,1.978042e-001
7.517480e+003,1.946838e-001
7.521338e+003,2.338985e-001
7.525195e+003,2.500572e-001
7.529052e+003,1.968155e-001
7.532909e+003,1.819311e-001
7.536766e+003,2.441836e-001
7.540623e+003,2.604096e-001
7.544480e+003,2.435304e-001
7.548337e+003,2.988802e-001
7.552194e+003,3.207498e-001
7.556052e+003,2.422407e-001
7.559909e+003,2.004545e-001
7.563766e+003,1.734250e-001
7.567623e+003,1.718417e-001
7.571480e+003,1.834916e-001
7.575337e+003,1.641959e-001
7.579194e+003,1.979091e-001
7.583051e+003,2.472908e-001
7.586908e+003,2.585967e-001
7.590766e+003,2.606906e-001
7.594623e+003,2.617898e-001
7.598479e+003,2.517767e-001
7.602337e+003,2.288962e-001
7.606194e+003,2.453471e-001
7.610051e+003,2.395634e-001
7.613908e+003,2.447088e-001
7.617765e+003,2.624743e-001
7.621622e+003,2.874578e-001
7.625479e+003,2.575509e-001
7.629336e+003,2.525534e-001
7.633193e+003,2.599808e-001
7.637051e+003,2.315916e-001
7.640908e+003,2.293181e-001
7.644765e+003,2.662295e-001
7.648622e+003,2.720220e-001
7.652479e+003,2.090709e-001
7.656336e+003,1.957059e-001
7.660193e+003,2.599323e-001
7.664050e+003,2.934930e-001
7.667907e+003,2.515369e-001
7.671765e+003,1.981658e-001
7.675622e+003,2.066625e-001
7.679479e+003,2.284468e-001
7.683336e+003,2.236951e-001
7.687193e+003,2.280277e-001
7.691050e+003,2.379474e-001
7.694907e+003,2.346559e-001
7.698764e+003,2.116601e-001
7.702621e+003,2.423747e-001
7.706479e+003,2.972779e-001
7.710335e+003,2.601997e-001
7.714192e+003,2.250022e-001
7.718050e+003,2.489083e-001
7.721907e+003,3.296362e-001
7.725764e+003,3.046004e-001
7.729621e+003,1.811670e-001
7.733478e+003,1.812552e-001
7.737335e+003,1.776669e-001
7.741192e+003,1.533441e-001
7.745049e+003,1.860239e-001
7.748906e+003,2.058472e-001
7.752764e+003,2.128264e-001
7.756621e+003,2.134404e-001
7.760478e+003,2.224641e-001
7.764335e+003,1.992645e-001
7.768192e+003,2.542230e-001
7.772049e+003,3.003505e-001
7.775906e+003,2.661571e-001
7.779763e+003,2.542647e-001
7.783620e+003,2.414524e-001
7.787478e+003,1.994702e-001
7.791334e+003,2.127957e-001
7.795191e+003,2.487180e-001
7.799049e+003,2.723869e-001
7.802906e+003,2.135800e-001
7.806763e+003,1.429996e-001
7.810620e+003,1.603230e-001
7.814477e+003,2.401070e-001
7.818334e+003,2.865922e-001
7.822191e+003,2.757072e-001
7.826048e+003,2.821825e-001
7.829905e+003,2.797015e-001
7.833763e+003,2.843811e-001
7.837620e+003,2.954111e-001
7.841477e+003,2.641394e-001
7.845334e+003,2.508359e-001
7.849191e+003,2.964675e-001
7.853048e+003,2.600417e-001
7.856905e+003,2.100095e-001
7.860762e+003,2.141643e-001
7.864619e+003,2.255388e-001
7.868477e+003,2.388967e-001
7.872333e+003,2.062446e-001
7.876190e+003,1.994364e-001
7.880048e+003,2.206070e-001
7.883905e+003,2.236590e-001
7.887762e+003,2.048242e-001
7.891619e+003,2.153213e-001
7.895476e+003,2.296089e-001
7.899333e+003,2.054633e-001
7.903190e+003,1.845386e-001
7.907047e+003,2.210325e-001
7.910904e+003,2.701962e-001
7.914762e+003,2.759868e-001
7.918619e+003,1.942980e-001
7.922476e+003,1.493118e-001
7.926333e+003,2.105673e-001
7.930190e+003,2.049507e-001
7.934047e+003,2.494270e-001
7.937904e+003,3.786285e-001
7.941761e+003,3.524711e-001
7.945618e+003,2.162339e-001
7.949476e+003,2.011010e-001
7.953333e+003,2.766303e-001
7.957189e+003,2.310541e-001
7.961047e+003,1.263826e-001
7.964904e+003,1.537803e-001
7.968761e+003,2.500932e-001
7.972618e+003,2.897376e-001
7.976475e+003,3.148996e-001
7.980332e+003,2.633255e-001
7.984189e+003,2.210822e-001
7.988046e+003,2.970092e-001
7.991903e+003,2.945967e-001
7.995761e+003,2.320947e-001
7.999618e+003,2.241745e-001
