4.011380e+002,6.000000e+000
4.049951e+002,-1.056665e+000
4.088522e+002,-2.199322e-001
4.127093e+002,6.000000e+000
4.165664e+002,6.000000e+000
4.204235e+002,6.000000e+000
4.242806e+002,6.000000e+000
4.281377e+002,6.000000e+000
4.319948e+002,6.000000e+000
4.358519e+002,-4.260443e-001
4.397090e+002,-2.485904e-001
4.435661e+002,6.000000e+000
4.474232e+002,6.000000e+000
4.512803e+002,-2.789825e-001
4.551374e+002,6.000000e+000
4.589945e+002,6.000000e+000
4.628516e+002,-6.477437e-001
4.667087e+002,6.000000e+000
4.705658e+002,5.176896e-001
4.744229e+002,-1.832060e-002
4.782800e+002,-5.743886e-001
4.821371e+002,6.000000e+000
4.859941e+002,-5.963805e-002
4.898513e+002,-3.804708e-001
4.937083e+002,6.000000e+000
4.975654e+002,6.000000e+000
5.014225e+002,-7.853038e-001
5.052796e+002,-9.661103e-001
5.091367e+002,1.480585e+000
5.129938e+002,1.680425e-001
5.168509e+002,6.000000e+000
5.207080e+002,-2.208683e-001
5.245651e+002,6.000000e+000
5.284222e+002,6.000000e+000
5.322793e+002,6.000000e+000
5.361364e+002,2.120427e-001
5.399935e+002,-7.177169e-001
5.438506e+002,6.000000e+000
5.477077e+002,6.000000e+000
5.515648e+002,6.000000e+000
5.554219e+002,-7.783267e-003
5.592790e+002,-2.625435e-001
5.631361e+002,-3.187509e-001
5.669932e+002,6.000000e+000
5.708503e+002,5.107589e-001
5.747074e+002,9.129494e-001
5.785645e+002,9.179363e-001
5.824216e+002,1.499552e+000
5.862787e+002,1.539161e-001
5.901357e+002,-7.011318e-002
5.939929e+002,6.000000e+000
5.978499e+002,6.000000e+000
6.017070e+002,6.000000e+000
6.055641e+002,6.000000e+000
6.094212e+002,3.256027e-001
6.132783e+002,2.167814e-001
6.171354e+002,3.745488e-001
6.209925e+002,-2.937661e-001
6.248496e+002,6.000000e+000
6.287067e+002,-2.141641e-002
6.325638e+002,-1.502148e-001
6.364209e+002,1.198920e+000
6.402780e+002,6.000000e+000
6.441351e+002,-6.995752e-001
6.479922e+002,6.000000e+000
6.518493e+002,6.000000e+000
6.557064e+002,9.697446e-001
6.595635e+002,7.338828e-001
6.634205e+002,5.286140e-001
6.672777e+002,1.165002e+000
6.711348e+002,8.090703e-001
6.749918e+002,6.000000e+000
6.788490e+002,6.000000e+000
6.827061e+002,6.000000e+000
6.865631e+002,-4.589863e-001
6.904203e+002,1.290815e-001
6.942773e+002,6.000000e+000
6.981344e+002,6.000000e+000
7.019916e+002,-4.108823e-002
7.058486e+002,-4.677167e-001
7.097057e+002,6.000000e+000
7.135629e+002,6.000000e+000
7.174199e+002,2.101819e-001
7.212770e+002,-4.433738e-001
7.251342e+002,6.000000e+000
7.289912e+002,6.000000e+000
7.328483e+002,-1.295893e+000
7.367054e+002,1.395683e-001
7.405625e+002,-5.343443e-001
7.444196e+002,6.000000e+000
7.482767e+002,6.000000e+000
7.521338e+002,-7.210943e-001
7.559908e+002,-4.993016e-001
7.598480e+002,6.000000e+000
7.637051e+002,4.799097e-001
7.675621e+002,5.549808e-001
7.714193e+002,9.481468e-001
7.752764e+002,5.730244e-001
7.791334e+002,2.316367e-001
7.829905e+002,1.081643e+000
7.868477e+002,5.936382e-001
7.907047e+002,6.000000e+000
7.945618e+002,1.454608e-001
7.984189e+002,-4.225764e-002
8.022760e+002,1.382427e-001
8.061331e+002,-1.413072e+000
8.099902e+002,6.000000e+000
8.138473e+002,6.000000e+000
8.177044e+002,3.044050e-001
8.215615e+002,4.576453e-001
8.254186e+002,6.000000e+000
8.292757e+002,6.000000e+000
8.331328e+002,6.000000e+000
8.369899e+002,6.000000e+000
8.408470e+002,2.294044e+000
8.447041e+002,6.000000e+000
8.485612e+002,6.000000e+000
8.524183e+002,6.000000e+000
8.562754e+002,6.000000e+000
8.601324e+002,1.096671e+000
8.639896e+002,7.542610e-001
8.678467e+002,9.936164e-001
8.717037e+002,6.000000e+000
8.755609e+002,6.000000e+000
8.794180e+002,1.151053e+000
8.832750e+002,1.247979e+000
8.871321e+002,1.423819e+000
8.909893e+002,1.589445e+000
8.948463e+002,6.000000e+000
8.987034e+002,6.000000e+000
9.025605e+002,6.000000e+000
9.064176e+002,6.000000e+000
9.102747e+002,6.000000e+000
9.141318e+002,6.000000e+000
9.179889e+002,6.000000e+000
9.218461e+002,6.000000e+000
9.257031e+002,6.000000e+000
9.295602e+002,6.000000e+000
9.334174e+002,2.894921e+000
9.372744e+002,6.000000e+000
9.411315e+002,6.000000e+000
9.449886e+002,1.768340e+000
9.488457e+002,1.725469e+000
9.527028e+002,1.825493e+000
9.565599e+002,1.980719e+000
9.604170e+002,3.113743e+000
9.642740e+002,6.000000e+000
9.681312e+002,1.711232e+000
9.719883e+002,1.668719e+000
9.758453e+002,1.926147e+000
9.797025e+002,2.172777e+000
9.835596e+002,2.005932e+000
9.874166e+002,1.597477e+000
9.912738e+002,1.731485e+000
9.951309e+002,1.934928e+000
9.989879e+002,1.743352e+000
1.002845e+003,1.846628e+000
1.006702e+003,1.753030e+000
1.010559e+003,1.684194e+000
1.014416e+003,1.842926e+000
1.018273e+003,1.993833e+000
1.022130e+003,1.989472e+000
1.025988e+003,1.774257e+000
1.029845e+003,1.612622e+000
1.033702e+003,1.596991e+000
1.037559e+003,1.600648e+000
1.041416e+003,1.701758e+000
1.045273e+003,1.789478e+000
1.049130e+003,1.817080e+000
1.052987e+003,1.714879e+000
1.056844e+003,1.607195e+000
1.060702e+003,1.548651e+000
1.064559e+003,1.639934e+000
1.068416e+003,1.775859e+000
1.072273e+003,1.948618e+000
1.076130e+003,1.795594e+000
1.079987e+003,1.748738e+000
1.083844e+003,1.618880e+000
1.087701e+003,1.513791e+000
1.091558e+003,1.598778e+000
1.095415e+003,1.536133e+000
1.099272e+003,1.568025e+000
1.103130e+003,1.552397e+000
1.106987e+003,1.612558e+000
1.110844e+003,1.665510e+000
1.114701e+003,1.498353e+000
1.118558e+003,1.446355e+000
1.122415e+003,1.433333e+000
1.126272e+003,1.465403e+000
1.130129e+003,1.450505e+000
1.133986e+003,1.429881e+000
1.137843e+003,1.442085e+000
1.141701e+003,1.452649e+000
1.145558e+003,1.435680e+000
1.149415e+003,1.428270e+000
1.153272e+003,1.466030e+000
1.157129e+003,1.500768e+000
1.160986e+003,1.590945e+000
1.164843e+003,1.521170e+000
1.168700e+003,1.411430e+000
1.172557e+003,1.426511e+000
1.176414e+003,1.431681e+000
1.180271e+003,1.501119e+000
1.184129e+003,1.566382e+000
1.187986e+003,1.507727e+000
1.191843e+003,1.479793e+000
1.195700e+003,1.521605e+000
1.199557e+003,1.517594e+000
1.203414e+003,1.497187e+000
1.207271e+003,1.443899e+000
1.211128e+003,1.340075e+000
1.214985e+003,1.279649e+000
1.218842e+003,1.219792e+000
1.222699e+003,1.176839e+000
1.226557e+003,1.132753e+000
1.230414e+003,1.046587e+000
1.234271e+003,9.677902e-001
1.238128e+003,9.146956e-001
1.241985e+003,8.649417e-001
1.245842e+003,8.149701e-001
1.249699e+003,7.761989e-001
1.253556e+003,7.328367e-001
1.257413e+003,7.060606e-001
1.261271e+003,6.861395e-001
1.265128e+003,6.619298e-001
1.268985e+003,6.393317e-001
1.272842e+003,6.216022e-001
1.276699e+003,6.026737e-001
1.280556e+003,5.785899e-001
1.284413e+003,5.659901e-001
1.288270e+003,5.621281e-001
1.292127e+003,5.510503e-001
1.295984e+003,5.335264e-001
1.299841e+003,5.157085e-001
1.303698e+003,5.037202e-001
1.307556e+003,4.948380e-001
1.311413e+003,4.830025e-001
1.315270e+003,4.777713e-001
1.319127e+003,4.738751e-001
1.322984e+003,4.648673e-001
1.326841e+003,4.583328e-001
1.330698e+003,4.524683e-001
1.334555e+003,4.490499e-001
1.338412e+003,4.492300e-001
1.342270e+003,4.461042e-001
1.346127e+003,4.370604e-001
1.349984e+003,4.315524e-001
1.353841e+003,4.337936e-001
1.357698e+003,4.361702e-001
1.361555e+003,4.366278e-001
1.365412e+003,4.416950e-001
1.369269e+003,4.431454e-001
1.373126e+003,4.475823e-001
1.376983e+003,4.581443e-001
1.380840e+003,4.708258e-001
1.384698e+003,4.842938e-001
1.388555e+003,4.914870e-001
1.392412e+003,4.975035e-001
1.396269e+003,5.094038e-001
1.400126e+003,5.255038e-001
1.403983e+003,5.361192e-001
1.407840e+003,5.441636e-001
1.411697e+003,5.532059e-001
1.415554e+003,5.646782e-001
1.419411e+003,5.775241e-001
1.423269e+003,5.899791e-001
1.427126e+003,5.894112e-001
1.430983e+003,5.913119e-001
1.434840e+003,5.910192e-001
1.438697e+003,5.871267e-001
1.442554e+003,5.850963e-001
1.446411e+003,5.840724e-001
1.450268e+003,5.754036e-001
1.454125e+003,5.631890e-001
1.457982e+003,5.553375e-001
1.461839e+003,5.482069e-001
1.465697e+003,5.423977e-001
1.469554e+003,5.389416e-001
1.473411e+003,5.390097e-001
1.477268e+003,5.454211e-001
1.481125e+003,5.531178e-001
1.484982e+003,5.625337e-001
1.488839e+003,5.758649e-001
1.492696e+003,5.807928e-001
1.496553e+003,5.829473e-001
1.500411e+003,5.923120e-001
1.504268e+003,6.031552e-001
1.508125e+003,6.055701e-001
1.511982e+003,6.015879e-001
1.515839e+003,6.009732e-001
1.519696e+003,5.989788e-001
1.523553e+003,5.908467e-001
1.527410e+003,5.746680e-001
1.531267e+003,5.629932e-001
1.535124e+003,5.540385e-001
1.538981e+003,5.487617e-001
1.542839e+003,5.340225e-001
1.546696e+003,5.199257e-001
1.550553e+003,5.116380e-001
1.554410e+003,4.988951e-001
1.558267e+003,4.910294e-001
1.562124e+003,4.840389e-001
1.565981e+003,4.749967e-001
1.569838e+003,4.673233e-001
1.573695e+003,4.654905e-001
1.577552e+003,4.627529e-001
1.581410e+003,4.589797e-001
1.585267e+003,4.616633e-001
1.589124e+003,4.753896e-001
1.592981e+003,4.878675e-001
1.596838e+003,4.969518e-001
1.600695e+003,5.144383e-001
1.604552e+003,5.369086e-001
1.608409e+003,5.591376e-001
1.612266e+003,5.838526e-001
1.616123e+003,6.194153e-001
1.619980e+003,6.625122e-001
1.623838e+003,6.910838e-001
1.627695e+003,7.072877e-001
1.631552e+003,7.232186e-001
1.635409e+003,7.346428e-001
1.639266e+003,7.383111e-001
1.643123e+003,7.302914e-001
1.646980e+003,7.150044e-001
1.650837e+003,6.984922e-001
1.654694e+003,6.751047e-001
1.658551e+003,6.477334e-001
1.662409e+003,6.168854e-001
1.666266e+003,5.828306e-001
1.670123e+003,5.528389e-001
1.673980e+003,5.330245e-001
1.677837e+003,5.131214e-001
1.681694e+003,4.839005e-001
1.685551e+003,4.652907e-001
1.689408e+003,4.509107e-001
1.693265e+003,4.326639e-001
1.697122e+003,4.165359e-001
1.700979e+003,4.069654e-001
1.704837e+003,3.995768e-001
1.708694e+003,3.927572e-001
1.712551e+003,3.867837e-001
1.716408e+003,3.809258e-001
1.720265e+003,3.759689e-001
1.724122e+003,3.712379e-001
1.727979e+003,3.678812e-001
1.731836e+003,3.669477e-001
1.735693e+003,3.658747e-001
1.739550e+003,3.600717e-001
1.743408e+003,3.546414e-001
1.747265e+003,3.520806e-001
1.751122e+003,3.519719e-001
1.754979e+003,3.519655e-001
1.758836e+003,3.516268e-001
1.762693e+003,3.515539e-001
1.766550e+003,3.500173e-001
1.770407e+003,3.490272e-001
1.774264e+003,3.474449e-001
1.778121e+003,3.492123e-001
1.781979e+003,3.508079e-001
1.785836e+003,3.449718e-001
1.789693e+003,3.394114e-001
1.793550e+003,3.403217e-001
1.797407e+003,3.406027e-001
1.801264e+003,3.433998e-001
1.805121e+003,3.428127e-001
1.808978e+003,3.361713e-001
1.812835e+003,3.335513e-001
1.816692e+003,3.304865e-001
1.820549e+003,3.263982e-001
1.824407e+003,3.252186e-001
1.828264e+003,3.243332e-001
1.832121e+003,3.189871e-001
1.835978e+003,3.177446e-001
1.839835e+003,3.166887e-001
1.843692e+003,3.131948e-001
1.847549e+003,3.108922e-001
1.851406e+003,3.122626e-001
1.855263e+003,3.107122e-001
1.859120e+003,3.110542e-001
1.862978e+003,3.116096e-001
1.866835e+003,3.108197e-001
1.870692e+003,3.113593e-001
1.874549e+003,3.101029e-001
1.878406e+003,3.105661e-001
1.882263e+003,3.112047e-001
1.886120e+003,3.077954e-001
1.889977e+003,3.071040e-001
1.893834e+003,3.086836e-001
1.897691e+003,3.052753e-001
1.901548e+003,3.039963e-001
1.905406e+003,3.028734e-001
1.909263e+003,3.011149e-001
1.913120e+003,2.988155e-001
1.916977e+003,2.954478e-001
1.920834e+003,2.945930e-001
1.924691e+003,2.945236e-001
1.928548e+003,2.949479e-001
1.932405e+003,2.945931e-001
1.936262e+003,2.919168e-001
1.940119e+003,2.894883e-001
1.943977e+003,2.917486e-001
1.947834e+003,2.935812e-001
1.951691e+003,2.910181e-001
1.955548e+003,2.894607e-001
1.959405e+003,2.862674e-001
1.963262e+003,2.858778e-001
1.967119e+003,2.855121e-001
1.970976e+003,2.851287e-001
1.974833e+003,2.843642e-001
1.978690e+003,2.821810e-001
1.982547e+003,2.799709e-001
1.986405e+003,2.797598e-001
1.990262e+003,2.799824e-001
1.994119e+003,2.783850e-001
1.997976e+003,2.772177e-001
2.001833e+003,2.778695e-001
2.005690e+003,2.760856e-001
2.009547e+003,2.721302e-001
2.013404e+003,2.686252e-001
2.017261e+003,2.671297e-001
2.021118e+003,2.683484e-001
2.024976e+003,2.696698e-001
2.028833e+003,2.690430e-001
2.032690e+003,2.665161e-001
2.036547e+003,2.661056e-001
2.040404e+003,2.689534e-001
2.044261e+003,2.677387e-001
2.048118e+003,2.662051e-001
2.051975e+003,2.675723e-001
2.055832e+003,2.675022e-001
2.059689e+003,2.666267e-001
2.063546e+003,2.676675e-001
2.067404e+003,2.659943e-001
2.071261e+003,2.651051e-001
2.075118e+003,2.635341e-001
2.078975e+003,2.613696e-001
2.082832e+003,2.601263e-001
2.086689e+003,2.604465e-001
2.090546e+003,2.598713e-001
2.094403e+003,2.600275e-001
2.098260e+003,2.608247e-001
2.102117e+003,2.607761e-001
2.105975e+003,2.600757e-001
2.109832e+003,2.564093e-001
2.113689e+003,2.549492e-001
2.117546e+003,2.588910e-001
2.121403e+003,2.624220e-001
2.125260e+003,2.611575e-001
2.129117e+003,2.591120e-001
2.132974e+003,2.601340e-001
2.136831e+003,2.619776e-001
2.140688e+003,2.650582e-001
2.144545e+003,2.672635e-001
2.148403e+003,2.672210e-001
2.152260e+003,2.637529e-001
2.156117e+003,2.623029e-001
2.159974e+003,2.615866e-001
2.163831e+003,2.639591e-001
2.167688e+003,2.662541e-001
2.171545e+003,2.658266e-001
2.175402e+003,2.639887e-001
2.179259e+003,2.632802e-001
2.183116e+003,2.617914e-001
2.186974e+003,2.607972e-001
2.190831e+003,2.615887e-001
2.194688e+003,2.607740e-001
2.198545e+003,2.625304e-001
2.202402e+003,2.644747e-001
2.206259e+003,2.664663e-001
2.210116e+003,2.673291e-001
2.213973e+003,2.681823e-001
2.217830e+003,2.693570e-001
2.221688e+003,2.679903e-001
2.225544e+003,2.695906e-001
2.229402e+003,2.726722e-001
2.233259e+003,2.739405e-001
2.237116e+003,2.732478e-001
2.240973e+003,2.729430e-001
2.244830e+003,2.735541e-001
2.248687e+003,2.765685e-001
2.252544e+003,2.782830e-001
2.256401e+003,2.745056e-001
2.260258e+003,2.726666e-001
2.264115e+003,2.723287e-001
2.267973e+003,2.731288e-001
2.271830e+003,2.734352e-001
2.275687e+003,2.733921e-001
2.279544e+003,2.731510e-001
2.283401e+003,2.726769e-001
2.287258e+003,2.755620e-001
2.291115e+003,2.772397e-001
2.294972e+003,2.761726e-001
2.298829e+003,2.783543e-001
2.302687e+003,2.816093e-001
2.306543e+003,2.824277e-001
2.310401e+003,2.817158e-001
2.314258e+003,2.813431e-001
2.318115e+003,2.805544e-001
2.321972e+003,2.800791e-001
2.325829e+003,2.786715e-001
2.329686e+003,2.772219e-001
2.333543e+003,2.801154e-001
2.337400e+003,2.849038e-001
2.341257e+003,2.828584e-001
2.345115e+003,2.810780e-001
2.348972e+003,2.808546e-001
2.352829e+003,2.829438e-001
2.356686e+003,2.856759e-001
2.360543e+003,2.846637e-001
2.364400e+003,2.835147e-001
2.368257e+003,2.836215e-001
2.372114e+003,2.829918e-001
2.375971e+003,2.822621e-001
2.379828e+003,2.827586e-001
2.383686e+003,2.830976e-001
2.387542e+003,2.818621e-001
2.391400e+003,2.798178e-001
2.395257e+003,2.791685e-001
2.399114e+003,2.801454e-001
2.402971e+003,2.778159e-001
2.406828e+003,2.755759e-001
2.410685e+003,2.774355e-001
2.414542e+003,2.815457e-001
2.418399e+003,2.825457e-001
2.422256e+003,2.818041e-001
2.426114e+003,2.812564e-001
2.429971e+003,2.792526e-001
2.433828e+003,2.785186e-001
2.437685e+003,2.804754e-001
2.441542e+003,2.827739e-001
2.445399e+003,2.816784e-001
2.449256e+003,2.780738e-001
2.453113e+003,2.749430e-001
2.456970e+003,2.726431e-001
2.460827e+003,2.738051e-001
2.464684e+003,2.764052e-001
2.468542e+003,2.754122e-001
2.472399e+003,2.731654e-001
2.476256e+003,2.728304e-001
2.480113e+003,2.732227e-001
2.483970e+003,2.735194e-001
2.487827e+003,2.746443e-001
2.491684e+003,2.768210e-001
2.495541e+003,2.780606e-001
2.499398e+003,2.767852e-001
2.503255e+003,2.764258e-001
2.507113e+003,2.767978e-001
2.510969e+003,2.763059e-001
2.514827e+003,2.763022e-001
2.518684e+003,2.777646e-001
2.522541e+003,2.788906e-001
2.526398e+003,2.802500e-001
2.530255e+003,2.809702e-001
2.534112e+003,2.836436e-001
2.537969e+003,2.829107e-001
2.541826e+003,2.785760e-001
2.545683e+003,2.783484e-001
2.549541e+003,2.806292e-001
2.553398e+003,2.809755e-001
2.557255e+003,2.811147e-001
2.561112e+003,2.823089e-001
2.564969e+003,2.845512e-001
2.568826e+003,2.861850e-001
2.572683e+003,2.881308e-001
2.576540e+003,2.927584e-001
2.580397e+003,2.945558e-001
2.584254e+003,2.944725e-001
2.588112e+003,2.971648e-001
2.591969e+003,3.011902e-001
2.595826e+003,3.008327e-001
2.599683e+003,3.020253e-001
2.603540e+003,3.058966e-001
2.607397e+003,3.067698e-001
2.611254e+003,3.077394e-001
2.615111e+003,3.125176e-001
2.618968e+003,3.151112e-001
2.622825e+003,3.151978e-001
2.626682e+003,3.149849e-001
2.630540e+003,3.173254e-001
2.634397e+003,3.192507e-001
2.638254e+003,3.208206e-001
2.642111e+003,3.246150e-001
2.645968e+003,3.277674e-001
2.649825e+003,3.304771e-001
2.653682e+003,3.329467e-001
2.657539e+003,3.324487e-001
2.661396e+003,3.333530e-001
2.665253e+003,3.386510e-001
2.669111e+003,3.414360e-001
2.672968e+003,3.455219e-001
2.676825e+003,3.487575e-001
2.680682e+003,3.532136e-001
2.684539e+003,3.584455e-001
2.688396e+003,3.592872e-001
2.692253e+003,3.588921e-001
2.696110e+003,3.636904e-001
2.699967e+003,3.676574e-001
2.703824e+003,3.672732e-001
2.707681e+003,3.708420e-001
2.711539e+003,3.758240e-001
2.715396e+003,3.769166e-001
2.719253e+003,3.814867e-001
2.723110e+003,3.861034e-001
2.726967e+003,3.888963e-001
2.730824e+003,3.933414e-001
2.734681e+003,3.950050e-001
2.738538e+003,3.972971e-001
2.742395e+003,4.024576e-001
2.746252e+003,4.050259e-001
2.750110e+003,4.076615e-001
2.753967e+003,4.140320e-001
2.757824e+003,4.201057e-001
2.761681e+003,4.201162e-001
2.765538e+003,4.213395e-001
2.769395e+003,4.286699e-001
2.773252e+003,4.335855e-001
2.777109e+003,4.362262e-001
2.780966e+003,4.413493e-001
2.784823e+003,4.433250e-001
2.788680e+003,4.425164e-001
2.792538e+003,4.506943e-001
2.796395e+003,4.564891e-001
2.800252e+003,4.592786e-001
2.804109e+003,4.631915e-001
2.807966e+003,4.700960e-001
2.811823e+003,4.737562e-001
2.815680e+003,4.752004e-001
2.819537e+003,4.802456e-001
2.823394e+003,4.868240e-001
2.827251e+003,4.933975e-001
2.831109e+003,4.961564e-001
2.834966e+003,4.979191e-001
2.838823e+003,5.049800e-001
2.842680e+003,5.078906e-001
2.846537e+003,5.098513e-001
2.850394e+003,5.148093e-001
2.854251e+003,5.239298e-001
2.858108e+003,5.326027e-001
2.861965e+003,5.353820e-001
2.865823e+003,5.423802e-001
2.869679e+003,5.504301e-001
2.873537e+003,5.526532e-001
2.877394e+003,5.562871e-001
2.881251e+003,5.629126e-001
2.885108e+003,5.669362e-001
2.888965e+003,5.687460e-001
2.892822e+003,5.763945e-001
2.896679e+003,5.855278e-001
2.900536e+003,5.878806e-001
2.904393e+003,5.876339e-001
2.908250e+003,5.947295e-001
2.912108e+003,5.989611e-001
2.915965e+003,6.052275e-001
2.919822e+003,6.128185e-001
2.923679e+003,6.184905e-001
2.927536e+003,6.201341e-001
2.931393e+003,6.232439e-001
2.935250e+003,6.333877e-001
2.939107e+003,6.447700e-001
2.942964e+003,6.484596e-001
2.946822e+003,6.513975e-001
2.950678e+003,6.575662e-001
2.954536e+003,6.630430e-001
2.958393e+003,6.717404e-001
2.962250e+003,6.767497e-001
2.966107e+003,6.829798e-001
2.969964e+003,6.970786e-001
2.973821e+003,7.009658e-001
2.977678e+003,7.026946e-001
2.981535e+003,7.035015e-001
2.985392e+003,7.086930e-001
2.989250e+003,7.159415e-001
2.993107e+003,7.221686e-001
2.996964e+003,7.273487e-001
3.000821e+003,7.337354e-001
3.004678e+003,7.391196e-001
3.008535e+003,7.480115e-001
3.012392e+003,7.563438e-001
3.016249e+003,7.608426e-001
3.020106e+003,7.663589e-001
3.023963e+003,7.687933e-001
3.027821e+003,7.770402e-001
3.031677e+003,7.927160e-001
3.035535e+003,8.081796e-001
3.039392e+003,8.102167e-001
3.043249e+003,8.063161e-001
3.047106e+003,8.195918e-001
3.050963e+003,8.320306e-001
3.054820e+003,8.313296e-001
3.058677e+003,8.326301e-001
3.062534e+003,8.460335e-001
3.066391e+003,8.565404e-001
3.070249e+003,8.673521e-001
3.074106e+003,8.807109e-001
3.077963e+003,8.808629e-001
3.081820e+003,8.798183e-001
3.085677e+003,8.931937e-001
3.089534e+003,9.083673e-001
3.093391e+003,9.175346e-001
3.097248e+003,9.191616e-001
3.101105e+003,9.255835e-001
3.104962e+003,9.286595e-001
3.108820e+003,9.352327e-001
3.112677e+003,9.475260e-001
3.116534e+003,9.638476e-001
3.120391e+003,9.750608e-001
3.124248e+003,9.768986e-001
3.128105e+003,9.861637e-001
3.131962e+003,9.967763e-001
3.135819e+003,9.999280e-001
3.139676e+003,1.004921e+000
3.143533e+003,1.026353e+000
3.147390e+003,1.034701e+000
3.151248e+003,1.040809e+000
3.155105e+003,1.049737e+000
3.158962e+003,1.057634e+000
3.162819e+003,1.054203e+000
3.166676e+003,1.055102e+000
3.170533e+003,1.062446e+000
3.174390e+003,1.076714e+000
3.178247e+003,1.078822e+000
3.182104e+003,1.091797e+000
3.185961e+003,1.124439e+000
3.189819e+003,1.129647e+000
3.193676e+003,1.125482e+000
3.197533e+003,1.133064e+000
3.201390e+003,1.132040e+000
3.205247e+003,1.158990e+000
3.209104e+003,1.157886e+000
3.212961e+003,1.132002e+000
3.216818e+003,1.158393e+000
3.220675e+003,1.160765e+000
3.224532e+003,1.144410e+000
3.228389e+003,1.167328e+000
3.232247e+003,1.192452e+000
3.236104e+003,1.212190e+000
3.239961e+003,1.208757e+000
3.243818e+003,1.207838e+000
3.247675e+003,1.219285e+000
3.251532e+003,1.212842e+000
3.255389e+003,1.231703e+000
3.259246e+003,1.264372e+000
3.263103e+003,1.274248e+000
3.266960e+003,1.258639e+000
3.270818e+003,1.255629e+000
3.274675e+003,1.263166e+000
3.278532e+003,1.284776e+000
3.282389e+003,1.299228e+000
3.286246e+003,1.279060e+000
3.290103e+003,1.266320e+000
3.293960e+003,1.287380e+000
3.297817e+003,1.284541e+000
3.301674e+003,1.289626e+000
3.305531e+003,1.332579e+000
3.309388e+003,1.347798e+000
3.313246e+003,1.337878e+000
3.317103e+003,1.320358e+000
3.320960e+003,1.319775e+000
3.324817e+003,1.343464e+000
3.328674e+003,1.329713e+000
3.332531e+003,1.337022e+000
3.336388e+003,1.346168e+000
3.340245e+003,1.333284e+000
3.344102e+003,1.350473e+000
3.347959e+003,1.346428e+000
3.351817e+003,1.335157e+000
3.355674e+003,1.341877e+000
3.359531e+003,1.359970e+000
3.363388e+003,1.401954e+000
3.367245e+003,1.431631e+000
3.371102e+003,1.431798e+000
3.374959e+003,1.454570e+000
3.378816e+003,1.491680e+000
3.382673e+003,1.483203e+000
3.386530e+003,1.457214e+000
3.390387e+003,1.426300e+000
3.394245e+003,1.426597e+000
3.398102e+003,1.440533e+000
3.401959e+003,1.466087e+000
3.405816e+003,1.484868e+000
3.409673e+003,1.464689e+000
3.413530e+003,1.447891e+000
3.417387e+003,1.477795e+000
3.421244e+003,1.509975e+000
3.425101e+003,1.434987e+000
3.428958e+003,1.414895e+000
3.432815e+003,1.494087e+000
3.436673e+003,1.532868e+000
3.440530e+003,1.523326e+000
3.444387e+003,1.499888e+000
3.448244e+003,1.486922e+000
3.452101e+003,1.469054e+000
3.455958e+003,1.470430e+000
3.459815e+003,1.509606e+000
3.463672e+003,1.556849e+000
3.467529e+003,1.562450e+000
3.471386e+003,1.522723e+000
3.475244e+003,1.534465e+000
3.479101e+003,1.534480e+000
3.482958e+003,1.509642e+000
3.486815e+003,1.504321e+000
3.490672e+003,1.480375e+000
3.494529e+003,1.473411e+000
3.498386e+003,1.501436e+000
3.502243e+003,1.500732e+000
3.506100e+003,1.484367e+000
3.509958e+003,1.533277e+000
3.513814e+003,1.589634e+000
3.517672e+003,1.612194e+000
3.521529e+003,1.568086e+000
3.525386e+003,1.533467e+000
3.529243e+003,1.545289e+000
3.533100e+003,1.500027e+000
3.536957e+003,1.471040e+000
3.540814e+003,1.498621e+000
3.544671e+003,1.525470e+000
3.548528e+003,1.506362e+000
3.552385e+003,1.458345e+000
3.556243e+003,1.447014e+000
3.560100e+003,1.466102e+000
3.563957e+003,1.493445e+000
3.567814e+003,1.440409e+000
3.571671e+003,1.436608e+000
3.575528e+003,1.451146e+000
3.579385e+003,1.409471e+000
3.583242e+003,1.389259e+000
3.587099e+003,1.363560e+000
3.590957e+003,1.340385e+000
3.594813e+003,1.316722e+000
3.598671e+003,1.306281e+000
3.602528e+003,1.268124e+000
3.606385e+003,1.196020e+000
3.610242e+003,1.148007e+000
3.614099e+003,1.119789e+000
3.617956e+003,1.064243e+000
3.621813e+003,1.016517e+000
3.625670e+003,9.622688e-001
3.629527e+003,9.086736e-001
3.633385e+003,8.547263e-001
3.637242e+003,7.929385e-001
3.641099e+003,7.250777e-001
3.644956e+003,6.728864e-001
3.648813e+003,6.220887e-001
3.652670e+003,5.680470e-001
3.656527e+003,5.198868e-001
3.660384e+003,4.779480e-001
3.664241e+003,4.415128e-001
3.668098e+003,4.052580e-001
3.671956e+003,3.759196e-001
3.675813e+003,3.510865e-001
3.679670e+003,3.234713e-001
3.683527e+003,2.989603e-001
3.687384e+003,2.813894e-001
3.691241e+003,2.678358e-001
3.695098e+003,2.570643e-001
3.698955e+003,2.498111e-001
3.702812e+003,2.389691e-001
3.706669e+003,2.298435e-001
3.710526e+003,2.244498e-001
3.714384e+003,2.130264e-001
3.718241e+003,2.067631e-001
3.722098e+003,2.038312e-001
3.725955e+003,1.992133e-001
3.729812e+003,1.937765e-001
3.733669e+003,1.876452e-001
3.737526e+003,1.857092e-001
3.741383e+003,1.881887e-001
3.745240e+003,1.872720e-001
3.749097e+003,1.815944e-001
3.752955e+003,1.789263e-001
3.756812e+003,1.795465e-001
3.760669e+003,1.805695e-001
3.764526e+003,1.812367e-001
3.768383e+003,1.809402e-001
3.772240e+003,1.806485e-001
3.776097e+003,1.797808e-001
3.779954e+003,1.773110e-001
3.783811e+003,1.748847e-001
3.787668e+003,1.733234e-001
3.791525e+003,1.729470e-001
3.795383e+003,1.718360e-001
3.799240e+003,1.730366e-001
3.803097e+003,1.731474e-001
3.806954e+003,1.689388e-001
3.810811e+003,1.659414e-001
3.814668e+003,1.641964e-001
3.818525e+003,1.656783e-001
3.822382e+003,1.660014e-001
3.826239e+003,1.651675e-001
3.830096e+003,1.649408e-001
3.833954e+003,1.653916e-001
3.837811e+003,1.667317e-001
3.841668e+003,1.664828e-001
3.845525e+003,1.639011e-001
3.849382e+003,1.641655e-001
3.853239e+003,1.647103e-001
3.857096e+003,1.652770e-001
3.860953e+003,1.678649e-001
3.864810e+003,1.680914e-001
3.868667e+003,1.681840e-001
3.872524e+003,1.700337e-001
3.876382e+003,1.694140e-001
3.880239e+003,1.683518e-001
3.884096e+003,1.662478e-001
3.887953e+003,1.659774e-001
3.891810e+003,1.661586e-001
3.895667e+003,1.651164e-001
3.899524e+003,1.617767e-001
3.903381e+003,1.595734e-001
3.907238e+003,1.616534e-001
3.911095e+003,1.639817e-001
3.914953e+003,1.636942e-001
3.918810e+003,1.622873e-001
3.922667e+003,1.621977e-001
3.926524e+003,1.647160e-001
3.930381e+003,1.622842e-001
3.934238e+003,1.614185e-001
3.938095e+003,1.630674e-001
3.941952e+003,1.643742e-001
3.945809e+003,1.673855e-001
3.949667e+003,1.706572e-001
3.953523e+003,1.691699e-001
3.957381e+003,1.693920e-001
3.961238e+003,1.690602e-001
3.965095e+003,1.675458e-001
3.968952e+003,1.678219e-001
3.972809e+003,1.693838e-001
3.976666e+003,1.712443e-001
3.980523e+003,1.719294e-001
3.984380e+003,1.739018e-001
3.988237e+003,1.718575e-001
3.992094e+003,1.650642e-001
3.995952e+003,1.618691e-001
3.999809e+003,1.623394e-001
4.003666e+003,1.639210e-001
4.007523e+003,1.637368e-001
4.011380e+003,1.607074e-001
4.015237e+003,1.616885e-001
4.019094e+003,1.633645e-001
4.022951e+003,1.657787e-001
4.026808e+003,1.654594e-001
4.030666e+003,1.663737e-001
4.034522e+003,1.685504e-001
4.038380e+003,1.665658e-001
4.042237e+003,1.623582e-001
4.046094e+003,1.643973e-001
4.049951e+003,1.682894e-001
4.053808e+003,1.691097e-001
4.057665e+003,1.677562e-001
4.061522e+003,1.682826e-001
4.065379e+003,1.650447e-001
4.069236e+003,1.631925e-001
4.073094e+003,1.603528e-001
4.076951e+003,1.600944e-001
4.080808e+003,1.629489e-001
4.084665e+003,1.623111e-001
4.088522e+003,1.577356e-001
4.092379e+003,1.534729e-001
4.096236e+003,1.568315e-001
4.100093e+003,1.589276e-001
4.103950e+003,1.587816e-001
4.107808e+003,1.630080e-001
4.111665e+003,1.634760e-001
4.115521e+003,1.621862e-001
4.119379e+003,1.620893e-001
4.123236e+003,1.605916e-001
4.127093e+003,1.601706e-001
4.130950e+003,1.614016e-001
4.134807e+003,1.626376e-001
4.138664e+003,1.623392e-001
4.142521e+003,1.614594e-001
4.146378e+003,1.599673e-001
4.150235e+003,1.620230e-001
4.154093e+003,1.611246e-001
4.157950e+003,1.580482e-001
4.161807e+003,1.612846e-001
4.165664e+003,1.624296e-001
4.169521e+003,1.587679e-001
4.173378e+003,1.612419e-001
4.177235e+003,1.605122e-001
4.181092e+003,1.570166e-001
4.184949e+003,1.556427e-001
4.188807e+003,1.544047e-001
4.192664e+003,1.541432e-001
4.196521e+003,1.523736e-001
4.200378e+003,1.539552e-001
4.204235e+003,1.563067e-001
4.208092e+003,1.569162e-001
4.211949e+003,1.561530e-001
4.215806e+003,1.537641e-001
4.219663e+003,1.524050e-001
4.223521e+003,1.542604e-001
4.227377e+003,1.549751e-001
4.231234e+003,1.561342e-001
4.235092e+003,1.585125e-001
4.238949e+003,1.610067e-001
4.242806e+003,1.604888e-001
4.246663e+003,1.601406e-001
4.250520e+003,1.609026e-001
4.254377e+003,1.592297e-001
4.258234e+003,1.573267e-001
4.262091e+003,1.553867e-001
4.265948e+003,1.550479e-001
4.269806e+003,1.602295e-001
4.273663e+003,1.608817e-001
4.277520e+003,1.544207e-001
4.281377e+003,1.495634e-001
4.285234e+003,1.518461e-001
4.289091e+003,1.547293e-001
4.292948e+003,1.593033e-001
4.296805e+003,1.595427e-001
4.300662e+003,1.546317e-001
4.304520e+003,1.546157e-001
4.308376e+003,1.533799e-001
4.312233e+003,1.512074e-001
4.316091e+003,1.505854e-001
4.319948e+003,1.531080e-001
4.323805e+003,1.556149e-001
4.327662e+003,1.573720e-001
4.331519e+003,1.560267e-001
4.335376e+003,1.572624e-001
4.339233e+003,1.587629e-001
4.343090e+003,1.601566e-001
4.346947e+003,1.616461e-001
4.350805e+003,1.603975e-001
4.354662e+003,1.610227e-001
4.358519e+003,1.629144e-001
4.362376e+003,1.621826e-001
4.366233e+003,1.625474e-001
4.370090e+003,1.616880e-001
4.373947e+003,1.592029e-001
4.377804e+003,1.602588e-001
4.381661e+003,1.588189e-001
4.385519e+003,1.588325e-001
4.389375e+003,1.599481e-001
4.393232e+003,1.588523e-001
4.397090e+003,1.632261e-001
4.400947e+003,1.665971e-001
4.404804e+003,1.624113e-001
4.408661e+003,1.604169e-001
4.412518e+003,1.632189e-001
4.416375e+003,1.663566e-001
4.420232e+003,1.680948e-001
4.424089e+003,1.684052e-001
4.427946e+003,1.687422e-001
4.431804e+003,1.683759e-001
4.435661e+003,1.685062e-001
4.439518e+003,1.678662e-001
4.443375e+003,1.636405e-001
4.447232e+003,1.652135e-001
4.451089e+003,1.650797e-001
4.454946e+003,1.612749e-001
4.458803e+003,1.613910e-001
4.462660e+003,1.660726e-001
4.466518e+003,1.672462e-001
4.470375e+003,1.663080e-001
4.474231e+003,1.656706e-001
4.478089e+003,1.642651e-001
4.481946e+003,1.655426e-001
4.485803e+003,1.668785e-001
4.489660e+003,1.641613e-001
4.493517e+003,1.638380e-001
4.497375e+003,1.634695e-001
4.501231e+003,1.643540e-001
4.505088e+003,1.643462e-001
4.508946e+003,1.600655e-001
4.512803e+003,1.627795e-001
4.516660e+003,1.669749e-001
4.520517e+003,1.649642e-001
4.524374e+003,1.676259e-001
4.528231e+003,1.755502e-001
4.532088e+003,1.749073e-001
4.535945e+003,1.693658e-001
4.539802e+003,1.679678e-001
4.543660e+003,1.679804e-001
4.547517e+003,1.660359e-001
4.551374e+003,1.643353e-001
4.555231e+003,1.636066e-001
4.559088e+003,1.621814e-001
4.562945e+003,1.624680e-001
4.566802e+003,1.624375e-001
4.570659e+003,1.670384e-001
4.574516e+003,1.703364e-001
4.578374e+003,1.689058e-001
4.582230e+003,1.637689e-001
4.586087e+003,1.647523e-001
4.589945e+003,1.662686e-001
4.593802e+003,1.608895e-001
4.597659e+003,1.613795e-001
4.601516e+003,1.629163e-001
4.605373e+003,1.612232e-001
4.609230e+003,1.603409e-001
4.613087e+003,1.616614e-001
4.616944e+003,1.612998e-001
4.620801e+003,1.634054e-001
4.624659e+003,1.633152e-001
4.628516e+003,1.638535e-001
4.632373e+003,1.602968e-001
4.636230e+003,1.585904e-001
4.640087e+003,1.623883e-001
4.643944e+003,1.651813e-001
4.647801e+003,1.648828e-001
4.651658e+003,1.616022e-001
4.655515e+003,1.578855e-001
4.659373e+003,1.613381e-001
4.663229e+003,1.655591e-001
4.667086e+003,1.648768e-001
4.670944e+003,1.635794e-001
4.674801e+003,1.628212e-001
4.678658e+003,1.616734e-001
4.682515e+003,1.608764e-001
4.686372e+003,1.620363e-001
4.690229e+003,1.687599e-001
4.694086e+003,1.651123e-001
4.697943e+003,1.567986e-001
4.701800e+003,1.552477e-001
4.705658e+003,1.555099e-001
4.709515e+003,1.633249e-001
4.713372e+003,1.650973e-001
4.717229e+003,1.613603e-001
4.721086e+003,1.609870e-001
4.724943e+003,1.627704e-001
4.728800e+003,1.645149e-001
4.732657e+003,1.656773e-001
4.736514e+003,1.650879e-001
4.740372e+003,1.625175e-001
4.744229e+003,1.610887e-001
4.748085e+003,1.645082e-001
4.751943e+003,1.639424e-001
4.755800e+003,1.640316e-001
4.759657e+003,1.629715e-001
4.763514e+003,1.631467e-001
4.767371e+003,1.627503e-001
4.771228e+003,1.640999e-001
4.775085e+003,1.663238e-001
4.778942e+003,1.666721e-001
4.782799e+003,1.663850e-001
4.786657e+003,1.662811e-001
4.790514e+003,1.687441e-001
4.794371e+003,1.712483e-001
4.798228e+003,1.730793e-001
4.802085e+003,1.723682e-001
4.805942e+003,1.682430e-001
4.809799e+003,1.686080e-001
4.813656e+003,1.667857e-001
4.817513e+003,1.644014e-001
4.821371e+003,1.658937e-001
4.825228e+003,1.704451e-001
4.829084e+003,1.721372e-001
4.832942e+003,1.764814e-001
4.836799e+003,1.751480e-001
4.840656e+003,1.670185e-001
4.844513e+003,1.590750e-001
4.848370e+003,1.617485e-001
4.852227e+003,1.679153e-001
4.856084e+003,1.755302e-001
4.859941e+003,1.680645e-001
4.863798e+003,1.611417e-001
4.867656e+003,1.624465e-001
4.871513e+003,1.674659e-001
4.875370e+003,1.698684e-001
4.879227e+003,1.689688e-001
4.883084e+003,1.665808e-001
4.886941e+003,1.652533e-001
4.890798e+003,1.660560e-001
4.894655e+003,1.681265e-001
4.898512e+003,1.736783e-001
4.902370e+003,1.737382e-001
4.906227e+003,1.700836e-001
4.910083e+003,1.688007e-001
4.913941e+003,1.725453e-001
4.917798e+003,1.724140e-001
4.921655e+003,1.743755e-001
4.925512e+003,1.743525e-001
4.929369e+003,1.733352e-001
4.933226e+003,1.700230e-001
4.937083e+003,1.716761e-001
4.940940e+003,1.728080e-001
4.944797e+003,1.775820e-001
4.948655e+003,1.776292e-001
4.952512e+003,1.699097e-001
4.956369e+003,1.632300e-001
4.960226e+003,1.632856e-001
4.964083e+003,1.718040e-001
4.967940e+003,1.704225e-001
4.971797e+003,1.694982e-001
4.975654e+003,1.732227e-001
4.979511e+003,1.715884e-001
4.983369e+003,1.701266e-001
4.987226e+003,1.711944e-001
4.991083e+003,1.673295e-001
4.994940e+003,1.633683e-001
4.998797e+003,1.682284e-001
5.002654e+003,1.669201e-001
5.006511e+003,1.666289e-001
5.010368e+003,1.650621e-001
5.014225e+003,1.684722e-001
5.018083e+003,1.695715e-001
5.021939e+003,1.745091e-001
5.025796e+003,1.761866e-001
5.029654e+003,1.709013e-001
5.033511e+003,1.704822e-001
5.037368e+003,1.776727e-001
5.041225e+003,1.809473e-001
5.045082e+003,1.754887e-001
5.048939e+003,1.743203e-001
5.052796e+003,1.719683e-001
5.056653e+003,1.731719e-001
5.060510e+003,1.785484e-001
5.064368e+003,1.836938e-001
5.068225e+003,1.816356e-001
5.072082e+003,1.768247e-001
5.075939e+003,1.748384e-001
5.079796e+003,1.788545e-001
5.083653e+003,1.797572e-001
5.087510e+003,1.779952e-001
5.091367e+003,1.775812e-001
5.095224e+003,1.747272e-001
5.099082e+003,1.774736e-001
5.102938e+003,1.845500e-001
5.106795e+003,1.806922e-001
5.110653e+003,1.716433e-001
5.114510e+003,1.703999e-001
5.118367e+003,1.688270e-001
5.122224e+003,1.748716e-001
5.126081e+003,1.773627e-001
5.129938e+003,1.739957e-001
5.133795e+003,1.798522e-001
5.137652e+003,1.828556e-001
5.141509e+003,1.840967e-001
5.145367e+003,1.807143e-001
5.149224e+003,1.762781e-001
5.153081e+003,1.731752e-001
5.156938e+003,1.767920e-001
5.160795e+003,1.794479e-001
5.164652e+003,1.773402e-001
5.168509e+003,1.815393e-001
5.172366e+003,1.813797e-001
5.176223e+003,1.802143e-001
5.180081e+003,1.841715e-001
5.183938e+003,1.891509e-001
5.187794e+003,1.892557e-001
5.191652e+003,1.841889e-001
5.195509e+003,1.807018e-001
5.199366e+003,1.871993e-001
5.203223e+003,1.898490e-001
5.207080e+003,1.834824e-001
5.210937e+003,1.803779e-001
5.214794e+003,1.818539e-001
5.218651e+003,1.825410e-001
5.222508e+003,1.826091e-001
5.226366e+003,1.843416e-001
5.230223e+003,1.879762e-001
5.234080e+003,1.846863e-001
5.237937e+003,1.826175e-001
5.241794e+003,1.808048e-001
5.245651e+003,1.782427e-001
5.249508e+003,1.764091e-001
5.253365e+003,1.722800e-001
5.257222e+003,1.757131e-001
5.261080e+003,1.797010e-001
5.264937e+003,1.758483e-001
5.268793e+003,1.694570e-001
5.272651e+003,1.697400e-001
5.276508e+003,1.769277e-001
5.280365e+003,1.769025e-001
5.284222e+003,1.738800e-001
5.288079e+003,1.719147e-001
5.291936e+003,1.694764e-001
5.295793e+003,1.687974e-001
5.299650e+003,1.717417e-001
5.303507e+003,1.760591e-001
5.307365e+003,1.762248e-001
5.311222e+003,1.753651e-001
5.315079e+003,1.711397e-001
5.318936e+003,1.727848e-001
5.322793e+003,1.774450e-001
5.326650e+003,1.788708e-001
5.330507e+003,1.744415e-001
5.334364e+003,1.742507e-001
5.338221e+003,1.809124e-001
5.342079e+003,1.771356e-001
5.345936e+003,1.706178e-001
5.349792e+003,1.805378e-001
5.353650e+003,1.872286e-001
5.357507e+003,1.784708e-001
5.361364e+003,1.732734e-001
5.365221e+003,1.746654e-001
5.369078e+003,1.759670e-001
5.372935e+003,1.745766e-001
5.376792e+003,1.729489e-001
5.380649e+003,1.756826e-001
5.384506e+003,1.692413e-001
5.388364e+003,1.648846e-001
5.392221e+003,1.619750e-001
5.396078e+003,1.662287e-001
5.399935e+003,1.711856e-001
5.403792e+003,1.772743e-001
5.407649e+003,1.795181e-001
5.411506e+003,1.732968e-001
5.415363e+003,1.667542e-001
5.419220e+003,1.695640e-001
5.423078e+003,1.723797e-001
5.426935e+003,1.780594e-001
5.430792e+003,1.774666e-001
5.434649e+003,1.754227e-001
5.438506e+003,1.768776e-001
5.442363e+003,1.732867e-001
5.446220e+003,1.722416e-001
5.450077e+003,1.744209e-001
5.453934e+003,1.732441e-001
5.457792e+003,1.725463e-001
5.461648e+003,1.781542e-001
5.465505e+003,1.788818e-001
5.469363e+003,1.744176e-001
5.473220e+003,1.722219e-001
5.477077e+003,1.747564e-001
5.480934e+003,1.814455e-001
5.484791e+003,1.843898e-001
5.488648e+003,1.803960e-001
5.492505e+003,1.766267e-001
5.496362e+003,1.802249e-001
5.500219e+003,1.817385e-001
5.504077e+003,1.761086e-001
5.507934e+003,1.752415e-001
5.511791e+003,1.826923e-001
5.515648e+003,1.774369e-001
5.519505e+003,1.673086e-001
5.523362e+003,1.671573e-001
5.527219e+003,1.777800e-001
5.531076e+003,1.886490e-001
5.534933e+003,1.910898e-001
5.538791e+003,1.859374e-001
5.542647e+003,1.817976e-001
5.546504e+003,1.817652e-001
5.550362e+003,1.800524e-001
5.554219e+003,1.831772e-001
5.558076e+003,1.862384e-001
5.561933e+003,1.760834e-001
5.565790e+003,1.677597e-001
5.569647e+003,1.722473e-001
5.573504e+003,1.836493e-001
5.577361e+003,1.816051e-001
5.581218e+003,1.790692e-001
5.585076e+003,1.819287e-001
5.588933e+003,1.837962e-001
5.592790e+003,1.770794e-001
5.596647e+003,1.737919e-001
5.600504e+003,1.763591e-001
5.604361e+003,1.733389e-001
5.608218e+003,1.704021e-001
5.612075e+003,1.727789e-001
5.615932e+003,1.804372e-001
5.619790e+003,1.807985e-001
5.623646e+003,1.829384e-001
5.627503e+003,1.834076e-001
5.631361e+003,1.733876e-001
5.635218e+003,1.697340e-001
5.639075e+003,1.769493e-001
5.642932e+003,1.780452e-001
5.646789e+003,1.792908e-001
5.650646e+003,1.783923e-001
5.654503e+003,1.717203e-001
5.658360e+003,1.748049e-001
5.662217e+003,1.774991e-001
5.666075e+003,1.705502e-001
5.669932e+003,1.733245e-001
5.673789e+003,1.807452e-001
5.677646e+003,1.736139e-001
5.681503e+003,1.659781e-001
5.685360e+003,1.745966e-001
5.689217e+003,1.826714e-001
5.693074e+003,1.844732e-001
5.696931e+003,1.775110e-001
5.700789e+003,1.672152e-001
5.704646e+003,1.703567e-001
5.708502e+003,1.822774e-001
5.712360e+003,1.845268e-001
5.716217e+003,1.753328e-001
5.720074e+003,1.680151e-001
5.723931e+003,1.709316e-001
5.727788e+003,1.736514e-001
5.731645e+003,1.785647e-001
5.735502e+003,1.769612e-001
5.739359e+003,1.735259e-001
5.743216e+003,1.712728e-001
5.747074e+003,1.707032e-001
5.750931e+003,1.808845e-001
5.754788e+003,1.820711e-001
5.758645e+003,1.767952e-001
5.762502e+003,1.692961e-001
5.766359e+003,1.699341e-001
5.770216e+003,1.750057e-001
5.774073e+003,1.718396e-001
5.777930e+003,1.721450e-001
5.781788e+003,1.753093e-001
5.785645e+003,1.734256e-001
5.789501e+003,1.721834e-001
5.793359e+003,1.767859e-001
5.797216e+003,1.734701e-001
5.801073e+003,1.695633e-001
5.804930e+003,1.789651e-001
5.808787e+003,1.835471e-001
5.812644e+003,1.845159e-001
5.816501e+003,1.842596e-001
5.820358e+003,1.750303e-001
5.824215e+003,1.667677e-001
5.828073e+003,1.656660e-001
5.831930e+003,1.707780e-001
5.835787e+003,1.785116e-001
5.839644e+003,1.751677e-001
5.843501e+003,1.709637e-001
5.847358e+003,1.679554e-001
5.851215e+003,1.695871e-001
5.855072e+003,1.721010e-001
5.858929e+003,1.800225e-001
5.862787e+003,1.808093e-001
5.866644e+003,1.778827e-001
5.870500e+003,1.760998e-001
5.874358e+003,1.774273e-001
5.878215e+003,1.825041e-001
5.882072e+003,1.734503e-001
5.885929e+003,1.644127e-001
5.889786e+003,1.690251e-001
5.893643e+003,1.811325e-001
5.897500e+003,1.854940e-001
5.901357e+003,1.787848e-001
5.905214e+003,1.676358e-001
5.909072e+003,1.736728e-001
5.912929e+003,1.795398e-001
5.916786e+003,1.862440e-001
5.920643e+003,1.783096e-001
5.924500e+003,1.690889e-001
5.928357e+003,1.739952e-001
5.932214e+003,1.784367e-001
5.936071e+003,1.734611e-001
5.939928e+003,1.727303e-001
5.943786e+003,1.708388e-001
5.947643e+003,1.711011e-001
5.951500e+003,1.744046e-001
5.955357e+003,1.760295e-001
5.959214e+003,1.713273e-001
5.963071e+003,1.712768e-001
5.966928e+003,1.849469e-001
5.970785e+003,1.848244e-001
5.974642e+003,1.643349e-001
5.978500e+003,1.582985e-001
5.982356e+003,1.565505e-001
5.986213e+003,1.606198e-001
5.990071e+003,1.760051e-001
5.993928e+003,1.779234e-001
5.997785e+003,1.726714e-001
6.001642e+003,1.733160e-001
6.005499e+003,1.744275e-001
6.009356e+003,1.719320e-001
6.013213e+003,1.782493e-001
6.017070e+003,1.877946e-001
6.020927e+003,1.788802e-001
6.024785e+003,1.714878e-001
6.028642e+003,1.752787e-001
6.032499e+003,1.829081e-001
6.036356e+003,1.883429e-001
6.040213e+003,1.901069e-001
6.044070e+003,1.895543e-001
6.047927e+003,1.863149e-001
6.051784e+003,1.746904e-001
6.055641e+003,1.702665e-001
6.059499e+003,1.641527e-001
6.063355e+003,1.720415e-001
6.067212e+003,1.809436e-001
6.071070e+003,1.746899e-001
6.074927e+003,1.698552e-001
6.078784e+003,1.711023e-001
6.082641e+003,1.751367e-001
6.086498e+003,1.828492e-001
6.090355e+003,1.852946e-001
6.094212e+003,1.808675e-001
6.098069e+003,1.724655e-001
6.101926e+003,1.740039e-001
6.105784e+003,1.767851e-001
6.109641e+003,1.722531e-001
6.113498e+003,1.669728e-001
6.117355e+003,1.730509e-001
6.121212e+003,1.798327e-001
6.125069e+003,1.806432e-001
6.128926e+003,1.913069e-001
6.132783e+003,1.949844e-001
6.136640e+003,1.823072e-001
6.140498e+003,1.743084e-001
6.144354e+003,1.797260e-001
6.148211e+003,1.902638e-001
6.152069e+003,1.816021e-001
6.155926e+003,1.699727e-001
6.159783e+003,1.633095e-001
6.163640e+003,1.590180e-001
6.167497e+003,1.648861e-001
6.171354e+003,1.791834e-001
6.175211e+003,1.885942e-001
6.179068e+003,1.738880e-001
6.182925e+003,1.703414e-001
6.186783e+003,1.804178e-001
6.190640e+003,1.760107e-001
6.194497e+003,1.698608e-001
6.198354e+003,1.683395e-001
6.202211e+003,1.734170e-001
6.206068e+003,1.739920e-001
6.209925e+003,1.646683e-001
6.213782e+003,1.740088e-001
6.217639e+003,1.851386e-001
6.221497e+003,1.857291e-001
6.225354e+003,1.850666e-001
6.229210e+003,1.787056e-001
6.233068e+003,1.738043e-001
6.236925e+003,1.749789e-001
6.240782e+003,1.694459e-001
6.244639e+003,1.701342e-001
6.248496e+003,1.791953e-001
6.252353e+003,1.792018e-001
6.256210e+003,1.691731e-001
6.260067e+003,1.697635e-001
6.263924e+003,1.826094e-001
6.267782e+003,1.825700e-001
6.271639e+003,1.762921e-001
6.275496e+003,1.870832e-001
6.279353e+003,1.860441e-001
6.283210e+003,1.778918e-001
6.287067e+003,1.834324e-001
6.290924e+003,1.871766e-001
6.294781e+003,1.674671e-001
6.298638e+003,1.685048e-001
6.302496e+003,1.889388e-001
6.306353e+003,1.873121e-001
6.310209e+003,1.696041e-001
6.314067e+003,1.676254e-001
6.317924e+003,1.596866e-001
6.321781e+003,1.614191e-001
6.325638e+003,1.705957e-001
6.329495e+003,1.671208e-001
6.333352e+003,1.655350e-001
6.337209e+003,1.702301e-001
6.341066e+003,1.765231e-001
6.344923e+003,1.823121e-001
6.348780e+003,1.816831e-001
6.352638e+003,1.741191e-001
6.356495e+003,1.608568e-001
6.360352e+003,1.739264e-001
6.364209e+003,1.910580e-001
6.368066e+003,1.801099e-001
6.371923e+003,1.770695e-001
6.375780e+003,1.942519e-001
6.379637e+003,1.853556e-001
6.383494e+003,1.825982e-001
6.387352e+003,1.876514e-001
6.391208e+003,1.836967e-001
6.395065e+003,1.758614e-001
6.398923e+003,1.777440e-001
6.402780e+003,1.843944e-001
6.406637e+003,1.818544e-001
6.410494e+003,1.668260e-001
6.414351e+003,1.632899e-001
6.418208e+003,1.759914e-001
6.422065e+003,1.842544e-001
6.425922e+003,1.824992e-001
6.429779e+003,1.783657e-001
6.433637e+003,1.861290e-001
6.437494e+003,1.855894e-001
6.441351e+003,1.893125e-001
6.445208e+003,1.929456e-001
6.449065e+003,1.822210e-001
6.452922e+003,1.698338e-001
6.456779e+003,1.654328e-001
6.460636e+003,1.601911e-001
6.464493e+003,1.712132e-001
6.468351e+003,1.827773e-001
6.472208e+003,1.805371e-001
6.476064e+003,1.790582e-001
6.479922e+003,1.823003e-001
6.483779e+003,1.721346e-001
6.487636e+003,1.668072e-001
6.491493e+003,1.683429e-001
6.495350e+003,1.732808e-001
6.499207e+003,1.911222e-001
6.503064e+003,1.890440e-001
6.506921e+003,1.808956e-001
6.510778e+003,1.878129e-001
6.514636e+003,1.884042e-001
6.518493e+003,1.886668e-001
6.522350e+003,1.893953e-001
6.526207e+003,1.864990e-001
6.530064e+003,1.823210e-001
6.533921e+003,1.876901e-001
6.537778e+003,1.731971e-001
6.541635e+003,1.670483e-001
6.545492e+003,1.728648e-001
6.549350e+003,1.812540e-001
6.553207e+003,1.790434e-001
6.557063e+003,1.703111e-001
6.560921e+003,1.673485e-001
6.564778e+003,1.637828e-001
6.568635e+003,1.680892e-001
6.572492e+003,1.668002e-001
6.576349e+003,1.664738e-001
6.580206e+003,1.661967e-001
6.584063e+003,1.673550e-001
6.587920e+003,1.752989e-001
6.591777e+003,1.745631e-001
6.595635e+003,1.849192e-001
6.599492e+003,1.908045e-001
6.603349e+003,1.738043e-001
6.607206e+003,1.791826e-001
6.611063e+003,1.855557e-001
6.614920e+003,1.702495e-001
6.618777e+003,1.714863e-001
6.622634e+003,1.803652e-001
6.626491e+003,1.797875e-001
6.630349e+003,1.768648e-001
6.634206e+003,1.675280e-001
6.638063e+003,1.624271e-001
6.641920e+003,1.663505e-001
6.645777e+003,1.828980e-001
6.649634e+003,1.886981e-001
6.653491e+003,1.855869e-001
6.657348e+003,1.791598e-001
6.661205e+003,1.738564e-001
6.665063e+003,1.689464e-001
6.668919e+003,1.476691e-001
6.672776e+003,1.539493e-001
6.676634e+003,1.721970e-001
6.680491e+003,1.971464e-001
6.684348e+003,2.242997e-001
6.688205e+003,2.134766e-001
6.692062e+003,2.056917e-001
6.695919e+003,2.263946e-001
6.699776e+003,2.247424e-001
6.703633e+003,2.059234e-001
6.707490e+003,1.809583e-001
6.711348e+003,1.665350e-001
6.715205e+003,1.629643e-001
6.719062e+003,1.666084e-001
6.722919e+003,1.793465e-001
6.726776e+003,1.715630e-001
6.730633e+003,1.603186e-001
6.734490e+003,1.766610e-001
6.738347e+003,1.775669e-001
6.742204e+003,1.836577e-001
6.746062e+003,1.923738e-001
6.749918e+003,1.793961e-001
6.753775e+003,1.682640e-001
6.757633e+003,1.826438e-001
6.761490e+003,1.881882e-001
6.765347e+003,1.859915e-001
6.769204e+003,1.819895e-001
6.773061e+003,1.836755e-001
6.776918e+003,1.875755e-001
6.780775e+003,1.784016e-001
6.784632e+003,1.917059e-001
6.788489e+003,2.119705e-001
6.792347e+003,1.925453e-001
6.796204e+003,1.789141e-001
6.800061e+003,1.790165e-001
6.803918e+003,1.801069e-001
6.807775e+003,2.017983e-001
6.811632e+003,2.020528e-001
6.815489e+003,1.945631e-001
6.819346e+003,1.877549e-001
6.823203e+003,1.752606e-001
6.827061e+003,1.817897e-001
6.830917e+003,1.892015e-001
6.834774e+003,1.777062e-001
6.838632e+003,1.787951e-001
6.842489e+003,1.864368e-001
6.846346e+003,1.717053e-001
6.850203e+003,1.831942e-001
6.854060e+003,1.970737e-001
6.857917e+003,1.856199e-001
6.861774e+003,1.767501e-001
6.865631e+003,1.674611e-001
6.869488e+003,1.730193e-001
6.873346e+003,1.781977e-001
6.877203e+003,1.757598e-001
6.881060e+003,1.962688e-001
6.884917e+003,1.968316e-001
6.888774e+003,1.866298e-001
6.892631e+003,1.945480e-001
6.896488e+003,1.988764e-001
6.900345e+003,1.982163e-001
6.904202e+003,1.957868e-001
6.908060e+003,1.662513e-001
6.911917e+003,1.855142e-001
6.915773e+003,2.112461e-001
6.919631e+003,1.964586e-001
6.923488e+003,1.741914e-001
6.927345e+003,1.875697e-001
6.931202e+003,2.064341e-001
6.935059e+003,2.022700e-001
6.938916e+003,1.887004e-001
6.942773e+003,2.131277e-001
6.946630e+003,2.310187e-001
6.950487e+003,2.190454e-001
6.954345e+003,2.062946e-001
6.958202e+003,1.882999e-001
6.962059e+003,1.850523e-001
6.965916e+003,1.849061e-001
6.969773e+003,1.659069e-001
6.973630e+003,1.879071e-001
6.977487e+003,1.872603e-001
6.981344e+003,1.856772e-001
6.985201e+003,1.922971e-001
6.989059e+003,1.909032e-001
6.992916e+003,1.845782e-001
6.996772e+003,1.765255e-001
7.000630e+003,1.605216e-001
7.004487e+003,1.564247e-001
7.008344e+003,1.758907e-001
7.012201e+003,1.975835e-001
7.016058e+003,1.922708e-001
7.019915e+003,1.694332e-001
7.023772e+003,1.657589e-001
7.027629e+003,1.958127e-001
7.031486e+003,2.123947e-001
7.035344e+003,1.979582e-001
7.039201e+003,1.879121e-001
7.043058e+003,1.828262e-001
7.046915e+003,1.867130e-001
7.050772e+003,1.893296e-001
7.054629e+003,1.870063e-001
7.058486e+003,1.901263e-001
7.062343e+003,1.997527e-001
7.066200e+003,2.049251e-001
7.070058e+003,2.051320e-001
7.073915e+003,1.920331e-001
7.077771e+003,1.864551e-001
7.081629e+003,1.847283e-001
7.085486e+003,1.967156e-001
7.089343e+003,1.919525e-001
7.093200e+003,1.870566e-001
7.097057e+003,2.002143e-001
7.100914e+003,1.977969e-001
7.104771e+003,1.934670e-001
7.108628e+003,1.721194e-001
7.112485e+003,1.603188e-001
7.116343e+003,1.917447e-001
7.120200e+003,2.157392e-001
7.124057e+003,1.857369e-001
7.127914e+003,1.376860e-001
7.131771e+003,1.431181e-001
7.135628e+003,1.691517e-001
7.139485e+003,1.937969e-001
7.143342e+003,2.075100e-001
7.147199e+003,2.214457e-001
7.151057e+003,2.225923e-001
7.154914e+003,1.957057e-001
7.158771e+003,1.879723e-001
7.162628e+003,2.059410e-001
7.166485e+003,2.009615e-001
7.170342e+003,1.864795e-001
7.174199e+003,1.814591e-001
7.178056e+003,1.698203e-001
7.181913e+003,1.852178e-001
7.185771e+003,2.073310e-001
7.189627e+003,2.023743e-001
7.193484e+003,1.966788e-001
7.197342e+003,1.838552e-001
7.201199e+003,1.531507e-001
7.205056e+003,1.551567e-001
7.208913e+003,1.557929e-001
7.212770e+003,1.813766e-001
7.216627e+003,2.086239e-001
7.220484e+003,1.976239e-001
7.224341e+003,2.075527e-001
7.228198e+003,2.159585e-001
7.232056e+003,1.871085e-001
7.235913e+003,1.748992e-001
7.239770e+003,1.859572e-001
7.243627e+003,1.919861e-001
7.247484e+003,2.048873e-001
7.251341e+003,2.135195e-001
7.255198e+003,1.896131e-001
7.259055e+003,1.956375e-001
7.262912e+003,2.176811e-001
7.266770e+003,2.131332e-001
7.270626e+003,2.038051e-001
7.274483e+003,2.095912e-001
7.278341e+003,1.934691e-001
7.282198e+003,1.889952e-001
7.286055e+003,2.033641e-001
7.289912e+003,1.968590e-001
7.293769e+003,2.053964e-001
7.297626e+003,2.121749e-001
7.301483e+003,2.129409e-001
7.305340e+003,1.871249e-001
7.309197e+003,1.978366e-001
7.313055e+003,2.014177e-001
7.316912e+003,1.738987e-001
7.320769e+003,1.792791e-001
7.324626e+003,2.209358e-001
7.328483e+003,2.144629e-001
7.332340e+003,2.188869e-001
7.336197e+003,2.419804e-001
7.340054e+003,2.301567e-001
7.343911e+003,2.214615e-001
7.347769e+003,1.997171e-001
7.351625e+003,1.970062e-001
7.355482e+003,1.946307e-001
7.359340e+003,1.764789e-001
7.363197e+003,1.649866e-001
7.367054e+003,1.790135e-001
7.370911e+003,2.022260e-001
7.374768e+003,2.229269e-001
7.378625e+003,2.307667e-001
7.382482e+003,2.239593e-001
7.386339e+003,1.967319e-001
7.390196e+003,1.769557e-001
7.394054e+003,1.901716e-001
7.397911e+003,2.106888e-001
7.401768e+003,1.834439e-001
7.405625e+003,2.011659e-001
7.409482e+003,2.322608e-001
7.413339e+003,2.107096e-001
7.417196e+003,2.139906e-001
7.421053e+003,2.301540e-001
7.424910e+003,2.322888e-001
7.428768e+003,2.359059e-001
7.432625e+003,2.029515e-001
7.436481e+003,1.660003e-001
7.440339e+003,1.671521e-001
7.444196e+003,1.875040e-001
7.448053e+003,1.987223e-001
7.451910e+003,2.070395e-001
7.455767e+003,1.850551e-001
7.459624e+003,1.808369e-001
7.463481e+003,2.147968e-001
7.467338e+003,2.200181e-001
7.471195e+003,1.743492e-001
7.475053e+003,1.376129e-001
7.478910e+003,1.665374e-001
7.482767e+003,2.077783e-001
7.486624e+003,2.092070e-001
7.490481e+003,1.862244e-001
7.494338e+003,1.781777e-001
7.498195e+003,2.140193e-001
7.502052e+003,1.917869e-001
7.505909e+003,1.770019e-001
7.509767e+003,2.211519e-001
7.513624e+003,2.185413e-001
7.517480e+003,2.242194e-001
7.521338e+003,2.165413e-001
7.525195e+003,1.720057e-001
7.529052e+003,1.732416e-001
7.532909e+003,2.177996e-001
7.536766e+003,2.216875e-001
7.540623e+003,2.234996e-001
7.544480e+003,2.100985e-001
7.548337e+003,2.222919e-001
7.552194e+003,2.189829e-001
7.556052e+003,1.996861e-001
7.559909e+003,1.868982e-001
7.563766e+003,2.014689e-001
7.567623e+003,2.234996e-001
7.571480e+003,2.090085e-001
7.575337e+003,1.773657e-001
7.579194e+003,1.373627e-001
7.583051e+003,1.695816e-001
7.586908e+003,1.901755e-001
7.590766e+003,1.701649e-001
7.594623e+003,1.748409e-001
7.598479e+003,1.633439e-001
7.602337e+003,1.484531e-001
7.606194e+003,1.578298e-001
7.610051e+003,1.671110e-001
7.613908e+003,1.758962e-001
7.617765e+003,1.553074e-001
7.621622e+003,1.025841e-001
7.625479e+003,1.279143e-001
7.629336e+003,2.056747e-001
7.633193e+003,2.463516e-001
7.637051e+003,2.295789e-001
7.640908e+003,2.471600e-001
7.644765e+003,2.852114e-001
7.648622e+003,2.811309e-001
7.652479e+003,2.854946e-001
7.656336e+003,2.915708e-001
7.660193e+003,2.251885e-001
7.664050e+003,1.804489e-001
7.667907e+003,2.111043e-001
7.671765e+003,2.643608e-001
7.675622e+003,2.561764e-001
7.679479e+003,2.144984e-001
7.683336e+003,2.152404e-001
7.687193e+003,2.442796e-001
7.691050e+003,2.820722e-001
7.694907e+003,1.968551e-001
7.698764e+003,1.615247e-001
7.702621e+003,1.580684e-001
7.706479e+003,1.453097e-001
7.710335e+003,1.911063e-001
7.714192e+003,2.324833e-001
7.718050e+003,2.371005e-001
7.721907e+003,2.132056e-001
7.725764e+003,2.197915e-001
7.729621e+003,1.782529e-001
7.733478e+003,1.581136e-001
7.737335e+003,1.979508e-001
7.741192e+003,1.910578e-001
7.745049e+003,2.036575e-001
7.748906e+003,2.311030e-001
7.752764e+003,2.272186e-001
7.756621e+003,2.557578e-001
7.760478e+003,2.365538e-001
7.764335e+003,2.094608e-001
7.768192e+003,1.877169e-001
7.772049e+003,2.018245e-001
7.775906e+003,2.079654e-001
7.779763e+003,1.561329e-001
7.783620e+003,8.683821e-002
7.787478e+003,6.871714e-002
7.791334e+003,9.559613e-002
7.795191e+003,1.221885e-001
7.799049e+003,1.267031e-001
7.802906e+003,1.057149e-001
7.806763e+003,1.293225e-001
7.810620e+003,1.566452e-001
7.814477e+003,1.327716e-001
7.818334e+003,1.814421e-001
7.822191e+003,2.001424e-001
7.826048e+003,1.769934e-001
7.829905e+003,1.931959e-001
7.833763e+003,1.576470e-001
7.837620e+003,1.329797e-001
7.841477e+003,2.256077e-001
7.845334e+003,2.112831e-001
7.849191e+003,1.468510e-001
7.853048e+003,1.067315e-001
7.856905e+003,1.744045e-001
7.860762e+003,1.798443e-001
7.864619e+003,9.413358e-002
7.868477e+003,1.206579e-001
7.872333e+003,1.859130e-001
7.876190e+003,2.058717e-001
7.880048e+003,1.773870e-001
7.883905e+003,2.203379e-001
7.887762e+003,2.807627e-001
7.891619e+003,2.424250e-001
7.895476e+003,2.114158e-001
7.899333e+003,2.730488e-001
7.903190e+003,3.366327e-001
7.907047e+003,3.008369e-001
7.910904e+003,2.533435e-001
7.914762e+003,3.020329e-001
7.918619e+003,2.397274e-001
7.922476e+003,1.966320e-001
7.926333e+003,2.062363e-001
7.930190e+003,2.299926e-001
7.934047e+003,2.875661e-001
7.937904e+003,2.331971e-001
7.941761e+003,2.661883e-001
7.945618e+003,2.874309e-001
7.949476e+003,2.589700e-001
7.953333e+003,3.252280e-001
7.957189e+003,3.645426e-001
7.961047e+003,2.127155e-001
7.964904e+003,1.074468e-001
7.968761e+003,1.928272e-001
7.972618e+003,3.180579e-001
7.976475e+003,2.536299e-001
7.980332e+003,1.383860e-001
7.984189e+003,2.167719e-001
7.988046e+003,2.558653e-001
7.991903e+003,2.747628e-001
7.995761e+003,2.589629e-001
7.999618e+003,2.036178e-001
