4.011380e+002,6.000000e+000
4.049951e+002,6.000000e+000
4.088522e+002,6.000000e+000
4.127093e+002,3.266981e-003
4.165664e+002,-7.833858e-001
4.204235e+002,6.000000e+000
4.242806e+002,6.000000e+000
4.281377e+002,-9.527420e-001
4.319948e+002,6.000000e+000
4.358519e+002,6.000000e+000
4.397090e+002,6.000000e+000
4.435661e+002,6.000000e+000
4.474232e+002,6.000000e+000
4.512803e+002,6.000000e+000
4.551374e+002,1.347900e-002
4.589945e+002,6.000000e+000
4.628516e+002,-1.285343e-001
4.667087e+002,6.000000e+000
4.705658e+002,6.000000e+000
4.744229e+002,6.000000e+000
4.782800e+002,6.000000e+000
4.821371e+002,6.000000e+000
4.859941e+002,4.482808e-001
4.898513e+002,9.250510e-002
4.937083e+002,5.580949e-001
4.975654e+002,1.202242e+000
5.014225e+002,1.915527e-001
5.052796e+002,1.591899e+000
5.091367e+002,6.000000e+000
5.129938e+002,6.315991e-003
5.168509e+002,4.611136e-001
5.207080e+002,8.073248e-001
5.245651e+002,6.000000e+000
5.284222e+002,6.000000e+000
5.322793e+002,9.215806e-001
5.361364e+002,-4.079678e-001
5.399935e+002,6.000000e+000
5.438506e+002,6.000000e+000
5.477077e+002,6.000000e+000
5.515648e+002,6.000000e+000
5.554219e+002,-5.554653e-001
5.592790e+002,-6.180075e-002
5.631361e+002,6.000000e+000
5.669932e+002,6.000000e+000
5.708503e+002,6.000000e+000
5.747074e+002,6.000000e+000
5.785645e+002,6.000000e+000
5.824216e+002,6.000000e+000
5.862787e+002,6.000000e+000
5.901357e+002,-4.062669e-001
5.939929e+002,-8.899586e-002
5.978499e+002,-2.040259e-001
6.017070e+002,-6.876211e-001
6.055641e+002,6.000000e+000
6.094212e+002,6.000000e+000
6.132783e+002,3.961367e-001
6.171354e+002,3.957241e-001
6.209925e+002,6.000000e+000
6.248496e+002,6.000000e+000
6.287067e+002,6.000000e+000
6.325638e+002,6.000000e+000
6.364209e+002,-1.025317e+000
6.402780e+002,-3.923357e-001
6.441351e+002,8.970631e-001
6.479922e+002,7.593936e-001
6.518493e+002,-3.951442e-001
6.557064e+002,6.000000e+000
6.595635e+002,6.000000e+000
6.634205e+002,1.237828e-001
6.672777e+002,6.000000e+000
6.711348e+002,6.000000e+000
6.749918e+002,6.000000e+000
6.788490e+002,6.000000e+000
6.827061e+002,3.610135e-001
6.865631e+002,6.000000e+000
6.904203e+002,3.402648e-002
6.942773e+002,1.661356e-001
6.981344e+002,-3.128412e-001
7.019916e+002,1.458682e+000
7.058486e+002,1.227880e-001
7.097057e+002,-7.676506e-001
7.135629e+002,6.000000e+000
7.174199e+002,6.000000e+000
7.212770e+002,-2.439806e-001
7.251342e+002,-3.042607e-001
7.289912e+002,-1.070489e+000
7.328483e+002,-5.616534e-001
7.367054e+002,6.000000e+000
7.405625e+002,2.041045e-001
7.444196e+002,6.000000e+000
7.482767e+002,6.000000e+000
7.521338e+002,6.000000e+000
7.559908e+002,-5.666655e-001
7.598480e+002,6.000000e+000
7.637051e+002,-1.142936e-001
7.675621e+002,5.267342e-001
7.714193e+002,6.000000e+000
7.752764e+002,6.000000e+000
7.791334e+002,-9.640948e-001
7.829905e+002,-1.482684e-001
7.868477e+002,6.000000e+000
7.907047e+002,3.110585e-001
7.945618e+002,4.451834e-001
7.984189e+002,6.000000e+000
8.022760e+002,6.000000e+000
8.061331e+002,6.000000e+000
8.099902e+002,6.000000e+000
8.138473e+002,-3.210966e-001
8.177044e+002,1.066971e-001
8.215615e+002,-7.700013e-001
8.254186e+002,-6.327462e-001
8.292757e+002,4.534054e-001
8.331328e+002,6.000000e+000
8.369899e+002,1.458416e+000
8.408470e+002,1.371912e+000
8.447041e+002,6.000000e+000
8.485612e+002,6.000000e+000
8.524183e+002,6.000000e+000
8.562754e+002,6.000000e+000
8.601324e+002,1.394831e+000
8.639896e+002,1.309898e+000
8.678467e+002,1.392864e+000
8.717037e+002,6.000000e+000
8.755609e+002,6.000000e+000
8.794180e+002,1.061653e+000
8.832750e+002,1.013559e+000
8.871321e+002,6.000000e+000
8.909893e+002,1.250927e+000
8.948463e+002,1.080907e+000
8.987034e+002,1.677313e+000
9.025605e+002,6.000000e+000
9.064176e+002,6.000000e+000
9.102747e+002,6.000000e+000
9.141318e+002,6.000000e+000
9.179889e+002,1.476163e+000
9.218461e+002,1.179031e+000
9.257031e+002,1.298993e+000
9.295602e+002,1.413286e+000
9.334174e+002,1.656896e+000
9.372744e+002,2.073514e+000
9.411315e+002,2.982234e+000
9.449886e+002,2.024588e+000
9.488457e+002,1.526440e+000
9.527028e+002,1.264287e+000
9.565599e+002,1.530416e+000
9.604170e+002,6.000000e+000
9.642740e+002,6.000000e+000
9.681312e+002,6.000000e+000
9.719883e+002,6.000000e+000
9.758453e+002,6.000000e+000
9.797025e+002,6.000000e+000
9.835596e+002,2.745107e+000
9.874166e+002,6.000000e+000
9.912738e+002,2.407753e+000
9.951309e+002,1.757500e+000
9.989879e+002,1.548468e+000
1.002845e+003,1.543959e+000
1.006702e+003,1.650977e+000
1.010559e+003,1.758733e+000
1.014416e+003,1.813869e+000
1.018273e+003,1.726749e+000
1.022130e+003,1.625033e+000
1.025988e+003,1.807870e+000
1.029845e+003,2.018710e+000
1.033702e+003,2.215053e+000
1.037559e+003,2.538510e+000
1.041416e+003,2.750080e+000
1.045273e+003,1.819194e+000
1.049130e+003,1.485223e+000
1.052987e+003,1.488680e+000
1.056844e+003,1.740034e+000
1.060702e+003,1.813234e+000
1.064559e+003,1.553620e+000
1.068416e+003,1.639291e+000
1.072273e+003,1.811738e+000
1.076130e+003,1.682092e+000
1.079987e+003,1.627360e+000
1.083844e+003,1.412713e+000
1.087701e+003,1.271476e+000
1.091558e+003,1.325541e+000
1.095415e+003,1.385406e+000
1.099272e+003,1.418301e+000
1.103130e+003,1.439224e+000
1.106987e+003,1.295333e+000
1.110844e+003,1.281474e+000
1.114701e+003,1.266852e+000
1.118558e+003,1.231686e+000
1.122415e+003,1.225441e+000
1.126272e+003,1.202869e+000
1.130129e+003,1.247107e+000
1.133986e+003,1.246748e+000
1.137843e+003,1.249923e+000
1.141701e+003,1.231632e+000
1.145558e+003,1.170474e+000
1.149415e+003,1.218503e+000
1.153272e+003,1.279854e+000
1.157129e+003,1.244327e+000
1.160986e+003,1.186010e+000
1.164843e+003,1.158469e+000
1.168700e+003,1.140183e+000
1.172557e+003,1.121616e+000
1.176414e+003,1.133676e+000
1.180271e+003,1.148287e+000
1.184129e+003,1.133475e+000
1.187986e+003,1.092797e+000
1.191843e+003,1.082685e+000
1.195700e+003,1.070670e+000
1.199557e+003,1.072094e+000
1.203414e+003,1.065416e+000
1.207271e+003,1.061801e+000
1.211128e+003,1.038622e+000
1.214985e+003,9.896572e-001
1.218842e+003,9.612963e-001
1.222699e+003,9.358145e-001
1.226557e+003,8.926619e-001
1.230414e+003,8.729513e-001
1.234271e+003,8.371872e-001
1.238128e+003,7.966954e-001
1.241985e+003,7.595389e-001
1.245842e+003,7.217811e-001
1.249699e+003,6.831042e-001
1.253556e+003,6.531966e-001
1.257413e+003,6.180786e-001
1.261271e+003,5.913237e-001
1.265128e+003,5.732547e-001
1.268985e+003,5.492871e-001
1.272842e+003,5.199305e-001
1.276699e+003,4.978149e-001
1.280556e+003,4.831547e-001
1.284413e+003,4.748684e-001
1.288270e+003,4.559219e-001
1.292127e+003,4.368170e-001
1.295984e+003,4.242365e-001
1.299841e+003,4.163029e-001
1.303698e+003,4.064280e-001
1.307556e+003,3.971480e-001
1.311413e+003,3.882088e-001
1.315270e+003,3.827368e-001
1.319127e+003,3.808189e-001
1.322984e+003,3.783351e-001
1.326841e+003,3.703262e-001
1.330698e+003,3.640079e-001
1.334555e+003,3.607198e-001
1.338412e+003,3.528984e-001
1.342270e+003,3.440468e-001
1.346127e+003,3.420234e-001
1.349984e+003,3.411119e-001
1.353841e+003,3.337559e-001
1.357698e+003,3.290911e-001
1.361555e+003,3.270891e-001
1.365412e+003,3.274861e-001
1.369269e+003,3.309968e-001
1.373126e+003,3.311839e-001
1.376983e+003,3.322702e-001
1.380840e+003,3.377982e-001
1.384698e+003,3.437271e-001
1.388555e+003,3.472629e-001
1.392412e+003,3.538156e-001
1.396269e+003,3.620348e-001
1.400126e+003,3.700981e-001
1.403983e+003,3.859416e-001
1.407840e+003,3.961296e-001
1.411697e+003,3.968805e-001
1.415554e+003,3.950652e-001
1.419411e+003,4.026785e-001
1.423269e+003,4.106032e-001
1.427126e+003,4.142015e-001
1.430983e+003,4.177947e-001
1.434840e+003,4.151957e-001
1.438697e+003,4.083194e-001
1.442554e+003,3.990813e-001
1.446411e+003,3.954108e-001
1.450268e+003,3.885101e-001
1.454125e+003,3.810951e-001
1.457982e+003,3.717650e-001
1.461839e+003,3.682589e-001
1.465697e+003,3.696844e-001
1.469554e+003,3.662708e-001
1.473411e+003,3.623509e-001
1.477268e+003,3.658035e-001
1.481125e+003,3.689156e-001
1.484982e+003,3.760666e-001
1.488839e+003,3.868499e-001
1.492696e+003,3.924628e-001
1.496553e+003,4.024741e-001
1.500411e+003,4.049360e-001
1.504268e+003,4.037548e-001
1.508125e+003,4.082097e-001
1.511982e+003,4.084308e-001
1.515839e+003,4.025187e-001
1.519696e+003,3.969922e-001
1.523553e+003,3.953821e-001
1.527410e+003,3.862451e-001
1.531267e+003,3.710355e-001
1.535124e+003,3.658833e-001
1.538981e+003,3.698064e-001
1.542839e+003,3.632936e-001
1.546696e+003,3.466391e-001
1.550553e+003,3.371443e-001
1.554410e+003,3.332293e-001
1.558267e+003,3.273511e-001
1.562124e+003,3.213418e-001
1.565981e+003,3.177314e-001
1.569838e+003,3.108791e-001
1.573695e+003,3.093759e-001
1.577552e+003,3.081114e-001
1.581410e+003,3.050187e-001
1.585267e+003,3.052763e-001
1.589124e+003,3.128846e-001
1.592981e+003,3.218465e-001
1.596838e+003,3.311787e-001
1.600695e+003,3.409787e-001
1.604552e+003,3.509552e-001
1.608409e+003,3.650123e-001
1.612266e+003,3.907241e-001
1.616123e+003,4.135708e-001
1.619980e+003,4.259928e-001
1.623838e+003,4.436427e-001
1.627695e+003,4.615204e-001
1.631552e+003,4.737942e-001
1.635409e+003,4.834914e-001
1.639266e+003,4.845249e-001
1.643123e+003,4.831398e-001
1.646980e+003,4.740878e-001
1.650837e+003,4.626824e-001
1.654694e+003,4.529525e-001
1.658551e+003,4.385435e-001
1.662409e+003,4.216945e-001
1.666266e+003,4.137846e-001
1.670123e+003,4.032640e-001
1.673980e+003,3.827668e-001
1.677837e+003,3.648971e-001
1.681694e+003,3.506612e-001
1.685551e+003,3.404408e-001
1.689408e+003,3.305909e-001
1.693265e+003,3.192050e-001
1.697122e+003,3.097349e-001
1.700979e+003,3.032801e-001
1.704837e+003,3.010923e-001
1.708694e+003,2.992219e-001
1.712551e+003,2.949429e-001
1.716408e+003,2.899756e-001
1.720265e+003,2.893218e-001
1.724122e+003,2.941413e-001
1.727979e+003,2.951321e-001
1.731836e+003,2.922092e-001
1.735693e+003,2.932620e-001
1.739550e+003,2.944713e-001
1.743408e+003,2.924630e-001
1.747265e+003,2.919728e-001
1.751122e+003,2.918359e-001
1.754979e+003,2.924069e-001
1.758836e+003,2.942275e-001
1.762693e+003,2.928605e-001
1.766550e+003,2.910480e-001
1.770407e+003,2.945521e-001
1.774264e+003,2.974122e-001
1.778121e+003,2.960499e-001
1.781979e+003,2.895761e-001
1.785836e+003,2.810876e-001
1.789693e+003,2.798987e-001
1.793550e+003,2.756177e-001
1.797407e+003,2.680006e-001
1.801264e+003,2.646828e-001
1.805121e+003,2.617753e-001
1.808978e+003,2.586632e-001
1.812835e+003,2.575411e-001
1.816692e+003,2.599205e-001
1.820549e+003,2.582212e-001
1.824407e+003,2.529976e-001
1.828264e+003,2.538018e-001
1.832121e+003,2.563537e-001
1.835978e+003,2.555431e-001
1.839835e+003,2.568266e-001
1.843692e+003,2.570786e-001
1.847549e+003,2.543245e-001
1.851406e+003,2.563172e-001
1.855263e+003,2.587521e-001
1.859120e+003,2.596483e-001
1.862978e+003,2.613820e-001
1.866835e+003,2.619295e-001
1.870692e+003,2.605595e-001
1.874549e+003,2.619589e-001
1.878406e+003,2.595170e-001
1.882263e+003,2.566566e-001
1.886120e+003,2.569135e-001
1.889977e+003,2.578223e-001
1.893834e+003,2.541551e-001
1.897691e+003,2.515540e-001
1.901548e+003,2.503561e-001
1.905406e+003,2.486814e-001
1.909263e+003,2.469579e-001
1.913120e+003,2.470140e-001
1.916977e+003,2.464120e-001
1.920834e+003,2.432823e-001
1.924691e+003,2.389801e-001
1.928548e+003,2.349651e-001
1.932405e+003,2.328314e-001
1.936262e+003,2.286087e-001
1.940119e+003,2.255507e-001
1.943977e+003,2.235612e-001
1.947834e+003,2.240481e-001
1.951691e+003,2.265109e-001
1.955548e+003,2.278470e-001
1.959405e+003,2.269718e-001
1.963262e+003,2.248622e-001
1.967119e+003,2.262268e-001
1.970976e+003,2.293128e-001
1.974833e+003,2.309593e-001
1.978690e+003,2.306638e-001
1.982547e+003,2.335756e-001
1.986405e+003,2.355889e-001
1.990262e+003,2.340454e-001
1.994119e+003,2.326361e-001
1.997976e+003,2.372626e-001
2.001833e+003,2.404080e-001
2.005690e+003,2.380408e-001
2.009547e+003,2.377674e-001
2.013404e+003,2.376643e-001
2.017261e+003,2.362056e-001
2.021118e+003,2.375583e-001
2.024976e+003,2.388244e-001
2.028833e+003,2.359022e-001
2.032690e+003,2.312726e-001
2.036547e+003,2.266725e-001
2.040404e+003,2.186383e-001
2.044261e+003,2.138409e-001
2.048118e+003,2.143100e-001
2.051975e+003,2.116743e-001
2.055832e+003,2.076370e-001
2.059689e+003,2.071558e-001
2.063546e+003,2.039204e-001
2.067404e+003,2.014197e-001
2.071261e+003,2.029077e-001
2.075118e+003,2.045935e-001
2.078975e+003,2.039326e-001
2.082832e+003,2.042278e-001
2.086689e+003,2.061871e-001
2.090546e+003,2.094484e-001
2.094403e+003,2.099582e-001
2.098260e+003,2.106055e-001
2.102117e+003,2.097270e-001
2.105975e+003,2.125063e-001
2.109832e+003,2.171295e-001
2.113689e+003,2.178193e-001
2.117546e+003,2.184556e-001
2.121403e+003,2.211933e-001
2.125260e+003,2.250903e-001
2.129117e+003,2.251003e-001
2.132974e+003,2.259058e-001
2.136831e+003,2.262356e-001
2.140688e+003,2.272499e-001
2.144545e+003,2.245829e-001
2.148403e+003,2.205375e-001
2.152260e+003,2.206815e-001
2.156117e+003,2.186990e-001
2.159974e+003,2.170569e-001
2.163831e+003,2.140442e-001
2.167688e+003,2.104862e-001
2.171545e+003,2.093371e-001
2.175402e+003,2.094418e-001
2.179259e+003,2.050991e-001
2.183116e+003,2.019614e-001
2.186974e+003,2.045011e-001
2.190831e+003,2.083266e-001
2.194688e+003,2.084492e-001
2.198545e+003,2.056579e-001
2.202402e+003,2.030507e-001
2.206259e+003,2.029209e-001
2.210116e+003,2.072247e-001
2.213973e+003,2.116567e-001
2.217830e+003,2.123894e-001
2.221688e+003,2.126463e-001
2.225544e+003,2.154858e-001
2.229402e+003,2.162537e-001
2.233259e+003,2.175489e-001
2.237116e+003,2.228390e-001
2.240973e+003,2.256899e-001
2.244830e+003,2.249897e-001
2.248687e+003,2.260859e-001
2.252544e+003,2.282272e-001
2.256401e+003,2.266787e-001
2.260258e+003,2.301925e-001
2.264115e+003,2.335480e-001
2.267973e+003,2.307136e-001
2.271830e+003,2.267987e-001
2.275687e+003,2.238700e-001
2.279544e+003,2.238874e-001
2.283401e+003,2.244226e-001
2.287258e+003,2.242543e-001
2.291115e+003,2.228058e-001
2.294972e+003,2.193772e-001
2.298829e+003,2.147683e-001
2.302687e+003,2.124407e-001
2.306543e+003,2.103843e-001
2.310401e+003,2.088242e-001
2.314258e+003,2.116051e-001
2.318115e+003,2.130054e-001
2.321972e+003,2.143159e-001
2.325829e+003,2.159289e-001
2.329686e+003,2.157010e-001
2.333543e+003,2.168260e-001
2.337400e+003,2.165046e-001
2.341257e+003,2.170029e-001
2.345115e+003,2.171159e-001
2.348972e+003,2.180942e-001
2.352829e+003,2.265413e-001
2.356686e+003,2.338780e-001
2.360543e+003,2.340976e-001
2.364400e+003,2.330357e-001
2.368257e+003,2.337341e-001
2.372114e+003,2.338670e-001
2.375971e+003,2.336096e-001
2.379828e+003,2.303225e-001
2.383686e+003,2.293747e-001
2.387542e+003,2.305996e-001
2.391400e+003,2.285017e-001
2.395257e+003,2.329111e-001
2.399114e+003,2.376916e-001
2.402971e+003,2.329076e-001
2.406828e+003,2.254947e-001
2.410685e+003,2.231243e-001
2.414542e+003,2.212406e-001
2.418399e+003,2.169807e-001
2.422256e+003,2.171369e-001
2.426114e+003,2.168765e-001
2.429971e+003,2.158621e-001
2.433828e+003,2.154581e-001
2.437685e+003,2.120989e-001
2.441542e+003,2.067443e-001
2.445399e+003,2.059694e-001
2.449256e+003,2.035343e-001
2.453113e+003,2.023931e-001
2.456970e+003,2.063571e-001
2.460827e+003,2.060788e-001
2.464684e+003,2.062558e-001
2.468542e+003,2.086116e-001
2.472399e+003,2.084563e-001
2.476256e+003,2.053874e-001
2.480113e+003,2.073228e-001
2.483970e+003,2.132778e-001
2.487827e+003,2.139108e-001
2.491684e+003,2.129418e-001
2.495541e+003,2.142539e-001
2.499398e+003,2.167362e-001
2.503255e+003,2.200229e-001
2.507113e+003,2.219114e-001
2.510969e+003,2.231972e-001
2.514827e+003,2.251785e-001
2.518684e+003,2.249335e-001
2.522541e+003,2.237478e-001
2.526398e+003,2.233569e-001
2.530255e+003,2.252352e-001
2.534112e+003,2.238717e-001
2.537969e+003,2.220341e-001
2.541826e+003,2.217490e-001
2.545683e+003,2.178371e-001
2.549541e+003,2.123906e-001
2.553398e+003,2.124323e-001
2.557255e+003,2.125328e-001
2.561112e+003,2.095265e-001
2.564969e+003,2.076990e-001
2.568826e+003,2.094816e-001
2.572683e+003,2.104287e-001
2.576540e+003,2.089752e-001
2.580397e+003,2.071085e-001
2.584254e+003,2.094914e-001
2.588112e+003,2.108372e-001
2.591969e+003,2.107909e-001
2.595826e+003,2.127070e-001
2.599683e+003,2.140816e-001
2.603540e+003,2.163551e-001
2.607397e+003,2.219865e-001
2.611254e+003,2.274263e-001
2.615111e+003,2.298715e-001
2.618968e+003,2.331381e-001
2.622825e+003,2.352065e-001
2.626682e+003,2.363722e-001
2.630540e+003,2.411680e-001
2.634397e+003,2.427492e-001
2.638254e+003,2.457577e-001
2.642111e+003,2.493526e-001
2.645968e+003,2.521236e-001
2.649825e+003,2.510172e-001
2.653682e+003,2.479700e-001
2.657539e+003,2.464060e-001
2.661396e+003,2.478823e-001
2.665253e+003,2.509950e-001
2.669111e+003,2.511760e-001
2.672968e+003,2.492366e-001
2.676825e+003,2.469574e-001
2.680682e+003,2.449152e-001
2.684539e+003,2.439602e-001
2.688396e+003,2.446796e-001
2.692253e+003,2.491738e-001
2.696110e+003,2.483217e-001
2.699967e+003,2.427470e-001
2.703824e+003,2.423172e-001
2.707681e+003,2.479301e-001
2.711539e+003,2.517387e-001
2.715396e+003,2.504409e-001
2.719253e+003,2.525744e-001
2.723110e+003,2.550143e-001
2.726967e+003,2.570424e-001
2.730824e+003,2.595009e-001
2.734681e+003,2.638750e-001
2.738538e+003,2.690101e-001
2.742395e+003,2.704718e-001
2.746252e+003,2.722355e-001
2.750110e+003,2.788020e-001
2.753967e+003,2.839873e-001
2.757824e+003,2.875143e-001
2.761681e+003,2.899357e-001
2.765538e+003,2.923346e-001
2.769395e+003,2.933780e-001
2.773252e+003,2.947154e-001
2.777109e+003,2.964675e-001
2.780966e+003,2.975937e-001
2.784823e+003,2.981716e-001
2.788680e+003,3.019074e-001
2.792538e+003,3.041619e-001
2.796395e+003,3.023778e-001
2.800252e+003,3.008014e-001
2.804109e+003,3.006323e-001
2.807966e+003,3.023537e-001
2.811823e+003,3.045704e-001
2.815680e+003,3.040691e-001
2.819537e+003,3.020830e-001
2.823394e+003,3.048351e-001
2.827251e+003,3.085102e-001
2.831109e+003,3.069738e-001
2.834966e+003,3.075438e-001
2.838823e+003,3.107259e-001
2.842680e+003,3.114533e-001
2.846537e+003,3.147712e-001
2.850394e+003,3.177276e-001
2.854251e+003,3.255952e-001
2.858108e+003,3.339675e-001
2.861965e+003,3.375656e-001
2.865823e+003,3.407080e-001
2.869679e+003,3.441156e-001
2.873537e+003,3.449984e-001
2.877394e+003,3.474770e-001
2.881251e+003,3.507048e-001
2.885108e+003,3.531928e-001
2.888965e+003,3.588280e-001
2.892822e+003,3.593889e-001
2.896679e+003,3.613686e-001
2.900536e+003,3.649500e-001
2.904393e+003,3.683432e-001
2.908250e+003,3.704420e-001
2.912108e+003,3.711728e-001
2.915965e+003,3.709815e-001
2.919822e+003,3.709856e-001
2.923679e+003,3.722391e-001
2.927536e+003,3.790500e-001
2.931393e+003,3.830083e-001
2.935250e+003,3.809714e-001
2.939107e+003,3.815474e-001
2.942964e+003,3.825111e-001
2.946822e+003,3.836049e-001
2.950678e+003,3.851955e-001
2.954536e+003,3.841910e-001
2.958393e+003,3.871811e-001
2.962250e+003,3.909645e-001
2.966107e+003,3.931747e-001
2.969964e+003,3.967696e-001
2.973821e+003,4.002053e-001
2.977678e+003,4.045034e-001
2.981535e+003,4.068652e-001
2.985392e+003,4.108169e-001
2.989250e+003,4.160679e-001
2.993107e+003,4.206371e-001
2.996964e+003,4.262514e-001
3.000821e+003,4.319216e-001
3.004678e+003,4.382929e-001
3.008535e+003,4.440184e-001
3.012392e+003,4.500927e-001
3.016249e+003,4.516850e-001
3.020106e+003,4.535750e-001
3.023963e+003,4.578379e-001
3.027821e+003,4.625306e-001
3.031677e+003,4.664438e-001
3.035535e+003,4.684993e-001
3.039392e+003,4.727297e-001
3.043249e+003,4.742057e-001
3.047106e+003,4.744698e-001
3.050963e+003,4.750174e-001
3.054820e+003,4.762914e-001
3.058677e+003,4.758860e-001
3.062534e+003,4.788379e-001
3.066391e+003,4.871088e-001
3.070249e+003,4.912516e-001
3.074106e+003,4.864471e-001
3.077963e+003,4.832719e-001
3.081820e+003,4.918415e-001
3.085677e+003,4.985931e-001
3.089534e+003,4.949979e-001
3.093391e+003,4.940370e-001
3.097248e+003,5.004956e-001
3.101105e+003,5.079601e-001
3.104962e+003,5.109915e-001
3.108820e+003,5.120403e-001
3.112677e+003,5.148852e-001
3.116534e+003,5.238044e-001
3.120391e+003,5.317413e-001
3.124248e+003,5.364274e-001
3.128105e+003,5.402992e-001
3.131962e+003,5.441650e-001
3.135819e+003,5.490482e-001
3.139676e+003,5.568918e-001
3.143533e+003,5.617495e-001
3.147390e+003,5.575219e-001
3.151248e+003,5.587893e-001
3.155105e+003,5.647951e-001
3.158962e+003,5.714299e-001
3.162819e+003,5.733668e-001
3.166676e+003,5.852233e-001
3.170533e+003,5.985789e-001
3.174390e+003,5.965731e-001
3.178247e+003,5.931780e-001
3.182104e+003,6.019564e-001
3.185961e+003,6.023642e-001
3.189819e+003,6.013849e-001
3.193676e+003,6.033722e-001
3.197533e+003,6.027206e-001
3.201390e+003,6.059128e-001
3.205247e+003,6.058469e-001
3.209104e+003,6.035279e-001
3.212961e+003,6.028538e-001
3.216818e+003,6.096468e-001
3.220675e+003,6.135094e-001
3.224532e+003,6.107734e-001
3.228389e+003,6.160609e-001
3.232247e+003,6.232308e-001
3.236104e+003,6.328955e-001
3.239961e+003,6.394707e-001
3.243818e+003,6.424938e-001
3.247675e+003,6.399152e-001
3.251532e+003,6.436220e-001
3.255389e+003,6.557049e-001
3.259246e+003,6.535675e-001
3.263103e+003,6.469084e-001
3.266960e+003,6.521334e-001
3.270818e+003,6.565414e-001
3.274675e+003,6.569610e-001
3.278532e+003,6.599718e-001
3.282389e+003,6.619801e-001
3.286246e+003,6.682724e-001
3.290103e+003,6.691186e-001
3.293960e+003,6.723315e-001
3.297817e+003,6.763583e-001
3.301674e+003,6.750780e-001
3.305531e+003,6.781829e-001
3.309388e+003,6.826321e-001
3.313246e+003,6.901800e-001
3.317103e+003,6.976925e-001
3.320960e+003,6.957727e-001
3.324817e+003,6.987423e-001
3.328674e+003,6.921135e-001
3.332531e+003,6.802598e-001
3.336388e+003,6.791371e-001
3.340245e+003,6.947688e-001
3.344102e+003,7.093014e-001
3.347959e+003,7.177921e-001
3.351817e+003,7.086245e-001
3.355674e+003,7.004815e-001
3.359531e+003,7.142457e-001
3.363388e+003,7.202851e-001
3.367245e+003,7.109461e-001
3.371102e+003,7.079860e-001
3.374959e+003,7.153320e-001
3.378816e+003,7.210541e-001
3.382673e+003,7.212076e-001
3.386530e+003,7.329367e-001
3.390387e+003,7.411382e-001
3.394245e+003,7.444336e-001
3.398102e+003,7.429221e-001
3.401959e+003,7.462072e-001
3.405816e+003,7.507042e-001
3.409673e+003,7.590423e-001
3.413530e+003,7.727662e-001
3.417387e+003,7.722048e-001
3.421244e+003,7.642927e-001
3.425101e+003,7.661326e-001
3.428958e+003,7.568203e-001
3.432815e+003,7.503186e-001
3.436673e+003,7.573976e-001
3.440530e+003,7.621886e-001
3.444387e+003,7.674705e-001
3.448244e+003,7.643123e-001
3.452101e+003,7.575992e-001
3.455958e+003,7.597320e-001
3.459815e+003,7.632201e-001
3.463672e+003,7.633661e-001
3.467529e+003,7.625487e-001
3.471386e+003,7.588986e-001
3.475244e+003,7.564907e-001
3.479101e+003,7.545397e-001
3.482958e+003,7.476437e-001
3.486815e+003,7.521203e-001
3.490672e+003,7.624274e-001
3.494529e+003,7.703503e-001
3.498386e+003,7.731380e-001
3.502243e+003,7.669212e-001
3.506100e+003,7.654973e-001
3.509958e+003,7.738728e-001
3.513814e+003,7.827015e-001
3.517672e+003,7.673539e-001
3.521529e+003,7.642121e-001
3.525386e+003,7.752665e-001
3.529243e+003,7.832863e-001
3.533100e+003,7.842521e-001
3.536957e+003,7.758725e-001
3.540814e+003,7.720249e-001
3.544671e+003,7.777606e-001
3.548528e+003,7.855083e-001
3.552385e+003,7.792000e-001
3.556243e+003,7.668656e-001
3.560100e+003,7.590386e-001
3.563957e+003,7.580411e-001
3.567814e+003,7.528434e-001
3.571671e+003,7.492933e-001
3.575528e+003,7.393017e-001
3.579385e+003,7.241333e-001
3.583242e+003,7.212614e-001
3.587099e+003,7.214783e-001
3.590957e+003,7.142418e-001
3.594813e+003,6.988769e-001
3.598671e+003,6.866646e-001
3.602528e+003,6.701014e-001
3.606385e+003,6.486773e-001
3.610242e+003,6.285004e-001
3.614099e+003,6.170565e-001
3.617956e+003,6.059098e-001
3.621813e+003,5.869960e-001
3.625670e+003,5.630701e-001
3.629527e+003,5.328159e-001
3.633385e+003,5.096848e-001
3.637242e+003,4.882509e-001
3.641099e+003,4.684570e-001
3.644956e+003,4.500342e-001
3.648813e+003,4.237063e-001
3.652670e+003,3.986581e-001
3.656527e+003,3.768674e-001
3.660384e+003,3.548414e-001
3.664241e+003,3.367526e-001
3.668098e+003,3.163289e-001
3.671956e+003,2.977847e-001
3.675813e+003,2.817664e-001
3.679670e+003,2.680764e-001
3.683527e+003,2.560182e-001
3.687384e+003,2.492475e-001
3.691241e+003,2.413443e-001
3.695098e+003,2.290552e-001
3.698955e+003,2.147546e-001
3.702812e+003,2.079893e-001
3.706669e+003,2.059918e-001
3.710526e+003,2.036766e-001
3.714384e+003,1.956256e-001
3.718241e+003,1.883419e-001
3.722098e+003,1.827826e-001
3.725955e+003,1.815099e-001
3.729812e+003,1.779836e-001
3.733669e+003,1.728032e-001
3.737526e+003,1.745548e-001
3.741383e+003,1.785879e-001
3.745240e+003,1.770532e-001
3.749097e+003,1.743608e-001
3.752955e+003,1.797516e-001
3.756812e+003,1.812923e-001
3.760669e+003,1.789734e-001
3.764526e+003,1.782358e-001
3.768383e+003,1.819352e-001
3.772240e+003,1.862454e-001
3.776097e+003,1.898175e-001
3.779954e+003,1.872153e-001
3.783811e+003,1.843960e-001
3.787668e+003,1.865085e-001
3.791525e+003,1.863633e-001
3.795383e+003,1.844750e-001
3.799240e+003,1.894701e-001
3.803097e+003,1.962432e-001
3.806954e+003,1.931489e-001
3.810811e+003,1.827549e-001
3.814668e+003,1.749290e-001
3.818525e+003,1.728890e-001
3.822382e+003,1.743124e-001
3.826239e+003,1.723054e-001
3.830096e+003,1.704191e-001
3.833954e+003,1.670721e-001
3.837811e+003,1.619057e-001
3.841668e+003,1.647119e-001
3.845525e+003,1.630223e-001
3.849382e+003,1.584859e-001
3.853239e+003,1.598588e-001
3.857096e+003,1.593336e-001
3.860953e+003,1.601772e-001
3.864810e+003,1.645098e-001
3.868667e+003,1.662631e-001
3.872524e+003,1.633098e-001
3.876382e+003,1.607094e-001
3.880239e+003,1.615857e-001
3.884096e+003,1.657780e-001
3.887953e+003,1.698708e-001
3.891810e+003,1.741701e-001
3.895667e+003,1.782531e-001
3.899524e+003,1.799854e-001
3.903381e+003,1.769859e-001
3.907238e+003,1.768182e-001
3.911095e+003,1.798789e-001
3.914953e+003,1.835838e-001
3.918810e+003,1.847976e-001
3.922667e+003,1.845831e-001
3.926524e+003,1.810378e-001
3.930381e+003,1.778466e-001
3.934238e+003,1.758403e-001
3.938095e+003,1.693988e-001
3.941952e+003,1.694585e-001
3.945809e+003,1.759060e-001
3.949667e+003,1.729251e-001
3.953523e+003,1.677202e-001
3.957381e+003,1.647835e-001
3.961238e+003,1.614871e-001
3.965095e+003,1.600515e-001
3.968952e+003,1.601277e-001
3.972809e+003,1.600804e-001
3.976666e+003,1.605027e-001
3.980523e+003,1.585007e-001
3.984380e+003,1.572038e-001
3.988237e+003,1.564946e-001
3.992094e+003,1.542808e-001
3.995952e+003,1.554239e-001
3.999809e+003,1.588016e-001
4.003666e+003,1.605188e-001
4.007523e+003,1.614289e-001
4.011380e+003,1.633888e-001
4.015237e+003,1.703056e-001
4.019094e+003,1.737610e-001
4.022951e+003,1.729383e-001
4.026808e+003,1.746763e-001
4.030666e+003,1.758631e-001
4.034522e+003,1.752367e-001
4.038380e+003,1.773304e-001
4.042237e+003,1.817322e-001
4.046094e+003,1.810899e-001
4.049951e+003,1.790622e-001
4.053808e+003,1.824950e-001
4.057665e+003,1.838449e-001
4.061522e+003,1.797570e-001
4.065379e+003,1.775738e-001
4.069236e+003,1.747325e-001
4.073094e+003,1.751104e-001
4.076951e+003,1.748577e-001
4.080808e+003,1.689508e-001
4.084665e+003,1.653682e-001
4.088522e+003,1.644828e-001
4.092379e+003,1.653033e-001
4.096236e+003,1.642133e-001
4.100093e+003,1.642180e-001
4.103950e+003,1.634681e-001
4.107808e+003,1.613218e-001
4.111665e+003,1.589567e-001
4.115521e+003,1.564101e-001
4.119379e+003,1.554493e-001
4.123236e+003,1.546229e-001
4.127093e+003,1.510844e-001
4.130950e+003,1.503019e-001
4.134807e+003,1.524577e-001
4.138664e+003,1.580022e-001
4.142521e+003,1.597528e-001
4.146378e+003,1.580004e-001
4.150235e+003,1.613901e-001
4.154093e+003,1.655546e-001
4.157950e+003,1.699436e-001
4.161807e+003,1.732173e-001
4.165664e+003,1.742206e-001
4.169521e+003,1.760865e-001
4.173378e+003,1.767586e-001
4.177235e+003,1.755488e-001
4.181092e+003,1.739801e-001
4.184949e+003,1.771398e-001
4.188807e+003,1.792418e-001
4.192664e+003,1.777402e-001
4.196521e+003,1.736603e-001
4.200378e+003,1.726080e-001
4.204235e+003,1.750763e-001
4.208092e+003,1.702422e-001
4.211949e+003,1.651251e-001
4.215806e+003,1.620905e-001
4.219663e+003,1.623023e-001
4.223521e+003,1.640623e-001
4.227377e+003,1.633129e-001
4.231234e+003,1.606228e-001
4.235092e+003,1.556160e-001
4.238949e+003,1.498863e-001
4.242806e+003,1.496613e-001
4.246663e+003,1.577707e-001
4.250520e+003,1.630313e-001
4.254377e+003,1.572037e-001
4.258234e+003,1.576269e-001
4.262091e+003,1.606681e-001
4.265948e+003,1.553175e-001
4.269806e+003,1.529996e-001
4.273663e+003,1.584857e-001
4.277520e+003,1.548255e-001
4.281377e+003,1.537901e-001
4.285234e+003,1.641367e-001
4.289091e+003,1.691841e-001
4.292948e+003,1.707368e-001
4.296805e+003,1.726286e-001
4.300662e+003,1.710760e-001
4.304520e+003,1.704466e-001
4.308376e+003,1.706535e-001
4.312233e+003,1.762088e-001
4.316091e+003,1.797694e-001
4.319948e+003,1.778744e-001
4.323805e+003,1.745216e-001
4.327662e+003,1.737033e-001
4.331519e+003,1.761743e-001
4.335376e+003,1.784963e-001
4.339233e+003,1.743202e-001
4.343090e+003,1.695432e-001
4.346947e+003,1.642028e-001
4.350805e+003,1.647663e-001
4.354662e+003,1.641219e-001
4.358519e+003,1.590898e-001
4.362376e+003,1.547969e-001
4.366233e+003,1.506044e-001
4.370090e+003,1.535685e-001
4.373947e+003,1.596254e-001
4.377804e+003,1.601651e-001
4.381661e+003,1.593045e-001
4.385519e+003,1.593002e-001
4.389375e+003,1.622943e-001
4.393232e+003,1.613716e-001
4.397090e+003,1.622099e-001
4.400947e+003,1.662793e-001
4.404804e+003,1.644149e-001
4.408661e+003,1.627972e-001
4.412518e+003,1.631083e-001
4.416375e+003,1.672252e-001
4.420232e+003,1.706279e-001
4.424089e+003,1.666466e-001
4.427946e+003,1.605876e-001
4.431804e+003,1.612417e-001
4.435661e+003,1.716118e-001
4.439518e+003,1.730119e-001
4.443375e+003,1.710256e-001
4.447232e+003,1.727775e-001
4.451089e+003,1.725311e-001
4.454946e+003,1.713145e-001
4.458803e+003,1.726364e-001
4.462660e+003,1.723967e-001
4.466518e+003,1.733762e-001
4.470375e+003,1.745756e-001
4.474231e+003,1.722169e-001
4.478089e+003,1.656235e-001
4.481946e+003,1.662869e-001
4.485803e+003,1.657775e-001
4.489660e+003,1.650952e-001
4.493517e+003,1.686987e-001
4.497375e+003,1.642114e-001
4.501231e+003,1.618930e-001
4.505088e+003,1.687240e-001
4.508946e+003,1.755530e-001
4.512803e+003,1.654179e-001
4.516660e+003,1.541841e-001
4.520517e+003,1.486552e-001
4.524374e+003,1.519674e-001
4.528231e+003,1.609432e-001
4.532088e+003,1.642869e-001
4.535945e+003,1.623302e-001
4.539802e+003,1.586263e-001
4.543660e+003,1.577503e-001
4.547517e+003,1.627389e-001
4.551374e+003,1.646696e-001
4.555231e+003,1.623593e-001
4.559088e+003,1.642256e-001
4.562945e+003,1.679593e-001
4.566802e+003,1.672049e-001
4.570659e+003,1.636724e-001
4.574516e+003,1.685467e-001
4.578374e+003,1.784432e-001
4.582230e+003,1.797223e-001
4.586087e+003,1.774797e-001
4.589945e+003,1.729408e-001
4.593802e+003,1.713305e-001
4.597659e+003,1.725031e-001
4.601516e+003,1.747174e-001
4.605373e+003,1.758226e-001
4.609230e+003,1.730574e-001
4.613087e+003,1.705995e-001
4.616944e+003,1.661811e-001
4.620801e+003,1.618619e-001
4.624659e+003,1.612005e-001
4.628516e+003,1.615041e-001
4.632373e+003,1.618030e-001
4.636230e+003,1.592563e-001
4.640087e+003,1.579598e-001
4.643944e+003,1.576458e-001
4.647801e+003,1.560482e-001
4.651658e+003,1.584161e-001
4.655515e+003,1.564217e-001
4.659373e+003,1.548958e-001
4.663229e+003,1.613611e-001
4.667086e+003,1.585009e-001
4.670944e+003,1.578780e-001
4.674801e+003,1.650448e-001
4.678658e+003,1.636754e-001
4.682515e+003,1.603372e-001
4.686372e+003,1.609721e-001
4.690229e+003,1.670935e-001
4.694086e+003,1.715319e-001
4.697943e+003,1.726092e-001
4.701800e+003,1.731640e-001
4.705658e+003,1.651546e-001
4.709515e+003,1.634354e-001
4.713372e+003,1.725107e-001
4.717229e+003,1.748899e-001
4.721086e+003,1.794383e-001
4.724943e+003,1.781047e-001
4.728800e+003,1.713523e-001
4.732657e+003,1.742821e-001
4.736514e+003,1.812800e-001
4.740372e+003,1.753036e-001
4.744229e+003,1.697060e-001
4.748085e+003,1.681936e-001
4.751943e+003,1.719156e-001
4.755800e+003,1.710460e-001
4.759657e+003,1.727681e-001
4.763514e+003,1.695166e-001
4.767371e+003,1.609135e-001
4.771228e+003,1.623654e-001
4.775085e+003,1.616432e-001
4.778942e+003,1.556199e-001
4.782799e+003,1.587562e-001
4.786657e+003,1.603612e-001
4.790514e+003,1.564430e-001
4.794371e+003,1.548115e-001
4.798228e+003,1.567738e-001
4.802085e+003,1.628275e-001
4.805942e+003,1.618631e-001
4.809799e+003,1.598638e-001
4.813656e+003,1.641820e-001
4.817513e+003,1.699490e-001
4.821371e+003,1.718876e-001
4.825228e+003,1.703781e-001
4.829084e+003,1.679876e-001
4.832942e+003,1.709053e-001
4.836799e+003,1.753347e-001
4.840656e+003,1.722684e-001
4.844513e+003,1.679681e-001
4.848370e+003,1.674268e-001
4.852227e+003,1.730412e-001
4.856084e+003,1.794606e-001
4.859941e+003,1.827123e-001
4.863798e+003,1.839053e-001
4.867656e+003,1.809499e-001
4.871513e+003,1.802774e-001
4.875370e+003,1.751547e-001
4.879227e+003,1.728007e-001
4.883084e+003,1.824374e-001
4.886941e+003,1.813996e-001
4.890798e+003,1.756199e-001
4.894655e+003,1.651319e-001
4.898512e+003,1.651716e-001
4.902370e+003,1.668246e-001
4.906227e+003,1.624241e-001
4.910083e+003,1.641935e-001
4.913941e+003,1.654081e-001
4.917798e+003,1.601623e-001
4.921655e+003,1.546506e-001
4.925512e+003,1.550329e-001
4.929369e+003,1.581328e-001
4.933226e+003,1.579886e-001
4.937083e+003,1.542723e-001
4.940940e+003,1.554681e-001
4.944797e+003,1.619479e-001
4.948655e+003,1.663410e-001
4.952512e+003,1.676489e-001
4.956369e+003,1.667781e-001
4.960226e+003,1.637017e-001
4.964083e+003,1.649950e-001
4.967940e+003,1.714825e-001
4.971797e+003,1.818211e-001
4.975654e+003,1.774332e-001
4.979511e+003,1.777242e-001
4.983369e+003,1.836458e-001
4.987226e+003,1.774422e-001
4.991083e+003,1.684127e-001
4.994940e+003,1.709790e-001
4.998797e+003,1.689747e-001
5.002654e+003,1.669180e-001
5.006511e+003,1.769513e-001
5.010368e+003,1.806788e-001
5.014225e+003,1.783113e-001
5.018083e+003,1.782237e-001
5.021939e+003,1.840428e-001
5.025796e+003,1.810570e-001
5.029654e+003,1.736854e-001
5.033511e+003,1.687683e-001
5.037368e+003,1.673416e-001
5.041225e+003,1.737395e-001
5.045082e+003,1.742806e-001
5.048939e+003,1.718392e-001
5.052796e+003,1.692201e-001
5.056653e+003,1.610014e-001
5.060510e+003,1.554075e-001
5.064368e+003,1.568453e-001
5.068225e+003,1.626106e-001
5.072082e+003,1.645921e-001
5.075939e+003,1.625459e-001
5.079796e+003,1.686625e-001
5.083653e+003,1.639468e-001
5.087510e+003,1.651572e-001
5.091367e+003,1.751598e-001
5.095224e+003,1.683562e-001
5.099082e+003,1.682579e-001
5.102938e+003,1.731457e-001
5.106795e+003,1.720000e-001
5.110653e+003,1.774903e-001
5.114510e+003,1.849589e-001
5.118367e+003,1.799008e-001
5.122224e+003,1.724668e-001
5.126081e+003,1.819673e-001
5.129938e+003,1.898643e-001
5.133795e+003,1.815936e-001
5.137652e+003,1.799739e-001
5.141509e+003,1.784066e-001
5.145367e+003,1.744537e-001
5.149224e+003,1.790230e-001
5.153081e+003,1.787700e-001
5.156938e+003,1.796704e-001
5.160795e+003,1.826496e-001
5.164652e+003,1.800319e-001
5.168509e+003,1.787336e-001
5.172366e+003,1.754158e-001
5.176223e+003,1.730316e-001
5.180081e+003,1.702441e-001
5.183938e+003,1.681449e-001
5.187794e+003,1.663899e-001
5.191652e+003,1.718700e-001
5.195509e+003,1.669348e-001
5.199366e+003,1.620978e-001
5.203223e+003,1.612860e-001
5.207080e+003,1.607362e-001
5.210937e+003,1.610210e-001
5.214794e+003,1.530453e-001
5.218651e+003,1.503620e-001
5.222508e+003,1.591462e-001
5.226366e+003,1.677941e-001
5.230223e+003,1.684080e-001
5.234080e+003,1.746098e-001
5.237937e+003,1.811142e-001
5.241794e+003,1.793184e-001
5.245651e+003,1.789160e-001
5.249508e+003,1.765645e-001
5.253365e+003,1.774471e-001
5.257222e+003,1.739005e-001
5.261080e+003,1.720093e-001
5.264937e+003,1.740201e-001
5.268793e+003,1.805300e-001
5.272651e+003,1.878187e-001
5.276508e+003,1.875968e-001
5.280365e+003,1.747346e-001
5.284222e+003,1.722580e-001
5.288079e+003,1.711841e-001
5.291936e+003,1.691429e-001
5.295793e+003,1.783105e-001
5.299650e+003,1.860003e-001
5.303507e+003,1.842715e-001
5.307365e+003,1.720758e-001
5.311222e+003,1.617223e-001
5.315079e+003,1.659625e-001
5.318936e+003,1.699830e-001
5.322793e+003,1.595757e-001
5.326650e+003,1.527196e-001
5.330507e+003,1.566613e-001
5.334364e+003,1.612815e-001
5.338221e+003,1.613879e-001
5.342079e+003,1.651796e-001
5.345936e+003,1.675554e-001
5.349792e+003,1.643446e-001
5.353650e+003,1.585346e-001
5.357507e+003,1.507247e-001
5.361364e+003,1.548969e-001
5.365221e+003,1.665917e-001
5.369078e+003,1.746601e-001
5.372935e+003,1.817078e-001
5.376792e+003,1.818044e-001
5.380649e+003,1.767915e-001
5.384506e+003,1.761115e-001
5.388364e+003,1.808913e-001
5.392221e+003,1.811306e-001
5.396078e+003,1.768949e-001
5.399935e+003,1.664081e-001
5.403792e+003,1.649397e-001
5.407649e+003,1.659436e-001
5.411506e+003,1.661340e-001
5.415363e+003,1.774773e-001
5.419220e+003,1.797727e-001
5.423078e+003,1.689117e-001
5.426935e+003,1.701351e-001
5.430792e+003,1.734215e-001
5.434649e+003,1.680688e-001
5.438506e+003,1.635028e-001
5.442363e+003,1.697057e-001
5.446220e+003,1.724586e-001
5.450077e+003,1.599506e-001
5.453934e+003,1.557713e-001
5.457792e+003,1.576598e-001
5.461648e+003,1.596610e-001
5.465505e+003,1.591688e-001
5.469363e+003,1.564578e-001
5.473220e+003,1.731624e-001
5.477077e+003,1.833026e-001
5.480934e+003,1.737023e-001
5.484791e+003,1.663747e-001
5.488648e+003,1.709079e-001
5.492505e+003,1.698096e-001
5.496362e+003,1.626731e-001
5.500219e+003,1.608561e-001
5.504077e+003,1.601344e-001
5.507934e+003,1.571793e-001
5.511791e+003,1.624076e-001
5.515648e+003,1.750459e-001
5.519505e+003,1.803623e-001
5.523362e+003,1.910597e-001
5.527219e+003,1.982898e-001
5.531076e+003,1.938601e-001
5.534933e+003,1.860042e-001
5.538791e+003,1.680750e-001
5.542647e+003,1.617472e-001
5.546504e+003,1.713171e-001
5.550362e+003,1.791534e-001
5.554219e+003,1.780863e-001
5.558076e+003,1.778694e-001
5.561933e+003,1.786137e-001
5.565790e+003,1.820422e-001
5.569647e+003,1.806736e-001
5.573504e+003,1.671678e-001
5.577361e+003,1.578735e-001
5.581218e+003,1.627204e-001
5.585076e+003,1.657025e-001
5.588933e+003,1.591413e-001
5.592790e+003,1.591263e-001
5.596647e+003,1.610632e-001
5.600504e+003,1.621758e-001
5.604361e+003,1.639064e-001
5.608218e+003,1.646679e-001
5.612075e+003,1.706388e-001
5.615932e+003,1.721275e-001
5.619790e+003,1.598466e-001
5.623646e+003,1.596019e-001
5.627503e+003,1.631333e-001
5.631361e+003,1.671594e-001
5.635218e+003,1.790563e-001
5.639075e+003,1.743707e-001
5.642932e+003,1.621921e-001
5.646789e+003,1.571555e-001
5.650646e+003,1.624842e-001
5.654503e+003,1.698059e-001
5.658360e+003,1.703271e-001
5.662217e+003,1.692001e-001
5.666075e+003,1.740192e-001
5.669932e+003,1.677507e-001
5.673789e+003,1.645465e-001
5.677646e+003,1.563130e-001
5.681503e+003,1.503950e-001
5.685360e+003,1.556377e-001
5.689217e+003,1.652335e-001
5.693074e+003,1.857188e-001
5.696931e+003,1.806463e-001
5.700789e+003,1.753383e-001
5.704646e+003,1.787397e-001
5.708502e+003,1.764561e-001
5.712360e+003,1.685568e-001
5.716217e+003,1.700797e-001
5.720074e+003,1.686578e-001
5.723931e+003,1.603812e-001
5.727788e+003,1.595173e-001
5.731645e+003,1.641188e-001
5.735502e+003,1.667086e-001
5.739359e+003,1.628665e-001
5.743216e+003,1.644700e-001
5.747074e+003,1.610912e-001
5.750931e+003,1.592242e-001
5.754788e+003,1.611644e-001
5.758645e+003,1.672816e-001
5.762502e+003,1.734630e-001
5.766359e+003,1.663435e-001
5.770216e+003,1.586268e-001
5.774073e+003,1.590548e-001
5.777930e+003,1.659964e-001
5.781788e+003,1.772746e-001
5.785645e+003,1.749861e-001
5.789501e+003,1.746195e-001
5.793359e+003,1.805612e-001
5.797216e+003,1.852694e-001
5.801073e+003,1.781467e-001
5.804930e+003,1.667334e-001
5.808787e+003,1.595230e-001
5.812644e+003,1.678813e-001
5.816501e+003,1.736421e-001
5.820358e+003,1.706976e-001
5.824215e+003,1.708156e-001
5.828073e+003,1.710892e-001
5.831930e+003,1.836850e-001
5.835787e+003,1.841246e-001
5.839644e+003,1.791365e-001
5.843501e+003,1.729921e-001
5.847358e+003,1.706425e-001
5.851215e+003,1.792059e-001
5.855072e+003,1.727499e-001
5.858929e+003,1.591487e-001
5.862787e+003,1.531463e-001
5.866644e+003,1.588002e-001
5.870500e+003,1.623018e-001
5.874358e+003,1.587409e-001
5.878215e+003,1.589396e-001
5.882072e+003,1.578764e-001
5.885929e+003,1.610555e-001
5.889786e+003,1.585172e-001
5.893643e+003,1.471489e-001
5.897500e+003,1.402110e-001
5.901357e+003,1.474896e-001
5.905214e+003,1.629544e-001
5.909072e+003,1.672622e-001
5.912929e+003,1.760645e-001
5.916786e+003,1.821916e-001
5.920643e+003,1.844878e-001
5.924500e+003,1.801675e-001
5.928357e+003,1.815408e-001
5.932214e+003,1.754080e-001
5.936071e+003,1.739581e-001
5.939928e+003,1.706425e-001
5.943786e+003,1.748562e-001
5.947643e+003,1.677668e-001
5.951500e+003,1.571073e-001
5.955357e+003,1.574250e-001
5.959214e+003,1.626313e-001
5.963071e+003,1.751945e-001
5.966928e+003,1.853341e-001
5.970785e+003,1.910182e-001
5.974642e+003,1.891288e-001
5.978500e+003,1.778843e-001
5.982356e+003,1.673384e-001
5.986213e+003,1.713649e-001
5.990071e+003,1.687092e-001
5.993928e+003,1.590035e-001
5.997785e+003,1.518404e-001
6.001642e+003,1.598543e-001
6.005499e+003,1.624583e-001
6.009356e+003,1.579894e-001
6.013213e+003,1.607597e-001
6.017070e+003,1.546157e-001
6.020927e+003,1.555468e-001
6.024785e+003,1.594933e-001
6.028642e+003,1.675485e-001
6.032499e+003,1.697241e-001
6.036356e+003,1.626367e-001
6.040213e+003,1.661927e-001
6.044070e+003,1.671021e-001
6.047927e+003,1.689508e-001
6.051784e+003,1.729340e-001
6.055641e+003,1.787263e-001
6.059499e+003,1.709974e-001
6.063355e+003,1.690281e-001
6.067212e+003,1.752688e-001
6.071070e+003,1.790870e-001
6.074927e+003,1.699604e-001
6.078784e+003,1.588705e-001
6.082641e+003,1.506030e-001
6.086498e+003,1.612501e-001
6.090355e+003,1.724142e-001
6.094212e+003,1.719127e-001
6.098069e+003,1.702908e-001
6.101926e+003,1.647522e-001
6.105784e+003,1.655277e-001
6.109641e+003,1.787113e-001
6.113498e+003,1.825658e-001
6.117355e+003,1.704741e-001
6.121212e+003,1.739669e-001
6.125069e+003,1.814634e-001
6.128926e+003,1.734260e-001
6.132783e+003,1.750845e-001
6.136640e+003,1.779935e-001
6.140498e+003,1.549113e-001
6.144354e+003,1.412339e-001
6.148211e+003,1.477333e-001
6.152069e+003,1.517227e-001
6.155926e+003,1.535997e-001
6.159783e+003,1.549528e-001
6.163640e+003,1.676377e-001
6.167497e+003,1.808492e-001
6.171354e+003,1.815786e-001
6.175211e+003,1.735887e-001
6.179068e+003,1.706724e-001
6.182925e+003,1.694098e-001
6.186783e+003,1.719082e-001
6.190640e+003,1.747222e-001
6.194497e+003,1.741238e-001
6.198354e+003,1.610127e-001
6.202211e+003,1.570113e-001
6.206068e+003,1.635115e-001
6.209925e+003,1.713402e-001
6.213782e+003,1.667594e-001
6.217639e+003,1.677795e-001
6.221497e+003,1.634314e-001
6.225354e+003,1.563821e-001
6.229210e+003,1.667689e-001
6.233068e+003,1.658327e-001
6.236925e+003,1.580644e-001
6.240782e+003,1.558862e-001
6.244639e+003,1.525004e-001
6.248496e+003,1.452475e-001
6.252353e+003,1.426839e-001
6.256210e+003,1.612826e-001
6.260067e+003,1.691604e-001
6.263924e+003,1.664504e-001
6.267782e+003,1.582110e-001
6.271639e+003,1.516673e-001
6.275496e+003,1.583725e-001
6.279353e+003,1.706802e-001
6.283210e+003,1.709732e-001
6.287067e+003,1.650780e-001
6.290924e+003,1.640606e-001
6.294781e+003,1.463426e-001
6.298638e+003,1.484491e-001
6.302496e+003,1.644832e-001
6.306353e+003,1.557746e-001
6.310209e+003,1.511160e-001
6.314067e+003,1.520844e-001
6.317924e+003,1.545969e-001
6.321781e+003,1.760551e-001
6.325638e+003,1.828572e-001
6.329495e+003,1.540612e-001
6.333352e+003,1.621627e-001
6.337209e+003,1.883039e-001
6.341066e+003,1.928985e-001
6.344923e+003,1.705839e-001
6.348780e+003,1.553559e-001
6.352638e+003,1.569699e-001
6.356495e+003,1.552033e-001
6.360352e+003,1.597814e-001
6.364209e+003,1.674446e-001
6.368066e+003,1.756668e-001
6.371923e+003,1.677327e-001
6.375780e+003,1.656726e-001
6.379637e+003,1.768349e-001
6.383494e+003,1.804137e-001
6.387352e+003,1.691674e-001
6.391208e+003,1.702959e-001
6.395065e+003,1.642600e-001
6.398923e+003,1.548516e-001
6.402780e+003,1.501099e-001
6.406637e+003,1.358375e-001
6.410494e+003,1.340885e-001
6.414351e+003,1.542706e-001
6.418208e+003,1.591948e-001
6.422065e+003,1.600134e-001
6.425922e+003,1.741245e-001
6.429779e+003,1.852524e-001
6.433637e+003,1.755978e-001
6.437494e+003,1.600420e-001
6.441351e+003,1.612119e-001
6.445208e+003,1.588563e-001
6.449065e+003,1.508484e-001
6.452922e+003,1.673286e-001
6.456779e+003,1.813576e-001
6.460636e+003,1.736796e-001
6.464493e+003,1.797536e-001
6.468351e+003,1.836720e-001
6.472208e+003,1.635623e-001
6.476064e+003,1.503856e-001
6.479922e+003,1.602791e-001
6.483779e+003,1.674096e-001
6.487636e+003,1.618546e-001
6.491493e+003,1.535991e-001
6.495350e+003,1.553320e-001
6.499207e+003,1.452016e-001
6.503064e+003,1.410237e-001
6.506921e+003,1.535548e-001
6.510778e+003,1.788716e-001
6.514636e+003,1.791389e-001
6.518493e+003,1.791702e-001
6.522350e+003,1.770568e-001
6.526207e+003,1.426463e-001
6.530064e+003,1.289984e-001
6.533921e+003,1.323251e-001
6.537778e+003,1.311702e-001
6.541635e+003,1.443481e-001
6.545492e+003,1.571624e-001
6.549350e+003,1.538266e-001
6.553207e+003,1.438166e-001
6.557063e+003,1.491827e-001
6.560921e+003,1.506372e-001
6.564778e+003,1.712707e-001
6.568635e+003,1.769635e-001
6.572492e+003,1.709223e-001
6.576349e+003,1.858698e-001
6.580206e+003,1.837071e-001
6.584063e+003,1.655690e-001
6.587920e+003,1.559159e-001
6.591777e+003,1.590647e-001
6.595635e+003,1.617022e-001
6.599492e+003,1.603698e-001
6.603349e+003,1.669951e-001
6.607206e+003,1.728685e-001
6.611063e+003,1.810117e-001
6.614920e+003,1.824370e-001
6.618777e+003,1.659359e-001
6.622634e+003,1.559435e-001
6.626491e+003,1.758539e-001
6.630349e+003,1.887742e-001
6.634206e+003,1.726033e-001
6.638063e+003,1.454468e-001
6.641920e+003,1.416430e-001
6.645777e+003,1.721111e-001
6.649634e+003,1.840120e-001
6.653491e+003,1.790233e-001
6.657348e+003,1.741183e-001
6.661205e+003,1.656216e-001
6.665063e+003,1.616582e-001
6.668919e+003,1.615071e-001
6.672776e+003,1.533648e-001
6.676634e+003,1.427947e-001
6.680491e+003,1.410947e-001
6.684348e+003,1.538471e-001
6.688205e+003,1.611618e-001
6.692062e+003,1.478191e-001
6.695919e+003,1.548760e-001
6.699776e+003,1.602186e-001
6.703633e+003,1.613301e-001
6.707490e+003,1.864932e-001
6.711348e+003,2.186505e-001
6.715205e+003,2.017416e-001
6.719062e+003,1.572731e-001
6.722919e+003,1.697706e-001
6.726776e+003,1.898285e-001
6.730633e+003,1.615376e-001
6.734490e+003,1.449319e-001
6.738347e+003,1.602048e-001
6.742204e+003,1.771637e-001
6.746062e+003,1.750548e-001
6.749918e+003,1.737919e-001
6.753775e+003,1.768181e-001
6.757633e+003,1.705179e-001
6.761490e+003,1.476711e-001
6.765347e+003,1.347178e-001
6.769204e+003,1.540415e-001
6.773061e+003,1.612436e-001
6.776918e+003,1.515941e-001
6.780775e+003,1.684910e-001
6.784632e+003,1.887237e-001
6.788489e+003,1.947523e-001
6.792347e+003,1.863556e-001
6.796204e+003,1.737377e-001
6.800061e+003,1.635362e-001
6.803918e+003,1.529785e-001
6.807775e+003,1.484488e-001
6.811632e+003,1.508809e-001
6.815489e+003,1.772716e-001
6.819346e+003,1.835961e-001
6.823203e+003,1.606568e-001
6.827061e+003,1.425807e-001
6.830917e+003,1.457663e-001
6.834774e+003,1.347003e-001
6.838632e+003,1.509071e-001
6.842489e+003,1.823753e-001
6.846346e+003,1.597883e-001
6.850203e+003,1.415785e-001
6.854060e+003,1.424733e-001
6.857917e+003,1.710953e-001
6.861774e+003,1.909616e-001
6.865631e+003,1.772595e-001
6.869488e+003,1.628068e-001
6.873346e+003,1.708771e-001
6.877203e+003,1.708401e-001
6.881060e+003,1.580883e-001
6.884917e+003,1.603035e-001
6.888774e+003,1.727661e-001
6.892631e+003,1.805550e-001
6.896488e+003,1.931580e-001
6.900345e+003,1.880343e-001
6.904202e+003,1.551421e-001
6.908060e+003,1.460675e-001
6.911917e+003,1.571465e-001
6.915773e+003,1.427441e-001
6.919631e+003,1.337241e-001
6.923488e+003,1.577678e-001
6.927345e+003,1.761026e-001
6.931202e+003,1.967285e-001
6.935059e+003,1.804536e-001
6.938916e+003,1.460398e-001
6.942773e+003,1.233968e-001
6.946630e+003,1.421317e-001
6.950487e+003,1.537414e-001
6.954345e+003,1.623318e-001
6.958202e+003,1.746008e-001
6.962059e+003,1.885176e-001
6.965916e+003,1.930142e-001
6.969773e+003,1.681141e-001
6.973630e+003,1.545808e-001
6.977487e+003,1.321578e-001
6.981344e+003,1.366147e-001
6.985201e+003,1.647680e-001
6.989059e+003,1.782035e-001
6.992916e+003,1.855861e-001
6.996772e+003,2.138856e-001
7.000630e+003,1.927845e-001
7.004487e+003,1.662797e-001
7.008344e+003,1.795702e-001
7.012201e+003,1.666820e-001
7.016058e+003,1.763990e-001
7.019915e+003,1.829822e-001
7.023772e+003,1.532290e-001
7.027629e+003,1.364047e-001
7.031486e+003,1.408056e-001
7.035344e+003,1.273713e-001
7.039201e+003,1.195235e-001
7.043058e+003,1.468297e-001
7.046915e+003,1.478719e-001
7.050772e+003,1.466161e-001
7.054629e+003,1.681682e-001
7.058486e+003,1.546004e-001
7.062343e+003,1.383436e-001
7.066200e+003,1.518778e-001
7.070058e+003,1.858583e-001
7.073915e+003,1.579387e-001
7.077771e+003,1.514000e-001
7.081629e+003,1.971588e-001
7.085486e+003,2.044287e-001
7.089343e+003,1.738527e-001
7.093200e+003,1.605152e-001
7.097057e+003,1.340411e-001
7.100914e+003,1.274608e-001
7.104771e+003,1.449675e-001
7.108628e+003,1.609785e-001
7.112485e+003,1.699818e-001
7.116343e+003,1.936287e-001
7.120200e+003,1.993234e-001
7.124057e+003,2.084093e-001
7.127914e+003,1.891046e-001
7.131771e+003,1.588411e-001
7.135628e+003,1.618592e-001
7.139485e+003,1.350895e-001
7.143342e+003,1.383044e-001
7.147199e+003,1.508784e-001
7.151057e+003,1.627271e-001
7.154914e+003,1.957104e-001
7.158771e+003,1.828452e-001
7.162628e+003,1.630091e-001
7.166485e+003,1.698539e-001
7.170342e+003,1.734852e-001
7.174199e+003,1.626633e-001
7.178056e+003,1.892266e-001
7.181913e+003,2.073961e-001
7.185771e+003,1.444654e-001
7.189627e+003,9.997451e-002
7.193484e+003,1.245538e-001
7.197342e+003,1.496483e-001
7.201199e+003,1.280691e-001
7.205056e+003,1.218862e-001
7.208913e+003,1.281260e-001
7.212770e+003,1.294848e-001
7.216627e+003,1.687167e-001
7.220484e+003,1.941808e-001
7.224341e+003,1.903229e-001
7.228198e+003,1.797422e-001
7.232056e+003,1.713609e-001
7.235913e+003,1.470891e-001
7.239770e+003,1.744758e-001
7.243627e+003,2.226882e-001
7.247484e+003,2.253609e-001
7.251341e+003,1.746319e-001
7.255198e+003,1.519347e-001
7.259055e+003,1.441359e-001
7.262912e+003,1.563416e-001
7.266770e+003,1.714077e-001
7.270626e+003,1.489560e-001
7.274483e+003,1.369359e-001
7.278341e+003,1.220394e-001
7.282198e+003,1.296400e-001
7.286055e+003,1.815820e-001
7.289912e+003,1.931390e-001
7.293769e+003,1.869270e-001
7.297626e+003,1.895153e-001
7.301483e+003,1.922104e-001
7.305340e+003,1.680287e-001
7.309197e+003,9.171747e-002
7.313055e+003,8.344140e-002
7.316912e+003,1.389713e-001
7.320769e+003,1.512797e-001
7.324626e+003,1.729233e-001
7.328483e+003,1.915588e-001
7.332340e+003,1.518514e-001
7.336197e+003,1.715387e-001
7.340054e+003,2.049906e-001
7.343911e+003,1.744920e-001
7.347769e+003,1.289767e-001
7.351625e+003,1.385621e-001
7.355482e+003,1.956417e-001
7.359340e+003,2.178425e-001
7.363197e+003,2.094655e-001
7.367054e+003,2.087414e-001
7.370911e+003,1.506307e-001
7.374768e+003,1.192225e-001
7.378625e+003,1.280786e-001
7.382482e+003,1.436539e-001
7.386339e+003,1.515065e-001
7.390196e+003,1.386383e-001
7.394054e+003,1.254246e-001
7.397911e+003,1.523320e-001
7.401768e+003,1.554304e-001
7.405625e+003,1.081053e-001
7.409482e+003,1.446056e-001
7.413339e+003,1.449498e-001
7.417196e+003,1.081063e-001
7.421053e+003,8.703752e-002
7.424910e+003,1.139752e-001
7.428768e+003,1.224179e-001
7.432625e+003,1.556798e-001
7.436481e+003,2.080317e-001
7.440339e+003,1.984951e-001
7.444196e+003,1.842623e-001
7.448053e+003,1.692583e-001
7.451910e+003,1.677358e-001
7.455767e+003,1.583117e-001
7.459624e+003,1.848337e-001
7.463481e+003,2.027496e-001
7.467338e+003,1.624845e-001
7.471195e+003,1.371739e-001
7.475053e+003,1.421040e-001
7.478910e+003,1.516230e-001
7.482767e+003,1.392465e-001
7.486624e+003,1.526946e-001
7.490481e+003,2.033221e-001
7.494338e+003,1.884041e-001
7.498195e+003,1.282535e-001
7.502052e+003,1.403742e-001
7.505909e+003,1.745684e-001
7.509767e+003,1.296728e-001
7.513624e+003,1.120649e-001
7.517480e+003,1.382893e-001
7.521338e+003,1.450399e-001
7.525195e+003,1.876676e-001
7.529052e+003,2.116583e-001
7.532909e+003,1.828716e-001
7.536766e+003,1.511125e-001
7.540623e+003,1.484425e-001
7.544480e+003,1.878853e-001
7.548337e+003,1.917754e-001
7.552194e+003,1.794798e-001
7.556052e+003,1.609735e-001
7.559909e+003,1.726360e-001
7.563766e+003,1.957109e-001
7.567623e+003,1.672691e-001
7.571480e+003,1.240054e-001
7.575337e+003,1.306497e-001
7.579194e+003,1.939185e-001
7.583051e+003,2.268387e-001
7.586908e+003,1.915915e-001
7.590766e+003,1.343166e-001
7.594623e+003,1.430816e-001
7.598479e+003,1.633151e-001
7.602337e+003,1.420063e-001
7.606194e+003,1.325082e-001
7.610051e+003,1.301225e-001
7.613908e+003,1.991499e-001
7.617765e+003,1.745812e-001
7.621622e+003,1.159243e-001
7.625479e+003,1.265017e-001
7.629336e+003,1.433805e-001
7.633193e+003,1.308868e-001
7.637051e+003,1.011286e-001
7.640908e+003,1.160883e-001
7.644765e+003,1.936232e-001
7.648622e+003,2.521236e-001
7.652479e+003,2.655488e-001
7.656336e+003,2.378097e-001
7.660193e+003,1.722344e-001
7.664050e+003,1.986641e-001
7.667907e+003,2.530505e-001
7.671765e+003,1.886591e-001
7.675622e+003,1.208848e-001
7.679479e+003,1.115713e-001
7.683336e+003,1.438387e-001
7.687193e+003,2.339957e-001
7.691050e+003,1.969069e-001
7.694907e+003,1.533738e-001
7.698764e+003,1.441349e-001
7.702621e+003,1.859942e-001
7.706479e+003,1.905111e-001
7.710335e+003,1.406105e-001
7.714192e+003,1.917301e-001
7.718050e+003,2.435874e-001
7.721907e+003,2.151238e-001
7.725764e+003,1.995325e-001
7.729621e+003,2.445793e-001
7.733478e+003,1.935991e-001
7.737335e+003,1.729071e-001
7.741192e+003,2.078380e-001
7.745049e+003,1.470697e-001
7.748906e+003,1.015276e-001
7.752764e+003,1.144819e-001
7.756621e+003,1.225537e-001
7.760478e+003,1.518378e-001
7.764335e+003,1.821569e-001
7.768192e+003,1.304047e-001
7.772049e+003,9.083533e-002
7.775906e+003,1.423524e-001
7.779763e+003,1.747107e-001
7.783620e+003,1.926574e-001
7.787478e+003,1.942073e-001
7.791334e+003,1.852129e-001
7.795191e+003,1.737029e-001
7.799049e+003,1.453368e-001
7.802906e+003,1.165813e-001
7.806763e+003,1.779531e-001
7.810620e+003,1.963109e-001
7.814477e+003,1.629489e-001
7.818334e+003,1.106606e-001
7.822191e+003,1.342077e-001
7.826048e+003,2.678758e-001
7.829905e+003,2.771562e-001
7.833763e+003,2.420339e-001
7.837620e+003,1.667714e-001
7.841477e+003,3.924108e-002
7.845334e+003,9.111939e-002
7.849191e+003,1.872296e-001
7.853048e+003,1.053967e-001
7.856905e+003,7.187468e-002
7.860762e+003,5.004887e-002
7.864619e+003,5.874192e-002
7.868477e+003,1.926937e-001
7.872333e+003,1.973202e-001
7.876190e+003,9.466454e-002
7.880048e+003,5.343338e-002
7.883905e+003,1.190427e-001
7.887762e+003,1.699272e-001
7.891619e+003,1.907066e-001
7.895476e+003,4.334315e-002
7.899333e+003,-1.017359e-001
7.903190e+003,-2.425180e-002
7.907047e+003,4.323475e-002
7.910904e+003,6.007103e-002
7.914762e+003,6.472998e-002
7.918619e+003,1.475055e-002
7.922476e+003,1.192395e-001
7.926333e+003,1.825256e-001
7.930190e+003,1.397831e-001
7.934047e+003,4.820140e-002
7.937904e+003,2.372929e-002
7.941761e+003,1.116607e-001
7.945618e+003,1.820494e-001
7.949476e+003,1.551352e-001
7.953333e+003,1.703106e-001
7.957189e+003,2.297395e-001
7.961047e+003,2.302325e-001
7.964904e+003,1.281887e-001
7.968761e+003,9.807474e-002
7.972618e+003,2.551375e-001
7.976475e+003,2.741794e-001
7.980332e+003,2.217265e-001
7.984189e+003,3.133188e-001
7.988046e+003,3.271877e-001
7.991903e+003,2.762529e-001
7.995761e+003,4.288003e-001
7.999618e+003,4.981672e-001
