4.011380e+002,6.000000e+000
4.049951e+002,6.000000e+000
4.088522e+002,6.000000e+000
4.127093e+002,6.000000e+000
4.165664e+002,6.000000e+000
4.204235e+002,6.000000e+000
4.242806e+002,-2.717968e-001
4.281377e+002,1.583516e+000
4.319948e+002,1.270754e+000
4.358519e+002,-1.867241e+000
4.397090e+002,6.000000e+000
4.435661e+002,6.000000e+000
4.474232e+002,1.583498e-001
4.512803e+002,1.386581e+000
4.551374e+002,6.000000e+000
4.589945e+002,8.087221e-001
4.628516e+002,-5.115100e-001
4.667087e+002,-1.758903e-001
4.705658e+002,6.000000e+000
4.744229e+002,6.000000e+000
4.782800e+002,6.000000e+000
4.821371e+002,6.000000e+000
4.859941e+002,-2.523407e-001
4.898513e+002,6.000000e+000
4.937083e+002,6.000000e+000
4.975654e+002,6.000000e+000
5.014225e+002,6.000000e+000
5.052796e+002,1.901025e-001
5.091367e+002,6.000000e+000
5.129938e+002,6.000000e+000
5.168509e+002,-4.068701e-001
5.207080e+002,-4.005422e-001
5.245651e+002,5.866272e-002
5.284222e+002,8.892666e-004
5.322793e+002,-1.189258e+000
5.361364e+002,-1.354219e+000
5.399935e+002,1.081978e-001
5.438506e+002,6.000000e+000
5.477077e+002,-8.285322e-001
5.515648e+002,2.582596e-001
5.554219e+002,-2.513312e-001
5.592790e+002,8.201703e-002
5.631361e+002,-4.342198e-002
5.669932e+002,6.000000e+000
5.708503e+002,6.000000e+000
5.747074e+002,8.899630e-002
5.785645e+002,2.940637e-001
5.824216e+002,6.000000e+000
5.862787e+002,6.000000e+000
5.901357e+002,6.000000e+000
5.939929e+002,-1.542309e-001
5.978499e+002,-3.778139e-001
6.017070e+002,6.000000e+000
6.055641e+002,6.000000e+000
6.094212e+002,6.000000e+000
6.132783e+002,6.000000e+000
6.171354e+002,2.423872e-001
6.209925e+002,4.731556e-002
6.248496e+002,-1.071095e+000
6.287067e+002,6.000000e+000
6.325638e+002,6.000000e+000
6.364209e+002,6.000000e+000
6.402780e+002,2.496539e-001
6.441351e+002,6.000000e+000
6.479922e+002,-2.628267e+000
6.518493e+002,6.000000e+000
6.557064e+002,6.000000e+000
6.595635e+002,6.000000e+000
6.634205e+002,6.000000e+000
6.672777e+002,6.000000e+000
6.711348e+002,6.000000e+000
6.749918e+002,2.070595e-001
6.788490e+002,6.000000e+000
6.827061e+002,-2.109039e-001
6.865631e+002,-3.783604e-001
6.904203e+002,6.000000e+000
6.942773e+002,6.000000e+000
6.981344e+002,6.000000e+000
7.019916e+002,1.303726e+000
7.058486e+002,6.000000e+000
7.097057e+002,6.000000e+000
7.135629e+002,6.000000e+000
7.174199e+002,3.149246e-001
7.212770e+002,6.000000e+000
7.251342e+002,1.292956e-001
7.289912e+002,6.000000e+000
7.328483e+002,6.000000e+000
7.367054e+002,6.000000e+000
7.405625e+002,6.000000e+000
7.444196e+002,6.000000e+000
7.482767e+002,-1.564991e-001
7.521338e+002,-5.098927e-002
7.559908e+002,1.725501e-001
7.598480e+002,6.000000e+000
7.637051e+002,6.000000e+000
7.675621e+002,2.977301e-001
7.714193e+002,4.400662e-002
7.752764e+002,-1.605692e-001
7.791334e+002,-3.837417e-001
7.829905e+002,-3.740843e-001
7.868477e+002,6.000000e+000
7.907047e+002,1.588313e+000
7.945618e+002,7.480919e-003
7.984189e+002,-4.479944e-001
8.022760e+002,6.000000e+000
8.061331e+002,6.864957e-002
8.099902e+002,-1.544893e-001
8.138473e+002,-3.334687e-001
8.177044e+002,3.630748e-002
8.215615e+002,-5.505506e-002
8.254186e+002,-2.448161e-002
8.292757e+002,6.000000e+000
8.331328e+002,6.000000e+000
8.369899e+002,6.000000e+000
8.408470e+002,7.510111e-001
8.447041e+002,5.811446e-001
8.485612e+002,1.183047e+000
8.524183e+002,6.000000e+000
8.562754e+002,6.000000e+000
8.601324e+002,6.000000e+000
8.639896e+002,8.752980e-001
8.678467e+002,1.155955e+000
8.717037e+002,6.000000e+000
8.755609e+002,1.785591e+000
8.794180e+002,5.668130e-001
8.832750e+002,7.191133e-001
8.871321e+002,9.022086e-001
8.909893e+002,1.247631e+000
8.948463e+002,1.588227e+000
8.987034e+002,2.493505e+000
9.025605e+002,6.000000e+000
9.064176e+002,2.490409e+000
9.102747e+002,6.000000e+000
9.141318e+002,6.000000e+000
9.179889e+002,6.000000e+000
9.218461e+002,6.000000e+000
9.257031e+002,1.957793e+000
9.295602e+002,1.773431e+000
9.334174e+002,2.457686e+000
9.372744e+002,2.492307e+000
9.411315e+002,2.072071e+000
9.449886e+002,2.051118e+000
9.488457e+002,1.976998e+000
9.527028e+002,1.456387e+000
9.565599e+002,1.407454e+000
9.604170e+002,2.610963e+000
9.642740e+002,2.070569e+000
9.681312e+002,1.495897e+000
9.719883e+002,1.485347e+000
9.758453e+002,2.329246e+000
9.797025e+002,6.000000e+000
9.835596e+002,6.000000e+000
9.874166e+002,1.678894e+000
9.912738e+002,1.562590e+000
9.951309e+002,1.532390e+000
9.989879e+002,1.477002e+000
1.002845e+003,1.689822e+000
1.006702e+003,1.850158e+000
1.010559e+003,1.503401e+000
1.014416e+003,1.683732e+000
1.018273e+003,1.758509e+000
1.022130e+003,1.578600e+000
1.025988e+003,1.468459e+000
1.029845e+003,1.446148e+000
1.033702e+003,1.482472e+000
1.037559e+003,1.556462e+000
1.041416e+003,1.729810e+000
1.045273e+003,1.861152e+000
1.049130e+003,1.714648e+000
1.052987e+003,1.388930e+000
1.056844e+003,1.314723e+000
1.060702e+003,1.529057e+000
1.064559e+003,1.531405e+000
1.068416e+003,1.511322e+000
1.072273e+003,1.760828e+000
1.076130e+003,1.699556e+000
1.079987e+003,1.476010e+000
1.083844e+003,1.462615e+000
1.087701e+003,1.450391e+000
1.091558e+003,1.423922e+000
1.095415e+003,1.467900e+000
1.099272e+003,1.602103e+000
1.103130e+003,1.621403e+000
1.106987e+003,1.480026e+000
1.110844e+003,1.402344e+000
1.114701e+003,1.554524e+000
1.118558e+003,1.499401e+000
1.122415e+003,1.344233e+000
1.126272e+003,1.321485e+000
1.130129e+003,1.322535e+000
1.133986e+003,1.243571e+000
1.137843e+003,1.178302e+000
1.141701e+003,1.178703e+000
1.145558e+003,1.287199e+000
1.149415e+003,1.293215e+000
1.153272e+003,1.236333e+000
1.157129e+003,1.250651e+000
1.160986e+003,1.267824e+000
1.164843e+003,1.233441e+000
1.168700e+003,1.232619e+000
1.172557e+003,1.254097e+000
1.176414e+003,1.231295e+000
1.180271e+003,1.274460e+000
1.184129e+003,1.221411e+000
1.187986e+003,1.174439e+000
1.191843e+003,1.179553e+000
1.195700e+003,1.168807e+000
1.199557e+003,1.137659e+000
1.203414e+003,1.111685e+000
1.207271e+003,1.093535e+000
1.211128e+003,1.049690e+000
1.214985e+003,9.612728e-001
1.218842e+003,8.840203e-001
1.222699e+003,8.328382e-001
1.226557e+003,7.694727e-001
1.230414e+003,7.045250e-001
1.234271e+003,6.740655e-001
1.238128e+003,6.484068e-001
1.241985e+003,6.119976e-001
1.245842e+003,5.812426e-001
1.249699e+003,5.491541e-001
1.253556e+003,5.398045e-001
1.257413e+003,5.184994e-001
1.261271e+003,4.918983e-001
1.265128e+003,4.731673e-001
1.268985e+003,4.589005e-001
1.272842e+003,4.433523e-001
1.276699e+003,4.329788e-001
1.280556e+003,4.261433e-001
1.284413e+003,4.188651e-001
1.288270e+003,4.052451e-001
1.292127e+003,3.896838e-001
1.295984e+003,3.745538e-001
1.299841e+003,3.583381e-001
1.303698e+003,3.530229e-001
1.307556e+003,3.520762e-001
1.311413e+003,3.503581e-001
1.315270e+003,3.459694e-001
1.319127e+003,3.362970e-001
1.322984e+003,3.313759e-001
1.326841e+003,3.252165e-001
1.330698e+003,3.196256e-001
1.334555e+003,3.117006e-001
1.338412e+003,3.120512e-001
1.342270e+003,3.152087e-001
1.346127e+003,3.125082e-001
1.349984e+003,3.083261e-001
1.353841e+003,3.058060e-001
1.357698e+003,3.038469e-001
1.361555e+003,3.107837e-001
1.365412e+003,3.162934e-001
1.369269e+003,3.178425e-001
1.373126e+003,3.196902e-001
1.376983e+003,3.280072e-001
1.380840e+003,3.360205e-001
1.384698e+003,3.445406e-001
1.388555e+003,3.540227e-001
1.392412e+003,3.611260e-001
1.396269e+003,3.713172e-001
1.400126e+003,3.875184e-001
1.403983e+003,4.040385e-001
1.407840e+003,4.127173e-001
1.411697e+003,4.182597e-001
1.415554e+003,4.351769e-001
1.419411e+003,4.427973e-001
1.423269e+003,4.457753e-001
1.427126e+003,4.522496e-001
1.430983e+003,4.543223e-001
1.434840e+003,4.551919e-001
1.438697e+003,4.570566e-001
1.442554e+003,4.533531e-001
1.446411e+003,4.470210e-001
1.450268e+003,4.390308e-001
1.454125e+003,4.371922e-001
1.457982e+003,4.264358e-001
1.461839e+003,4.159473e-001
1.465697e+003,4.134327e-001
1.469554e+003,4.129192e-001
1.473411e+003,4.112284e-001
1.477268e+003,4.127372e-001
1.481125e+003,4.164576e-001
1.484982e+003,4.212479e-001
1.488839e+003,4.369439e-001
1.492696e+003,4.522037e-001
1.496553e+003,4.576555e-001
1.500411e+003,4.620516e-001
1.504268e+003,4.656160e-001
1.508125e+003,4.635014e-001
1.511982e+003,4.672126e-001
1.515839e+003,4.738829e-001
1.519696e+003,4.671171e-001
1.523553e+003,4.542083e-001
1.527410e+003,4.429570e-001
1.531267e+003,4.366940e-001
1.535124e+003,4.275671e-001
1.538981e+003,4.130581e-001
1.542839e+003,3.983577e-001
1.546696e+003,3.923644e-001
1.550553e+003,3.801147e-001
1.554410e+003,3.721560e-001
1.558267e+003,3.699798e-001
1.562124e+003,3.621568e-001
1.565981e+003,3.507723e-001
1.569838e+003,3.436598e-001
1.573695e+003,3.368651e-001
1.577552e+003,3.343940e-001
1.581410e+003,3.370803e-001
1.585267e+003,3.381966e-001
1.589124e+003,3.379059e-001
1.592981e+003,3.383746e-001
1.596838e+003,3.432235e-001
1.600695e+003,3.506972e-001
1.604552e+003,3.641727e-001
1.608409e+003,3.797182e-001
1.612266e+003,3.962189e-001
1.616123e+003,4.188154e-001
1.619980e+003,4.404936e-001
1.623838e+003,4.500009e-001
1.627695e+003,4.615947e-001
1.631552e+003,4.778543e-001
1.635409e+003,4.893515e-001
1.639266e+003,4.962701e-001
1.643123e+003,4.891825e-001
1.646980e+003,4.769204e-001
1.650837e+003,4.720217e-001
1.654694e+003,4.629380e-001
1.658551e+003,4.442507e-001
1.662409e+003,4.240746e-001
1.666266e+003,4.099024e-001
1.670123e+003,3.995972e-001
1.673980e+003,3.839292e-001
1.677837e+003,3.679807e-001
1.681694e+003,3.524211e-001
1.685551e+003,3.387166e-001
1.689408e+003,3.224843e-001
1.693265e+003,3.124235e-001
1.697122e+003,3.064267e-001
1.700979e+003,2.940237e-001
1.704837e+003,2.871758e-001
1.708694e+003,2.843321e-001
1.712551e+003,2.828367e-001
1.716408e+003,2.740946e-001
1.720265e+003,2.699875e-001
1.724122e+003,2.742180e-001
1.727979e+003,2.710437e-001
1.731836e+003,2.655340e-001
1.735693e+003,2.680356e-001
1.739550e+003,2.733412e-001
1.743408e+003,2.724103e-001
1.747265e+003,2.723046e-001
1.751122e+003,2.743028e-001
1.754979e+003,2.698810e-001
1.758836e+003,2.642364e-001
1.762693e+003,2.653939e-001
1.766550e+003,2.689755e-001
1.770407e+003,2.635699e-001
1.774264e+003,2.566923e-001
1.778121e+003,2.566718e-001
1.781979e+003,2.576768e-001
1.785836e+003,2.564405e-001
1.789693e+003,2.521604e-001
1.793550e+003,2.475931e-001
1.797407e+003,2.438414e-001
1.801264e+003,2.390867e-001
1.805121e+003,2.395024e-001
1.808978e+003,2.423618e-001
1.812835e+003,2.424635e-001
1.816692e+003,2.413930e-001
1.820549e+003,2.370836e-001
1.824407e+003,2.361712e-001
1.828264e+003,2.369781e-001
1.832121e+003,2.360630e-001
1.835978e+003,2.410433e-001
1.839835e+003,2.430008e-001
1.843692e+003,2.411821e-001
1.847549e+003,2.383225e-001
1.851406e+003,2.370817e-001
1.855263e+003,2.380133e-001
1.859120e+003,2.369053e-001
1.862978e+003,2.329932e-001
1.866835e+003,2.323418e-001
1.870692e+003,2.333901e-001
1.874549e+003,2.330230e-001
1.878406e+003,2.327497e-001
1.882263e+003,2.318745e-001
1.886120e+003,2.266590e-001
1.889977e+003,2.245548e-001
1.893834e+003,2.253998e-001
1.897691e+003,2.276726e-001
1.901548e+003,2.242492e-001
1.905406e+003,2.187023e-001
1.909263e+003,2.169010e-001
1.913120e+003,2.188151e-001
1.916977e+003,2.216930e-001
1.920834e+003,2.195993e-001
1.924691e+003,2.134115e-001
1.928548e+003,2.115517e-001
1.932405e+003,2.170589e-001
1.936262e+003,2.197652e-001
1.940119e+003,2.153682e-001
1.943977e+003,2.110148e-001
1.947834e+003,2.118699e-001
1.951691e+003,2.119429e-001
1.955548e+003,2.151323e-001
1.959405e+003,2.167096e-001
1.963262e+003,2.138620e-001
1.967119e+003,2.140243e-001
1.970976e+003,2.157777e-001
1.974833e+003,2.133709e-001
1.978690e+003,2.122383e-001
1.982547e+003,2.124338e-001
1.986405e+003,2.119616e-001
1.990262e+003,2.091214e-001
1.994119e+003,2.061323e-001
1.997976e+003,2.092624e-001
2.001833e+003,2.078948e-001
2.005690e+003,2.022344e-001
2.009547e+003,2.025562e-001
2.013404e+003,2.029200e-001
2.017261e+003,2.002813e-001
2.021118e+003,2.000128e-001
2.024976e+003,1.992637e-001
2.028833e+003,1.964723e-001
2.032690e+003,1.945509e-001
2.036547e+003,1.945760e-001
2.040404e+003,1.957123e-001
2.044261e+003,1.942381e-001
2.048118e+003,1.939021e-001
2.051975e+003,1.927262e-001
2.055832e+003,1.934796e-001
2.059689e+003,1.913010e-001
2.063546e+003,1.914763e-001
2.067404e+003,1.960384e-001
2.071261e+003,1.991092e-001
2.075118e+003,1.999754e-001
2.078975e+003,1.971051e-001
2.082832e+003,1.958310e-001
2.086689e+003,1.985531e-001
2.090546e+003,1.992994e-001
2.094403e+003,1.980187e-001
2.098260e+003,1.995561e-001
2.102117e+003,1.993217e-001
2.105975e+003,1.972607e-001
2.109832e+003,1.980451e-001
2.113689e+003,1.968266e-001
2.117546e+003,1.951426e-001
2.121403e+003,1.928175e-001
2.125260e+003,1.915625e-001
2.129117e+003,1.914714e-001
2.132974e+003,1.913223e-001
2.136831e+003,1.892122e-001
2.140688e+003,1.898225e-001
2.144545e+003,1.895379e-001
2.148403e+003,1.887006e-001
2.152260e+003,1.898183e-001
2.156117e+003,1.911474e-001
2.159974e+003,1.913275e-001
2.163831e+003,1.884929e-001
2.167688e+003,1.887760e-001
2.171545e+003,1.930839e-001
2.175402e+003,1.961411e-001
2.179259e+003,1.957704e-001
2.183116e+003,1.936222e-001
2.186974e+003,1.971891e-001
2.190831e+003,2.009501e-001
2.194688e+003,2.009995e-001
2.198545e+003,2.020264e-001
2.202402e+003,2.057626e-001
2.206259e+003,2.058836e-001
2.210116e+003,2.046164e-001
2.213973e+003,2.036691e-001
2.217830e+003,2.051614e-001
2.221688e+003,2.048797e-001
2.225544e+003,2.020820e-001
2.229402e+003,2.026876e-001
2.233259e+003,1.987054e-001
2.237116e+003,1.960902e-001
2.240973e+003,2.006999e-001
2.244830e+003,2.016846e-001
2.248687e+003,1.982938e-001
2.252544e+003,1.971828e-001
2.256401e+003,1.985888e-001
2.260258e+003,1.971804e-001
2.264115e+003,1.959331e-001
2.267973e+003,2.000322e-001
2.271830e+003,2.026494e-001
2.275687e+003,2.014554e-001
2.279544e+003,2.020977e-001
2.283401e+003,2.044893e-001
2.287258e+003,2.059211e-001
2.291115e+003,2.066970e-001
2.294972e+003,2.082828e-001
2.298829e+003,2.069805e-001
2.302687e+003,2.063341e-001
2.306543e+003,2.076258e-001
2.310401e+003,2.104122e-001
2.314258e+003,2.150716e-001
2.318115e+003,2.151877e-001
2.321972e+003,2.153627e-001
2.325829e+003,2.171926e-001
2.329686e+003,2.135437e-001
2.333543e+003,2.083134e-001
2.337400e+003,2.074363e-001
2.341257e+003,2.132122e-001
2.345115e+003,2.168763e-001
2.348972e+003,2.134217e-001
2.352829e+003,2.075496e-001
2.356686e+003,2.038638e-001
2.360543e+003,2.046653e-001
2.364400e+003,2.079401e-001
2.368257e+003,2.055047e-001
2.372114e+003,2.047576e-001
2.375971e+003,2.069428e-001
2.379828e+003,2.065956e-001
2.383686e+003,2.063530e-001
2.387542e+003,2.093499e-001
2.391400e+003,2.123196e-001
2.395257e+003,2.112322e-001
2.399114e+003,2.112693e-001
2.402971e+003,2.131795e-001
2.406828e+003,2.122447e-001
2.410685e+003,2.088381e-001
2.414542e+003,2.088374e-001
2.418399e+003,2.136106e-001
2.422256e+003,2.164954e-001
2.426114e+003,2.152624e-001
2.429971e+003,2.137593e-001
2.433828e+003,2.143580e-001
2.437685e+003,2.173561e-001
2.441542e+003,2.192045e-001
2.445399e+003,2.172114e-001
2.449256e+003,2.160823e-001
2.453113e+003,2.151085e-001
2.456970e+003,2.183792e-001
2.460827e+003,2.159624e-001
2.464684e+003,2.112125e-001
2.468542e+003,2.098980e-001
2.472399e+003,2.109126e-001
2.476256e+003,2.088750e-001
2.480113e+003,2.062710e-001
2.483970e+003,2.061166e-001
2.487827e+003,2.046531e-001
2.491684e+003,2.049550e-001
2.495541e+003,2.067531e-001
2.499398e+003,2.060928e-001
2.503255e+003,2.037387e-001
2.507113e+003,2.022506e-001
2.510969e+003,2.034654e-001
2.514827e+003,2.050770e-001
2.518684e+003,2.062935e-001
2.522541e+003,2.074695e-001
2.526398e+003,2.055646e-001
2.530255e+003,2.045048e-001
2.534112e+003,2.079241e-001
2.537969e+003,2.133030e-001
2.541826e+003,2.118138e-001
2.545683e+003,2.111928e-001
2.549541e+003,2.160716e-001
2.553398e+003,2.152018e-001
2.557255e+003,2.162396e-001
2.561112e+003,2.207272e-001
2.564969e+003,2.237771e-001
2.568826e+003,2.245757e-001
2.572683e+003,2.250067e-001
2.576540e+003,2.251004e-001
2.580397e+003,2.220686e-001
2.584254e+003,2.231698e-001
2.588112e+003,2.260775e-001
2.591969e+003,2.262918e-001
2.595826e+003,2.282243e-001
2.599683e+003,2.306073e-001
2.603540e+003,2.298922e-001
2.607397e+003,2.250279e-001
2.611254e+003,2.220829e-001
2.615111e+003,2.268031e-001
2.618968e+003,2.300400e-001
2.622825e+003,2.345331e-001
2.626682e+003,2.374796e-001
2.630540e+003,2.375475e-001
2.634397e+003,2.400681e-001
2.638254e+003,2.393264e-001
2.642111e+003,2.381286e-001
2.645968e+003,2.411567e-001
2.649825e+003,2.450971e-001
2.653682e+003,2.463986e-001
2.657539e+003,2.482305e-001
2.661396e+003,2.523470e-001
2.665253e+003,2.574038e-001
2.669111e+003,2.614240e-001
2.672968e+003,2.634791e-001
2.676825e+003,2.648393e-001
2.680682e+003,2.670206e-001
2.684539e+003,2.678353e-001
2.688396e+003,2.697192e-001
2.692253e+003,2.766340e-001
2.696110e+003,2.786193e-001
2.699967e+003,2.788556e-001
2.703824e+003,2.827903e-001
2.707681e+003,2.842318e-001
2.711539e+003,2.817377e-001
2.715396e+003,2.818916e-001
2.719253e+003,2.856393e-001
2.723110e+003,2.906377e-001
2.726967e+003,2.898827e-001
2.730824e+003,2.902157e-001
2.734681e+003,2.931581e-001
2.738538e+003,2.953722e-001
2.742395e+003,2.988540e-001
2.746252e+003,3.010731e-001
2.750110e+003,3.027796e-001
2.753967e+003,3.027941e-001
2.757824e+003,3.053689e-001
2.761681e+003,3.104152e-001
2.765538e+003,3.134475e-001
2.769395e+003,3.172875e-001
2.773252e+003,3.209643e-001
2.777109e+003,3.247741e-001
2.780966e+003,3.241237e-001
2.784823e+003,3.269316e-001
2.788680e+003,3.362918e-001
2.792538e+003,3.418656e-001
2.796395e+003,3.440984e-001
2.800252e+003,3.465067e-001
2.804109e+003,3.467114e-001
2.807966e+003,3.470966e-001
2.811823e+003,3.505761e-001
2.815680e+003,3.553262e-001
2.819537e+003,3.571250e-001
2.823394e+003,3.575524e-001
2.827251e+003,3.618084e-001
2.831109e+003,3.688150e-001
2.834966e+003,3.701310e-001
2.838823e+003,3.717154e-001
2.842680e+003,3.746952e-001
2.846537e+003,3.816771e-001
2.850394e+003,3.875385e-001
2.854251e+003,3.889927e-001
2.858108e+003,3.894209e-001
2.861965e+003,3.915629e-001
2.865823e+003,3.885193e-001
2.869679e+003,3.926507e-001
2.873537e+003,4.006916e-001
2.877394e+003,4.047805e-001
2.881251e+003,4.107639e-001
2.885108e+003,4.176699e-001
2.888965e+003,4.209364e-001
2.892822e+003,4.218019e-001
2.896679e+003,4.280724e-001
2.900536e+003,4.326355e-001
2.904393e+003,4.299608e-001
2.908250e+003,4.312155e-001
2.912108e+003,4.409301e-001
2.915965e+003,4.548408e-001
2.919822e+003,4.606473e-001
2.923679e+003,4.565704e-001
2.927536e+003,4.511901e-001
2.931393e+003,4.549257e-001
2.935250e+003,4.626779e-001
2.939107e+003,4.699080e-001
2.942964e+003,4.758836e-001
2.946822e+003,4.785487e-001
2.950678e+003,4.838070e-001
2.954536e+003,4.860616e-001
2.958393e+003,4.860699e-001
2.962250e+003,4.857689e-001
2.966107e+003,4.864407e-001
2.969964e+003,4.958799e-001
2.973821e+003,5.046920e-001
2.977678e+003,5.015445e-001
2.981535e+003,5.062320e-001
2.985392e+003,5.194807e-001
2.989250e+003,5.262531e-001
2.993107e+003,5.225915e-001
2.996964e+003,5.257676e-001
3.000821e+003,5.300549e-001
3.004678e+003,5.318468e-001
3.008535e+003,5.367365e-001
3.012392e+003,5.431246e-001
3.016249e+003,5.491729e-001
3.020106e+003,5.486017e-001
3.023963e+003,5.519735e-001
3.027821e+003,5.621531e-001
3.031677e+003,5.636800e-001
3.035535e+003,5.619758e-001
3.039392e+003,5.672365e-001
3.043249e+003,5.775611e-001
3.047106e+003,5.883862e-001
3.050963e+003,5.926759e-001
3.054820e+003,5.973862e-001
3.058677e+003,6.005172e-001
3.062534e+003,6.004474e-001
3.066391e+003,6.017549e-001
3.070249e+003,6.123893e-001
3.074106e+003,6.225064e-001
3.077963e+003,6.225106e-001
3.081820e+003,6.261732e-001
3.085677e+003,6.293290e-001
3.089534e+003,6.310479e-001
3.093391e+003,6.342329e-001
3.097248e+003,6.399676e-001
3.101105e+003,6.401033e-001
3.104962e+003,6.449851e-001
3.108820e+003,6.553850e-001
3.112677e+003,6.575967e-001
3.116534e+003,6.627688e-001
3.120391e+003,6.723523e-001
3.124248e+003,6.904154e-001
3.128105e+003,6.898605e-001
3.131962e+003,6.832584e-001
3.135819e+003,6.844023e-001
3.139676e+003,6.902254e-001
3.143533e+003,7.001535e-001
3.147390e+003,7.071359e-001
3.151248e+003,7.121421e-001
3.155105e+003,7.225475e-001
3.158962e+003,7.226165e-001
3.162819e+003,7.244363e-001
3.166676e+003,7.355800e-001
3.170533e+003,7.431085e-001
3.174390e+003,7.442669e-001
3.178247e+003,7.402763e-001
3.182104e+003,7.385748e-001
3.185961e+003,7.519537e-001
3.189819e+003,7.704621e-001
3.193676e+003,7.741109e-001
3.197533e+003,7.732347e-001
3.201390e+003,7.799637e-001
3.205247e+003,7.832577e-001
3.209104e+003,7.859724e-001
3.212961e+003,7.965229e-001
3.216818e+003,8.065789e-001
3.220675e+003,8.098707e-001
3.224532e+003,8.151410e-001
3.228389e+003,8.208886e-001
3.232247e+003,8.280978e-001
3.236104e+003,8.232341e-001
3.239961e+003,8.120098e-001
3.243818e+003,8.211900e-001
3.247675e+003,8.379785e-001
3.251532e+003,8.369542e-001
3.255389e+003,8.419334e-001
3.259246e+003,8.398355e-001
3.263103e+003,8.312473e-001
3.266960e+003,8.271397e-001
3.270818e+003,8.363221e-001
3.274675e+003,8.542297e-001
3.278532e+003,8.602558e-001
3.282389e+003,8.652311e-001
3.286246e+003,8.663870e-001
3.290103e+003,8.580540e-001
3.293960e+003,8.658057e-001
3.297817e+003,8.788801e-001
3.301674e+003,8.883547e-001
3.305531e+003,8.995219e-001
3.309388e+003,8.936825e-001
3.313246e+003,8.784250e-001
3.317103e+003,8.861701e-001
3.320960e+003,9.064395e-001
3.324817e+003,9.299160e-001
3.328674e+003,9.268816e-001
3.332531e+003,9.316121e-001
3.336388e+003,9.506486e-001
3.340245e+003,9.404987e-001
3.344102e+003,9.367306e-001
3.347959e+003,9.375072e-001
3.351817e+003,9.448488e-001
3.355674e+003,9.448867e-001
3.359531e+003,9.370497e-001
3.363388e+003,9.513996e-001
3.367245e+003,9.729380e-001
3.371102e+003,9.794873e-001
3.374959e+003,9.871471e-001
3.378816e+003,9.758739e-001
3.382673e+003,9.481340e-001
3.386530e+003,9.612522e-001
3.390387e+003,9.997992e-001
3.394245e+003,1.007616e+000
3.398102e+003,9.971013e-001
3.401959e+003,9.942568e-001
3.405816e+003,1.002080e+000
3.409673e+003,1.002628e+000
3.413530e+003,1.001084e+000
3.417387e+003,9.929339e-001
3.421244e+003,9.926008e-001
3.425101e+003,1.009315e+000
3.428958e+003,1.008631e+000
3.432815e+003,1.011582e+000
3.436673e+003,1.003585e+000
3.440530e+003,1.002997e+000
3.444387e+003,1.017811e+000
3.448244e+003,1.023177e+000
3.452101e+003,1.014612e+000
3.455958e+003,1.016324e+000
3.459815e+003,1.011572e+000
3.463672e+003,1.019285e+000
3.467529e+003,1.023615e+000
3.471386e+003,1.029512e+000
3.475244e+003,1.034532e+000
3.479101e+003,1.027509e+000
3.482958e+003,1.027796e+000
3.486815e+003,1.027630e+000
3.490672e+003,1.048749e+000
3.494529e+003,1.045408e+000
3.498386e+003,1.035313e+000
3.502243e+003,1.029744e+000
3.506100e+003,1.032408e+000
3.509958e+003,1.042661e+000
3.513814e+003,1.037524e+000
3.517672e+003,1.028500e+000
3.521529e+003,1.032012e+000
3.525386e+003,1.049774e+000
3.529243e+003,1.060421e+000
3.533100e+003,1.042930e+000
3.536957e+003,1.037592e+000
3.540814e+003,1.035593e+000
3.544671e+003,1.024099e+000
3.548528e+003,1.023808e+000
3.552385e+003,1.014585e+000
3.556243e+003,1.015575e+000
3.560100e+003,1.013324e+000
3.563957e+003,9.996002e-001
3.567814e+003,9.914512e-001
3.571671e+003,9.938907e-001
3.575528e+003,9.880761e-001
3.579385e+003,9.795828e-001
3.583242e+003,9.582561e-001
3.587099e+003,9.456463e-001
3.590957e+003,9.398161e-001
3.594813e+003,9.104081e-001
3.598671e+003,8.931978e-001
3.602528e+003,8.620045e-001
3.606385e+003,8.201094e-001
3.610242e+003,7.884876e-001
3.614099e+003,7.596290e-001
3.617956e+003,7.306859e-001
3.621813e+003,6.909727e-001
3.625670e+003,6.514086e-001
3.629527e+003,6.203969e-001
3.633385e+003,5.839967e-001
3.637242e+003,5.424647e-001
3.641099e+003,4.985178e-001
3.644956e+003,4.572747e-001
3.648813e+003,4.243228e-001
3.652670e+003,3.972130e-001
3.656527e+003,3.711835e-001
3.660384e+003,3.453032e-001
3.664241e+003,3.203845e-001
3.668098e+003,2.952469e-001
3.671956e+003,2.717427e-001
3.675813e+003,2.549391e-001
3.679670e+003,2.391435e-001
3.683527e+003,2.276515e-001
3.687384e+003,2.154960e-001
3.691241e+003,2.062071e-001
3.695098e+003,1.999753e-001
3.698955e+003,1.902528e-001
3.702812e+003,1.857537e-001
3.706669e+003,1.789809e-001
3.710526e+003,1.708823e-001
3.714384e+003,1.702382e-001
3.718241e+003,1.662902e-001
3.722098e+003,1.591766e-001
3.725955e+003,1.579153e-001
3.729812e+003,1.576345e-001
3.733669e+003,1.532457e-001
3.737526e+003,1.473770e-001
3.741383e+003,1.411117e-001
3.745240e+003,1.370673e-001
3.749097e+003,1.350121e-001
3.752955e+003,1.337774e-001
3.756812e+003,1.379719e-001
3.760669e+003,1.386870e-001
3.764526e+003,1.348837e-001
3.768383e+003,1.349414e-001
3.772240e+003,1.350221e-001
3.776097e+003,1.351109e-001
3.779954e+003,1.353298e-001
3.783811e+003,1.358713e-001
3.787668e+003,1.358981e-001
3.791525e+003,1.343501e-001
3.795383e+003,1.354411e-001
3.799240e+003,1.387874e-001
3.803097e+003,1.399273e-001
3.806954e+003,1.404583e-001
3.810811e+003,1.439606e-001
3.814668e+003,1.498934e-001
3.818525e+003,1.482008e-001
3.822382e+003,1.457530e-001
3.826239e+003,1.471107e-001
3.830096e+003,1.447673e-001
3.833954e+003,1.415779e-001
3.837811e+003,1.351082e-001
3.841668e+003,1.331256e-001
3.845525e+003,1.330113e-001
3.849382e+003,1.314231e-001
3.853239e+003,1.333325e-001
3.857096e+003,1.333442e-001
3.860953e+003,1.300886e-001
3.864810e+003,1.308908e-001
3.868667e+003,1.289973e-001
3.872524e+003,1.260110e-001
3.876382e+003,1.292637e-001
3.880239e+003,1.291740e-001
3.884096e+003,1.225993e-001
3.887953e+003,1.230422e-001
3.891810e+003,1.308805e-001
3.895667e+003,1.311702e-001
3.899524e+003,1.293573e-001
3.903381e+003,1.286868e-001
3.907238e+003,1.320909e-001
3.911095e+003,1.342754e-001
3.914953e+003,1.363850e-001
3.918810e+003,1.369738e-001
3.922667e+003,1.361759e-001
3.926524e+003,1.386890e-001
3.930381e+003,1.355646e-001
3.934238e+003,1.330577e-001
3.938095e+003,1.349588e-001
3.941952e+003,1.381404e-001
3.945809e+003,1.368008e-001
3.949667e+003,1.344009e-001
3.953523e+003,1.319111e-001
3.957381e+003,1.327218e-001
3.961238e+003,1.357173e-001
3.965095e+003,1.366096e-001
3.968952e+003,1.332476e-001
3.972809e+003,1.278208e-001
3.976666e+003,1.269855e-001
3.980523e+003,1.266157e-001
3.984380e+003,1.251682e-001
3.988237e+003,1.257624e-001
3.992094e+003,1.261303e-001
3.995952e+003,1.223900e-001
3.999809e+003,1.188691e-001
4.003666e+003,1.194985e-001
4.007523e+003,1.241678e-001
4.011380e+003,1.257955e-001
4.015237e+003,1.221857e-001
4.019094e+003,1.229058e-001
4.022951e+003,1.274215e-001
4.026808e+003,1.288113e-001
4.030666e+003,1.315339e-001
4.034522e+003,1.314325e-001
4.038380e+003,1.338110e-001
4.042237e+003,1.349828e-001
4.046094e+003,1.315763e-001
4.049951e+003,1.324599e-001
4.053808e+003,1.357836e-001
4.057665e+003,1.375948e-001
4.061522e+003,1.366880e-001
4.065379e+003,1.364922e-001
4.069236e+003,1.415444e-001
4.073094e+003,1.409180e-001
4.076951e+003,1.358961e-001
4.080808e+003,1.336921e-001
4.084665e+003,1.324978e-001
4.088522e+003,1.339057e-001
4.092379e+003,1.356900e-001
4.096236e+003,1.329515e-001
4.100093e+003,1.251845e-001
4.103950e+003,1.213528e-001
4.107808e+003,1.213907e-001
4.111665e+003,1.242833e-001
4.115521e+003,1.243473e-001
4.119379e+003,1.219187e-001
4.123236e+003,1.231851e-001
4.127093e+003,1.241910e-001
4.130950e+003,1.256583e-001
4.134807e+003,1.250651e-001
4.138664e+003,1.233212e-001
4.142521e+003,1.221941e-001
4.146378e+003,1.236052e-001
4.150235e+003,1.259008e-001
4.154093e+003,1.279576e-001
4.157950e+003,1.276259e-001
4.161807e+003,1.281969e-001
4.165664e+003,1.287785e-001
4.169521e+003,1.334820e-001
4.173378e+003,1.373098e-001
4.177235e+003,1.368618e-001
4.181092e+003,1.345859e-001
4.184949e+003,1.331544e-001
4.188807e+003,1.329546e-001
4.192664e+003,1.322795e-001
4.196521e+003,1.316106e-001
4.200378e+003,1.302165e-001
4.204235e+003,1.267388e-001
4.208092e+003,1.246875e-001
4.211949e+003,1.243570e-001
4.215806e+003,1.260600e-001
4.219663e+003,1.230987e-001
4.223521e+003,1.236790e-001
4.227377e+003,1.232605e-001
4.231234e+003,1.198468e-001
4.235092e+003,1.199342e-001
4.238949e+003,1.200933e-001
4.242806e+003,1.155474e-001
4.246663e+003,1.218707e-001
4.250520e+003,1.275211e-001
4.254377e+003,1.254558e-001
4.258234e+003,1.227434e-001
4.262091e+003,1.261486e-001
4.265948e+003,1.345762e-001
4.269806e+003,1.341077e-001
4.273663e+003,1.296448e-001
4.277520e+003,1.291554e-001
4.281377e+003,1.340899e-001
4.285234e+003,1.306496e-001
4.289091e+003,1.281649e-001
4.292948e+003,1.316899e-001
4.296805e+003,1.337513e-001
4.300662e+003,1.338470e-001
4.304520e+003,1.365616e-001
4.308376e+003,1.397782e-001
4.312233e+003,1.383056e-001
4.316091e+003,1.386884e-001
4.319948e+003,1.366476e-001
4.323805e+003,1.315868e-001
4.327662e+003,1.314508e-001
4.331519e+003,1.342074e-001
4.335376e+003,1.350031e-001
4.339233e+003,1.298451e-001
4.343090e+003,1.273596e-001
4.346947e+003,1.268788e-001
4.350805e+003,1.282723e-001
4.354662e+003,1.273515e-001
4.358519e+003,1.206262e-001
4.362376e+003,1.190583e-001
4.366233e+003,1.198745e-001
4.370090e+003,1.213694e-001
4.373947e+003,1.271175e-001
4.377804e+003,1.309020e-001
4.381661e+003,1.317550e-001
4.385519e+003,1.311875e-001
4.389375e+003,1.241897e-001
4.393232e+003,1.231914e-001
4.397090e+003,1.283394e-001
4.400947e+003,1.290868e-001
4.404804e+003,1.286820e-001
4.408661e+003,1.322408e-001
4.412518e+003,1.370891e-001
4.416375e+003,1.392511e-001
4.420232e+003,1.396118e-001
4.424089e+003,1.494227e-001
4.427946e+003,1.562975e-001
4.431804e+003,1.507807e-001
4.435661e+003,1.463713e-001
4.439518e+003,1.519136e-001
4.443375e+003,1.506405e-001
4.447232e+003,1.420257e-001
4.451089e+003,1.402691e-001
4.454946e+003,1.409072e-001
4.458803e+003,1.434378e-001
4.462660e+003,1.433424e-001
4.466518e+003,1.380185e-001
4.470375e+003,1.286937e-001
4.474231e+003,1.278226e-001
4.478089e+003,1.292761e-001
4.481946e+003,1.290375e-001
4.485803e+003,1.295751e-001
4.489660e+003,1.321193e-001
4.493517e+003,1.305764e-001
4.497375e+003,1.245251e-001
4.501231e+003,1.254369e-001
4.505088e+003,1.265114e-001
4.508946e+003,1.300812e-001
4.512803e+003,1.317852e-001
4.516660e+003,1.313099e-001
4.520517e+003,1.317349e-001
4.524374e+003,1.316279e-001
4.528231e+003,1.292113e-001
4.532088e+003,1.326534e-001
4.535945e+003,1.379163e-001
4.539802e+003,1.344272e-001
4.543660e+003,1.389983e-001
4.547517e+003,1.390530e-001
4.551374e+003,1.345014e-001
4.555231e+003,1.370684e-001
4.559088e+003,1.379894e-001
4.562945e+003,1.317292e-001
4.566802e+003,1.339905e-001
4.570659e+003,1.423754e-001
4.574516e+003,1.418511e-001
4.578374e+003,1.339601e-001
4.582230e+003,1.304224e-001
4.586087e+003,1.298992e-001
4.589945e+003,1.283444e-001
4.593802e+003,1.279237e-001
4.597659e+003,1.218634e-001
4.601516e+003,1.183131e-001
4.605373e+003,1.217854e-001
4.609230e+003,1.251964e-001
4.613087e+003,1.281748e-001
4.616944e+003,1.286777e-001
4.620801e+003,1.233123e-001
4.624659e+003,1.200503e-001
4.628516e+003,1.234614e-001
4.632373e+003,1.263278e-001
4.636230e+003,1.238135e-001
4.640087e+003,1.206126e-001
4.643944e+003,1.277498e-001
4.647801e+003,1.344516e-001
4.651658e+003,1.301402e-001
4.655515e+003,1.275287e-001
4.659373e+003,1.343046e-001
4.663229e+003,1.391971e-001
4.667086e+003,1.412180e-001
4.670944e+003,1.459475e-001
4.674801e+003,1.415618e-001
4.678658e+003,1.350290e-001
4.682515e+003,1.319453e-001
4.686372e+003,1.341310e-001
4.690229e+003,1.376110e-001
4.694086e+003,1.360830e-001
4.697943e+003,1.347967e-001
4.701800e+003,1.420269e-001
4.705658e+003,1.427253e-001
4.709515e+003,1.321048e-001
4.713372e+003,1.278357e-001
4.717229e+003,1.300855e-001
4.721086e+003,1.310246e-001
4.724943e+003,1.300518e-001
4.728800e+003,1.309547e-001
4.732657e+003,1.305569e-001
4.736514e+003,1.232142e-001
4.740372e+003,1.197136e-001
4.744229e+003,1.236644e-001
4.748085e+003,1.264286e-001
4.751943e+003,1.247340e-001
4.755800e+003,1.361106e-001
4.759657e+003,1.443845e-001
4.763514e+003,1.351142e-001
4.767371e+003,1.281428e-001
4.771228e+003,1.310122e-001
4.775085e+003,1.307901e-001
4.778942e+003,1.308222e-001
4.782799e+003,1.390169e-001
4.786657e+003,1.418545e-001
4.790514e+003,1.375690e-001
4.794371e+003,1.401395e-001
4.798228e+003,1.441635e-001
4.802085e+003,1.424345e-001
4.805942e+003,1.416197e-001
4.809799e+003,1.439684e-001
4.813656e+003,1.387642e-001
4.817513e+003,1.325032e-001
4.821371e+003,1.388175e-001
4.825228e+003,1.490515e-001
4.829084e+003,1.452485e-001
4.832942e+003,1.372257e-001
4.836799e+003,1.325574e-001
4.840656e+003,1.233921e-001
4.844513e+003,1.243606e-001
4.848370e+003,1.242632e-001
4.852227e+003,1.157634e-001
4.856084e+003,1.213573e-001
4.859941e+003,1.258263e-001
4.863798e+003,1.271884e-001
4.867656e+003,1.341546e-001
4.871513e+003,1.366502e-001
4.875370e+003,1.326109e-001
4.879227e+003,1.365290e-001
4.883084e+003,1.412251e-001
4.886941e+003,1.396932e-001
4.890798e+003,1.401404e-001
4.894655e+003,1.414142e-001
4.898512e+003,1.431343e-001
4.902370e+003,1.414213e-001
4.906227e+003,1.415795e-001
4.910083e+003,1.488808e-001
4.913941e+003,1.523154e-001
4.917798e+003,1.432443e-001
4.921655e+003,1.376054e-001
4.925512e+003,1.381551e-001
4.929369e+003,1.472630e-001
4.933226e+003,1.449132e-001
4.937083e+003,1.380780e-001
4.940940e+003,1.386811e-001
4.944797e+003,1.433356e-001
4.948655e+003,1.402776e-001
4.952512e+003,1.373225e-001
4.956369e+003,1.395786e-001
4.960226e+003,1.373393e-001
4.964083e+003,1.324734e-001
4.967940e+003,1.306700e-001
4.971797e+003,1.331285e-001
4.975654e+003,1.330696e-001
4.979511e+003,1.324366e-001
4.983369e+003,1.300036e-001
4.987226e+003,1.298905e-001
4.991083e+003,1.419500e-001
4.994940e+003,1.448833e-001
4.998797e+003,1.420051e-001
5.002654e+003,1.406909e-001
5.006511e+003,1.356367e-001
5.010368e+003,1.336760e-001
5.014225e+003,1.378152e-001
5.018083e+003,1.427107e-001
5.021939e+003,1.463922e-001
5.025796e+003,1.432649e-001
5.029654e+003,1.450342e-001
5.033511e+003,1.526284e-001
5.037368e+003,1.479573e-001
5.041225e+003,1.486289e-001
5.045082e+003,1.470966e-001
5.048939e+003,1.491635e-001
5.052796e+003,1.496675e-001
5.056653e+003,1.483111e-001
5.060510e+003,1.536082e-001
5.064368e+003,1.538151e-001
5.068225e+003,1.458227e-001
5.072082e+003,1.450011e-001
5.075939e+003,1.483625e-001
5.079796e+003,1.399258e-001
5.083653e+003,1.324127e-001
5.087510e+003,1.278012e-001
5.091367e+003,1.314561e-001
5.095224e+003,1.297151e-001
5.099082e+003,1.253232e-001
5.102938e+003,1.291772e-001
5.106795e+003,1.375406e-001
5.110653e+003,1.377606e-001
5.114510e+003,1.315473e-001
5.118367e+003,1.353319e-001
5.122224e+003,1.400456e-001
5.126081e+003,1.371086e-001
5.129938e+003,1.412903e-001
5.133795e+003,1.382108e-001
5.137652e+003,1.374499e-001
5.141509e+003,1.458158e-001
5.145367e+003,1.526984e-001
5.149224e+003,1.521929e-001
5.153081e+003,1.558075e-001
5.156938e+003,1.572791e-001
5.160795e+003,1.565555e-001
5.164652e+003,1.543535e-001
5.168509e+003,1.479855e-001
5.172366e+003,1.478550e-001
5.176223e+003,1.522320e-001
5.180081e+003,1.479331e-001
5.183938e+003,1.454922e-001
5.187794e+003,1.465340e-001
5.191652e+003,1.478556e-001
5.195509e+003,1.524583e-001
5.199366e+003,1.537667e-001
5.203223e+003,1.532422e-001
5.207080e+003,1.425126e-001
5.210937e+003,1.374361e-001
5.214794e+003,1.444579e-001
5.218651e+003,1.533780e-001
5.222508e+003,1.518703e-001
5.226366e+003,1.416198e-001
5.230223e+003,1.361194e-001
5.234080e+003,1.370862e-001
5.237937e+003,1.372177e-001
5.241794e+003,1.340995e-001
5.245651e+003,1.382807e-001
5.249508e+003,1.419619e-001
5.253365e+003,1.400444e-001
5.257222e+003,1.361287e-001
5.261080e+003,1.340408e-001
5.264937e+003,1.397374e-001
5.268793e+003,1.438706e-001
5.272651e+003,1.434171e-001
5.276508e+003,1.414908e-001
5.280365e+003,1.449932e-001
5.284222e+003,1.509155e-001
5.288079e+003,1.558820e-001
5.291936e+003,1.562875e-001
5.295793e+003,1.432131e-001
5.299650e+003,1.317897e-001
5.303507e+003,1.418137e-001
5.307365e+003,1.556531e-001
5.311222e+003,1.507182e-001
5.315079e+003,1.390481e-001
5.318936e+003,1.422379e-001
5.322793e+003,1.392154e-001
5.326650e+003,1.415989e-001
5.330507e+003,1.466311e-001
5.334364e+003,1.414217e-001
5.338221e+003,1.442156e-001
5.342079e+003,1.470036e-001
5.345936e+003,1.439317e-001
5.349792e+003,1.358758e-001
5.353650e+003,1.335487e-001
5.357507e+003,1.384435e-001
5.361364e+003,1.295449e-001
5.365221e+003,1.341053e-001
5.369078e+003,1.417948e-001
5.372935e+003,1.382554e-001
5.376792e+003,1.359326e-001
5.380649e+003,1.361723e-001
5.384506e+003,1.428146e-001
5.388364e+003,1.476428e-001
5.392221e+003,1.413403e-001
5.396078e+003,1.396636e-001
5.399935e+003,1.468858e-001
5.403792e+003,1.489000e-001
5.407649e+003,1.543554e-001
5.411506e+003,1.581811e-001
5.415363e+003,1.549958e-001
5.419220e+003,1.516043e-001
5.423078e+003,1.571961e-001
5.426935e+003,1.504188e-001
5.430792e+003,1.331375e-001
5.434649e+003,1.341454e-001
5.438506e+003,1.417256e-001
5.442363e+003,1.468139e-001
5.446220e+003,1.520665e-001
5.450077e+003,1.565976e-001
5.453934e+003,1.501146e-001
5.457792e+003,1.405136e-001
5.461648e+003,1.411932e-001
5.465505e+003,1.381579e-001
5.469363e+003,1.311250e-001
5.473220e+003,1.347175e-001
5.477077e+003,1.418644e-001
5.480934e+003,1.394363e-001
5.484791e+003,1.384605e-001
5.488648e+003,1.381496e-001
5.492505e+003,1.303963e-001
5.496362e+003,1.239961e-001
5.500219e+003,1.325273e-001
5.504077e+003,1.379412e-001
5.507934e+003,1.375789e-001
5.511791e+003,1.377000e-001
5.515648e+003,1.388670e-001
5.519505e+003,1.430456e-001
5.523362e+003,1.392327e-001
5.527219e+003,1.380195e-001
5.531076e+003,1.471902e-001
5.534933e+003,1.548615e-001
5.538791e+003,1.522640e-001
5.542647e+003,1.499839e-001
5.546504e+003,1.549239e-001
5.550362e+003,1.544270e-001
5.554219e+003,1.467086e-001
5.558076e+003,1.428003e-001
5.561933e+003,1.362995e-001
5.565790e+003,1.353965e-001
5.569647e+003,1.448252e-001
5.573504e+003,1.541548e-001
5.577361e+003,1.511888e-001
5.581218e+003,1.477932e-001
5.585076e+003,1.495140e-001
5.588933e+003,1.470617e-001
5.592790e+003,1.415339e-001
5.596647e+003,1.469375e-001
5.600504e+003,1.470088e-001
5.604361e+003,1.337907e-001
5.608218e+003,1.337821e-001
5.612075e+003,1.321084e-001
5.615932e+003,1.386215e-001
5.619790e+003,1.376413e-001
5.623646e+003,1.391600e-001
5.627503e+003,1.459436e-001
5.631361e+003,1.446350e-001
5.635218e+003,1.429054e-001
5.639075e+003,1.476493e-001
5.642932e+003,1.507245e-001
5.646789e+003,1.475488e-001
5.650646e+003,1.403338e-001
5.654503e+003,1.368416e-001
5.658360e+003,1.418723e-001
5.662217e+003,1.467116e-001
5.666075e+003,1.532102e-001
5.669932e+003,1.503706e-001
5.673789e+003,1.478116e-001
5.677646e+003,1.520758e-001
5.681503e+003,1.485617e-001
5.685360e+003,1.426239e-001
5.689217e+003,1.423547e-001
5.693074e+003,1.409262e-001
5.696931e+003,1.347885e-001
5.700789e+003,1.286216e-001
5.704646e+003,1.421786e-001
5.708502e+003,1.587149e-001
5.712360e+003,1.516856e-001
5.716217e+003,1.371155e-001
5.720074e+003,1.345160e-001
5.723931e+003,1.341525e-001
5.727788e+003,1.325182e-001
5.731645e+003,1.383288e-001
5.735502e+003,1.343974e-001
5.739359e+003,1.285296e-001
5.743216e+003,1.263743e-001
5.747074e+003,1.300825e-001
5.750931e+003,1.425218e-001
5.754788e+003,1.502153e-001
5.758645e+003,1.456010e-001
5.762502e+003,1.417165e-001
5.766359e+003,1.416356e-001
5.770216e+003,1.431108e-001
5.774073e+003,1.434541e-001
5.777930e+003,1.451815e-001
5.781788e+003,1.505105e-001
5.785645e+003,1.606042e-001
5.789501e+003,1.709105e-001
5.793359e+003,1.611067e-001
5.797216e+003,1.525606e-001
5.801073e+003,1.600780e-001
5.804930e+003,1.590724e-001
5.808787e+003,1.412162e-001
5.812644e+003,1.368921e-001
5.816501e+003,1.364530e-001
5.820358e+003,1.368459e-001
5.824215e+003,1.437687e-001
5.828073e+003,1.386422e-001
5.831930e+003,1.399029e-001
5.835787e+003,1.409121e-001
5.839644e+003,1.387300e-001
5.843501e+003,1.354035e-001
5.847358e+003,1.348096e-001
5.851215e+003,1.331153e-001
5.855072e+003,1.411389e-001
5.858929e+003,1.433506e-001
5.862787e+003,1.385399e-001
5.866644e+003,1.303764e-001
5.870500e+003,1.312578e-001
5.874358e+003,1.447474e-001
5.878215e+003,1.501316e-001
5.882072e+003,1.500043e-001
5.885929e+003,1.499292e-001
5.889786e+003,1.516187e-001
5.893643e+003,1.556643e-001
5.897500e+003,1.558851e-001
5.901357e+003,1.454651e-001
5.905214e+003,1.443452e-001
5.909072e+003,1.424463e-001
5.912929e+003,1.427258e-001
5.916786e+003,1.453152e-001
5.920643e+003,1.465877e-001
5.924500e+003,1.457905e-001
5.928357e+003,1.537267e-001
5.932214e+003,1.475029e-001
5.936071e+003,1.303973e-001
5.939928e+003,1.322154e-001
5.943786e+003,1.404879e-001
5.947643e+003,1.432749e-001
5.951500e+003,1.409206e-001
5.955357e+003,1.356138e-001
5.959214e+003,1.290873e-001
5.963071e+003,1.332322e-001
5.966928e+003,1.392989e-001
5.970785e+003,1.335634e-001
5.974642e+003,1.359611e-001
5.978500e+003,1.404076e-001
5.982356e+003,1.348011e-001
5.986213e+003,1.252321e-001
5.990071e+003,1.286193e-001
5.993928e+003,1.355059e-001
5.997785e+003,1.465466e-001
6.001642e+003,1.639725e-001
6.005499e+003,1.636782e-001
6.009356e+003,1.565460e-001
6.013213e+003,1.504598e-001
6.017070e+003,1.488194e-001
6.020927e+003,1.416404e-001
6.024785e+003,1.394329e-001
6.028642e+003,1.429340e-001
6.032499e+003,1.418884e-001
6.036356e+003,1.443594e-001
6.040213e+003,1.524083e-001
6.044070e+003,1.514186e-001
6.047927e+003,1.454340e-001
6.051784e+003,1.414173e-001
6.055641e+003,1.358854e-001
6.059499e+003,1.244043e-001
6.063355e+003,1.285619e-001
6.067212e+003,1.370586e-001
6.071070e+003,1.282375e-001
6.074927e+003,1.327030e-001
6.078784e+003,1.448946e-001
6.082641e+003,1.340769e-001
6.086498e+003,1.295043e-001
6.090355e+003,1.320447e-001
6.094212e+003,1.291849e-001
6.098069e+003,1.308355e-001
6.101926e+003,1.274160e-001
6.105784e+003,1.338460e-001
6.109641e+003,1.375514e-001
6.113498e+003,1.368804e-001
6.117355e+003,1.348491e-001
6.121212e+003,1.382340e-001
6.125069e+003,1.318946e-001
6.128926e+003,1.226448e-001
6.132783e+003,1.306872e-001
6.136640e+003,1.351432e-001
6.140498e+003,1.340836e-001
6.144354e+003,1.486917e-001
6.148211e+003,1.505374e-001
6.152069e+003,1.327796e-001
6.155926e+003,1.308141e-001
6.159783e+003,1.336645e-001
6.163640e+003,1.333852e-001
6.167497e+003,1.366117e-001
6.171354e+003,1.434497e-001
6.175211e+003,1.560980e-001
6.179068e+003,1.605254e-001
6.182925e+003,1.508940e-001
6.186783e+003,1.462750e-001
6.190640e+003,1.458615e-001
6.194497e+003,1.316019e-001
6.198354e+003,1.341183e-001
6.202211e+003,1.488270e-001
6.206068e+003,1.464550e-001
6.209925e+003,1.351717e-001
6.213782e+003,1.240863e-001
6.217639e+003,1.214528e-001
6.221497e+003,1.202246e-001
6.225354e+003,1.220873e-001
6.229210e+003,1.292233e-001
6.233068e+003,1.352033e-001
6.236925e+003,1.414586e-001
6.240782e+003,1.427742e-001
6.244639e+003,1.348785e-001
6.248496e+003,1.420107e-001
6.252353e+003,1.586924e-001
6.256210e+003,1.468479e-001
6.260067e+003,1.310611e-001
6.263924e+003,1.282388e-001
6.267782e+003,1.285675e-001
6.271639e+003,1.438904e-001
6.275496e+003,1.446418e-001
6.279353e+003,1.374042e-001
6.283210e+003,1.429153e-001
6.287067e+003,1.426606e-001
6.290924e+003,1.460110e-001
6.294781e+003,1.594190e-001
6.298638e+003,1.551576e-001
6.302496e+003,1.605030e-001
6.306353e+003,1.504122e-001
6.310209e+003,1.387711e-001
6.314067e+003,1.352396e-001
6.317924e+003,1.383932e-001
6.321781e+003,1.440238e-001
6.325638e+003,1.415925e-001
6.329495e+003,1.295748e-001
6.333352e+003,1.309616e-001
6.337209e+003,1.356415e-001
6.341066e+003,1.302685e-001
6.344923e+003,1.249643e-001
6.348780e+003,1.296805e-001
6.352638e+003,1.359118e-001
6.356495e+003,1.432937e-001
6.360352e+003,1.413320e-001
6.364209e+003,1.435484e-001
6.368066e+003,1.477510e-001
6.371923e+003,1.229575e-001
6.375780e+003,1.125047e-001
6.379637e+003,1.249436e-001
6.383494e+003,1.298505e-001
6.387352e+003,1.201144e-001
6.391208e+003,1.207656e-001
6.395065e+003,1.534618e-001
6.398923e+003,1.568224e-001
6.402780e+003,1.513940e-001
6.406637e+003,1.619387e-001
6.410494e+003,1.734605e-001
6.414351e+003,1.635823e-001
6.418208e+003,1.419580e-001
6.422065e+003,1.409838e-001
6.425922e+003,1.419861e-001
6.429779e+003,1.372688e-001
6.433637e+003,1.527058e-001
6.437494e+003,1.552496e-001
6.441351e+003,1.386768e-001
6.445208e+003,1.434519e-001
6.449065e+003,1.519547e-001
6.452922e+003,1.313750e-001
6.456779e+003,1.214268e-001
6.460636e+003,1.392269e-001
6.464493e+003,1.440236e-001
6.468351e+003,1.401504e-001
6.472208e+003,1.369256e-001
6.476064e+003,1.291639e-001
6.479922e+003,1.284456e-001
6.483779e+003,1.357425e-001
6.487636e+003,1.272441e-001
6.491493e+003,1.232198e-001
6.495350e+003,1.381158e-001
6.499207e+003,1.579231e-001
6.503064e+003,1.499431e-001
6.506921e+003,1.467497e-001
6.510778e+003,1.486079e-001
6.514636e+003,1.528161e-001
6.518493e+003,1.572981e-001
6.522350e+003,1.601804e-001
6.526207e+003,1.554768e-001
6.530064e+003,1.518084e-001
6.533921e+003,1.618222e-001
6.537778e+003,1.578985e-001
6.541635e+003,1.459875e-001
6.545492e+003,1.486326e-001
6.549350e+003,1.463826e-001
6.553207e+003,1.418037e-001
6.557063e+003,1.343017e-001
6.560921e+003,1.505580e-001
6.564778e+003,1.503591e-001
6.568635e+003,1.286368e-001
6.572492e+003,1.272212e-001
6.576349e+003,1.410791e-001
6.580206e+003,1.459352e-001
6.584063e+003,1.421508e-001
6.587920e+003,1.347794e-001
6.591777e+003,1.385024e-001
6.595635e+003,1.503527e-001
6.599492e+003,1.467310e-001
6.603349e+003,1.345262e-001
6.607206e+003,1.529355e-001
6.611063e+003,1.628300e-001
6.614920e+003,1.601684e-001
6.618777e+003,1.367492e-001
6.622634e+003,1.218783e-001
6.626491e+003,1.500980e-001
6.630349e+003,1.821325e-001
6.634206e+003,1.736667e-001
6.638063e+003,1.614485e-001
6.641920e+003,1.591822e-001
6.645777e+003,1.418281e-001
6.649634e+003,1.296941e-001
6.653491e+003,1.353827e-001
6.657348e+003,1.437737e-001
6.661205e+003,1.567241e-001
6.665063e+003,1.805721e-001
6.668919e+003,1.751022e-001
6.672776e+003,1.406850e-001
6.676634e+003,1.279103e-001
6.680491e+003,1.449044e-001
6.684348e+003,1.569339e-001
6.688205e+003,1.452964e-001
6.692062e+003,1.439631e-001
6.695919e+003,1.477851e-001
6.699776e+003,1.417461e-001
6.703633e+003,1.366643e-001
6.707490e+003,1.373754e-001
6.711348e+003,1.292882e-001
6.715205e+003,1.388683e-001
6.719062e+003,1.566616e-001
6.722919e+003,1.554429e-001
6.726776e+003,1.525913e-001
6.730633e+003,1.498385e-001
6.734490e+003,1.466256e-001
6.738347e+003,1.534470e-001
6.742204e+003,1.743690e-001
6.746062e+003,1.813873e-001
6.749918e+003,1.503608e-001
6.753775e+003,1.503113e-001
6.757633e+003,1.499918e-001
6.761490e+003,1.401878e-001
6.765347e+003,1.357761e-001
6.769204e+003,1.544661e-001
6.773061e+003,1.564343e-001
6.776918e+003,1.515658e-001
6.780775e+003,1.564568e-001
6.784632e+003,1.462779e-001
6.788489e+003,1.280335e-001
6.792347e+003,1.167253e-001
6.796204e+003,1.240839e-001
6.800061e+003,1.321101e-001
6.803918e+003,1.230286e-001
6.807775e+003,1.168541e-001
6.811632e+003,1.536482e-001
6.815489e+003,1.503980e-001
6.819346e+003,1.279307e-001
6.823203e+003,1.440366e-001
6.827061e+003,1.692707e-001
6.830917e+003,1.779426e-001
6.834774e+003,1.719853e-001
6.838632e+003,1.647820e-001
6.842489e+003,1.542286e-001
6.846346e+003,1.403608e-001
6.850203e+003,1.447715e-001
6.854060e+003,1.414113e-001
6.857917e+003,1.352278e-001
6.861774e+003,1.584624e-001
6.865631e+003,1.813465e-001
6.869488e+003,1.822473e-001
6.873346e+003,1.578678e-001
6.877203e+003,1.511154e-001
6.881060e+003,1.881087e-001
6.884917e+003,1.890656e-001
6.888774e+003,1.679146e-001
6.892631e+003,1.492998e-001
6.896488e+003,1.159309e-001
6.900345e+003,1.276899e-001
6.904202e+003,1.667865e-001
6.908060e+003,1.689939e-001
6.911917e+003,1.874493e-001
6.915773e+003,1.813264e-001
6.919631e+003,1.384501e-001
6.923488e+003,1.190334e-001
6.927345e+003,1.339848e-001
6.931202e+003,1.601314e-001
6.935059e+003,1.615410e-001
6.938916e+003,1.444196e-001
6.942773e+003,1.362122e-001
6.946630e+003,1.278564e-001
6.950487e+003,1.281338e-001
6.954345e+003,1.207693e-001
6.958202e+003,1.156859e-001
6.962059e+003,1.457406e-001
6.965916e+003,1.574762e-001
6.969773e+003,1.419805e-001
6.973630e+003,1.443924e-001
6.977487e+003,1.344278e-001
6.981344e+003,1.372548e-001
6.985201e+003,1.546359e-001
6.989059e+003,1.756790e-001
6.992916e+003,1.860599e-001
6.996772e+003,1.724727e-001
7.000630e+003,1.448549e-001
7.004487e+003,1.179647e-001
7.008344e+003,1.282302e-001
7.012201e+003,1.632575e-001
7.016058e+003,1.725679e-001
7.019915e+003,1.499727e-001
7.023772e+003,1.404233e-001
7.027629e+003,1.459100e-001
7.031486e+003,1.751374e-001
7.035344e+003,1.849857e-001
7.039201e+003,1.576498e-001
7.043058e+003,1.412801e-001
7.046915e+003,1.498145e-001
7.050772e+003,1.491771e-001
7.054629e+003,1.534504e-001
7.058486e+003,1.501399e-001
7.062343e+003,1.371932e-001
7.066200e+003,1.483007e-001
7.070058e+003,1.940488e-001
7.073915e+003,1.885231e-001
7.077771e+003,1.472182e-001
7.081629e+003,1.291705e-001
7.085486e+003,1.576717e-001
7.089343e+003,1.557586e-001
7.093200e+003,1.413605e-001
7.097057e+003,1.415751e-001
7.100914e+003,1.675837e-001
7.104771e+003,1.677091e-001
7.108628e+003,1.566643e-001
7.112485e+003,1.456900e-001
7.116343e+003,1.315987e-001
7.120200e+003,1.497785e-001
7.124057e+003,1.585012e-001
7.127914e+003,1.469146e-001
7.131771e+003,1.251697e-001
7.135628e+003,1.180355e-001
7.139485e+003,1.454944e-001
7.143342e+003,1.262643e-001
7.147199e+003,9.481273e-002
7.151057e+003,1.102589e-001
7.154914e+003,1.324464e-001
7.158771e+003,1.219310e-001
7.162628e+003,1.292401e-001
7.166485e+003,1.586633e-001
7.170342e+003,1.772789e-001
7.174199e+003,1.677709e-001
7.178056e+003,1.382771e-001
7.181913e+003,1.285562e-001
7.185771e+003,1.401644e-001
7.189627e+003,1.556256e-001
7.193484e+003,1.723771e-001
7.197342e+003,1.824074e-001
7.201199e+003,1.658907e-001
7.205056e+003,1.604780e-001
7.208913e+003,1.318572e-001
7.212770e+003,1.208037e-001
7.216627e+003,1.485284e-001
7.220484e+003,1.214294e-001
7.224341e+003,1.020756e-001
7.228198e+003,1.464923e-001
7.232056e+003,1.567111e-001
7.235913e+003,1.461128e-001
7.239770e+003,1.500574e-001
7.243627e+003,1.518490e-001
7.247484e+003,1.407025e-001
7.251341e+003,1.425367e-001
7.255198e+003,1.161186e-001
7.259055e+003,1.160131e-001
7.262912e+003,1.621294e-001
7.266770e+003,1.815523e-001
7.270626e+003,1.598646e-001
7.274483e+003,1.600787e-001
7.278341e+003,1.816213e-001
7.282198e+003,1.704369e-001
7.286055e+003,1.463187e-001
7.289912e+003,1.694677e-001
7.293769e+003,1.807900e-001
7.297626e+003,1.745226e-001
7.301483e+003,1.840464e-001
7.305340e+003,1.826540e-001
7.309197e+003,1.766856e-001
7.313055e+003,1.760821e-001
7.316912e+003,1.549630e-001
7.320769e+003,1.266789e-001
7.324626e+003,1.346107e-001
7.328483e+003,1.486211e-001
7.332340e+003,1.410769e-001
7.336197e+003,1.198758e-001
7.340054e+003,9.592812e-002
7.343911e+003,9.078787e-002
7.347769e+003,1.281279e-001
7.351625e+003,1.404273e-001
7.355482e+003,1.325535e-001
7.359340e+003,1.277047e-001
7.363197e+003,1.400000e-001
7.367054e+003,1.325931e-001
7.370911e+003,9.364039e-002
7.374768e+003,1.142538e-001
7.378625e+003,1.625312e-001
7.382482e+003,1.540748e-001
7.386339e+003,1.375721e-001
7.390196e+003,1.126489e-001
7.394054e+003,9.868199e-002
7.397911e+003,1.573812e-001
7.401768e+003,1.670617e-001
7.405625e+003,1.251405e-001
7.409482e+003,4.470661e-002
7.413339e+003,4.088797e-002
7.417196e+003,8.834822e-002
7.421053e+003,9.348150e-002
7.424910e+003,1.546322e-001
7.428768e+003,1.875179e-001
7.432625e+003,1.555216e-001
7.436481e+003,1.012057e-001
7.440339e+003,8.649255e-002
7.444196e+003,9.430197e-002
7.448053e+003,1.048588e-001
7.451910e+003,1.049438e-001
7.455767e+003,1.393611e-001
7.459624e+003,1.454658e-001
7.463481e+003,1.239847e-001
7.467338e+003,1.311894e-001
7.471195e+003,1.620370e-001
7.475053e+003,1.826501e-001
7.478910e+003,1.898957e-001
7.482767e+003,1.695399e-001
7.486624e+003,1.778496e-001
7.490481e+003,2.224139e-001
7.494338e+003,1.937582e-001
7.498195e+003,1.956149e-001
7.502052e+003,2.085256e-001
7.505909e+003,1.730171e-001
7.509767e+003,1.607944e-001
7.513624e+003,1.627263e-001
7.517480e+003,1.644778e-001
7.521338e+003,1.721966e-001
7.525195e+003,1.224948e-001
7.529052e+003,1.687880e-001
7.532909e+003,2.376847e-001
7.536766e+003,1.692915e-001
7.540623e+003,1.587464e-001
7.544480e+003,1.596036e-001
7.548337e+003,1.554275e-001
7.552194e+003,1.736231e-001
7.556052e+003,1.489182e-001
7.559909e+003,1.538970e-001
7.563766e+003,1.479418e-001
7.567623e+003,6.966271e-002
7.571480e+003,7.352542e-002
7.575337e+003,1.669389e-001
7.579194e+003,1.687012e-001
7.583051e+003,9.708939e-002
7.586908e+003,1.076323e-001
7.590766e+003,1.482315e-001
7.594623e+003,1.153906e-001
7.598479e+003,1.251475e-001
7.602337e+003,1.378138e-001
7.606194e+003,8.119114e-002
7.610051e+003,7.230242e-002
7.613908e+003,1.685421e-001
7.617765e+003,1.964583e-001
7.621622e+003,1.414735e-001
7.625479e+003,8.379152e-002
7.629336e+003,9.971436e-002
7.633193e+003,1.161848e-001
7.637051e+003,1.283361e-001
7.640908e+003,2.140971e-001
7.644765e+003,2.138497e-001
7.648622e+003,1.566112e-001
7.652479e+003,1.460931e-001
7.656336e+003,1.296435e-001
7.660193e+003,1.225212e-001
7.664050e+003,1.077767e-001
7.667907e+003,1.199630e-001
7.671765e+003,1.683590e-001
7.675622e+003,1.683075e-001
7.679479e+003,1.820756e-001
7.683336e+003,1.761012e-001
7.687193e+003,1.454343e-001
7.691050e+003,1.037421e-001
7.694907e+003,4.945478e-002
7.698764e+003,1.006655e-001
7.702621e+003,1.541569e-001
7.706479e+003,1.590298e-001
7.710335e+003,1.118524e-001
7.714192e+003,1.248302e-001
7.718050e+003,1.674215e-001
7.721907e+003,1.733345e-001
7.725764e+003,1.444917e-001
7.729621e+003,1.699142e-001
7.733478e+003,2.334801e-001
7.737335e+003,2.596825e-001
7.741192e+003,1.925271e-001
7.745049e+003,1.588318e-001
7.748906e+003,1.751792e-001
7.752764e+003,1.602090e-001
7.756621e+003,1.489698e-001
7.760478e+003,2.485894e-001
7.764335e+003,2.894804e-001
7.768192e+003,2.076027e-001
7.772049e+003,1.728060e-001
7.775906e+003,1.732105e-001
7.779763e+003,1.768473e-001
7.783620e+003,1.377458e-001
7.787478e+003,1.609407e-001
7.791334e+003,2.209895e-001
7.795191e+003,2.601057e-001
7.799049e+003,2.024794e-001
7.802906e+003,1.755822e-001
7.806763e+003,1.656232e-001
7.810620e+003,1.671006e-001
7.814477e+003,1.843889e-001
7.818334e+003,1.330420e-001
7.822191e+003,9.265358e-002
7.826048e+003,1.268331e-001
7.829905e+003,1.630584e-001
7.833763e+003,2.028999e-001
7.837620e+003,1.991310e-001
7.841477e+003,1.262326e-001
7.845334e+003,1.135437e-001
7.849191e+003,1.183157e-001
7.853048e+003,8.119601e-002
7.856905e+003,1.293354e-001
7.860762e+003,1.792744e-001
7.864619e+003,2.471036e-001
7.868477e+003,2.931546e-001
7.872333e+003,2.524309e-001
7.876190e+003,2.123239e-001
7.880048e+003,2.003666e-001
7.883905e+003,1.839892e-001
7.887762e+003,1.358203e-001
7.891619e+003,1.279598e-001
7.895476e+003,1.208349e-001
7.899333e+003,1.132413e-001
7.903190e+003,8.787534e-002
7.907047e+003,4.867070e-002
7.910904e+003,6.393065e-002
7.914762e+003,7.155881e-002
7.918619e+003,1.031809e-001
7.922476e+003,1.240207e-001
7.926333e+003,1.203415e-001
7.930190e+003,1.957669e-001
7.934047e+003,2.125495e-001
7.937904e+003,1.536155e-001
7.941761e+003,1.163896e-001
7.945618e+003,1.502252e-001
7.949476e+003,2.273396e-001
7.953333e+003,2.724413e-001
7.957189e+003,1.893435e-001
7.961047e+003,7.029972e-002
7.964904e+003,1.096512e-001
7.968761e+003,1.241161e-001
7.972618e+003,1.815678e-001
7.976475e+003,1.662972e-001
7.980332e+003,1.301582e-001
7.984189e+003,1.912384e-001
7.988046e+003,1.714663e-001
7.991903e+003,1.343493e-001
7.995761e+003,5.416621e-002
7.999618e+003,4.417267e-002
