4.011380e+002,6.000000e+000
4.049951e+002,6.000000e+000
4.088522e+002,6.000000e+000
4.127093e+002,-1.177907e+000
4.165664e+002,-4.691140e-001
4.204235e+002,-1.202042e-001
4.242806e+002,1.850264e-003
4.281377e+002,6.000000e+000
4.319948e+002,-5.562473e-001
4.358519e+002,4.938418e-001
4.397090e+002,4.221071e-001
4.435661e+002,6.000000e+000
4.474232e+002,6.000000e+000
4.512803e+002,6.000000e+000
4.551374e+002,6.000000e+000
4.589945e+002,6.000000e+000
4.628516e+002,6.000000e+000
4.667087e+002,2.191342e-001
4.705658e+002,1.269004e+000
4.744229e+002,4.762621e-001
4.782800e+002,6.000000e+000
4.821371e+002,6.000000e+000
4.859941e+002,-5.014858e-001
4.898513e+002,-4.662037e-002
4.937083e+002,1.261301e-001
4.975654e+002,6.538958e-001
5.014225e+002,6.000000e+000
5.052796e+002,6.000000e+000
5.091367e+002,6.000000e+000
5.129938e+002,6.000000e+000
5.168509e+002,3.574587e-001
5.207080e+002,6.000000e+000
5.245651e+002,6.000000e+000
5.284222e+002,9.130707e-001
5.322793e+002,-4.052456e-001
5.361364e+002,6.000000e+000
5.399935e+002,6.640203e-001
5.438506e+002,-1.049712e-001
5.477077e+002,6.000000e+000
5.515648e+002,6.000000e+000
5.554219e+002,2.183424e+000
5.592790e+002,6.061122e-001
5.631361e+002,-1.158582e-001
5.669932e+002,6.000000e+000
5.708503e+002,6.000000e+000
5.747074e+002,6.822777e-001
5.785645e+002,-4.620643e-001
5.824216e+002,-2.104261e-001
5.862787e+002,-3.635935e-001
5.901357e+002,6.000000e+000
5.939929e+002,6.000000e+000
5.978499e+002,6.000000e+000
6.017070e+002,6.000000e+000
6.055641e+002,-6.957840e-002
6.094212e+002,6.000000e+000
6.132783e+002,9.338893e-001
6.171354e+002,9.438478e-001
6.209925e+002,6.000000e+000
6.248496e+002,6.000000e+000
6.287067e+002,6.000000e+000
6.325638e+002,6.000000e+000
6.364209e+002,6.000000e+000
6.402780e+002,3.723706e-001
6.441351e+002,8.084618e-002
6.479922e+002,6.000000e+000
6.518493e+002,-4.494696e-001
6.557064e+002,-1.045925e-001
6.595635e+002,-4.924033e-001
6.634205e+002,6.000000e+000
6.672777e+002,2.587163e-001
6.711348e+002,6.000000e+000
6.749918e+002,6.000000e+000
6.788490e+002,6.000000e+000
6.827061e+002,-3.762670e-001
6.865631e+002,-4.083498e-002
6.904203e+002,6.000000e+000
6.942773e+002,6.000000e+000
6.981344e+002,6.000000e+000
7.019916e+002,1.138407e+000
7.058486e+002,5.626984e-001
7.097057e+002,6.000000e+000
7.135629e+002,6.000000e+000
7.174199e+002,6.000000e+000
7.212770e+002,6.000000e+000
7.251342e+002,-3.736187e-002
7.289912e+002,6.000000e+000
7.328483e+002,6.000000e+000
7.367054e+002,-7.887327e-001
7.405625e+002,6.000000e+000
7.444196e+002,-1.440213e-001
7.482767e+002,1.851220e+000
7.521338e+002,6.000000e+000
7.559908e+002,-4.432425e-001
7.598480e+002,6.000000e+000
7.637051e+002,6.597631e-001
7.675621e+002,-9.344008e-001
7.714193e+002,6.000000e+000
7.752764e+002,6.000000e+000
7.791334e+002,4.442111e-001
7.829905e+002,-3.554583e-002
7.868477e+002,-4.281503e-002
7.907047e+002,8.611161e-001
7.945618e+002,8.168358e-002
7.984189e+002,-2.142064e-001
8.022760e+002,6.651608e-001
8.061331e+002,1.193449e-001
8.099902e+002,6.000000e+000
8.138473e+002,6.000000e+000
8.177044e+002,6.000000e+000
8.215615e+002,6.000000e+000
8.254186e+002,6.000000e+000
8.292757e+002,6.000000e+000
8.331328e+002,6.000000e+000
8.369899e+002,6.000000e+000
8.408470e+002,7.572288e-001
8.447041e+002,4.221650e-001
8.485612e+002,5.548527e-001
8.524183e+002,6.000000e+000
8.562754e+002,6.000000e+000
8.601324e+002,6.000000e+000
8.639896e+002,1.385016e+000
8.678467e+002,1.043717e+000
8.717037e+002,8.295360e-001
8.755609e+002,1.163096e+000
8.794180e+002,1.461760e+000
8.832750e+002,6.000000e+000
8.871321e+002,6.000000e+000
8.909893e+002,1.285417e+000
8.948463e+002,6.000000e+000
8.987034e+002,6.000000e+000
9.025605e+002,1.867736e+000
9.064176e+002,6.000000e+000
9.102747e+002,6.000000e+000
9.141318e+002,6.000000e+000
9.179889e+002,2.451457e+000
9.218461e+002,1.235510e+000
9.257031e+002,1.322380e+000
9.295602e+002,6.000000e+000
9.334174e+002,6.000000e+000
9.372744e+002,6.000000e+000
9.411315e+002,1.387166e+000
9.449886e+002,1.659805e+000
9.488457e+002,6.000000e+000
9.527028e+002,1.972990e+000
9.565599e+002,1.888407e+000
9.604170e+002,2.084069e+000
9.642740e+002,1.651038e+000
9.681312e+002,1.621929e+000
9.719883e+002,1.498498e+000
9.758453e+002,1.447365e+000
9.797025e+002,6.000000e+000
9.835596e+002,6.000000e+000
9.874166e+002,1.732243e+000
9.912738e+002,2.066336e+000
9.951309e+002,6.000000e+000
9.989879e+002,6.000000e+000
1.002845e+003,6.000000e+000
1.006702e+003,6.000000e+000
1.010559e+003,6.000000e+000
1.014416e+003,2.640971e+000
1.018273e+003,2.362025e+000
1.022130e+003,2.021925e+000
1.025988e+003,1.848519e+000
1.029845e+003,2.181021e+000
1.033702e+003,6.000000e+000
1.037559e+003,2.568082e+000
1.041416e+003,2.089821e+000
1.045273e+003,6.000000e+000
1.049130e+003,6.000000e+000
1.052987e+003,6.000000e+000
1.056844e+003,3.268877e+000
1.060702e+003,2.305761e+000
1.064559e+003,2.008048e+000
1.068416e+003,6.000000e+000
1.072273e+003,2.653743e+000
1.076130e+003,1.897676e+000
1.079987e+003,2.151544e+000
1.083844e+003,6.000000e+000
1.087701e+003,6.000000e+000
1.091558e+003,2.028264e+000
1.095415e+003,1.867051e+000
1.099272e+003,1.928613e+000
1.103130e+003,1.720693e+000
1.106987e+003,1.785600e+000
1.110844e+003,1.968828e+000
1.114701e+003,2.094750e+000
1.118558e+003,1.927167e+000
1.122415e+003,1.709281e+000
1.126272e+003,1.709182e+000
1.130129e+003,1.868525e+000
1.133986e+003,1.906153e+000
1.137843e+003,2.004512e+000
1.141701e+003,1.903951e+000
1.145558e+003,1.876801e+000
1.149415e+003,2.224785e+000
1.153272e+003,1.838939e+000
1.157129e+003,1.637732e+000
1.160986e+003,1.641058e+000
1.164843e+003,1.695517e+000
1.168700e+003,1.723439e+000
1.172557e+003,1.949818e+000
1.176414e+003,2.293854e+000
1.180271e+003,2.241699e+000
1.184129e+003,2.203356e+000
1.187986e+003,2.166542e+000
1.191843e+003,1.819204e+000
1.195700e+003,1.548805e+000
1.199557e+003,1.534717e+000
1.203414e+003,1.684663e+000
1.207271e+003,1.707339e+000
1.211128e+003,1.634471e+000
1.214985e+003,1.648388e+000
1.218842e+003,1.521702e+000
1.222699e+003,1.450968e+000
1.226557e+003,1.453342e+000
1.230414e+003,1.482081e+000
1.234271e+003,1.467001e+000
1.238128e+003,1.361196e+000
1.241985e+003,1.271775e+000
1.245842e+003,1.220246e+000
1.249699e+003,1.158491e+000
1.253556e+003,1.089748e+000
1.257413e+003,1.024757e+000
1.261271e+003,9.502683e-001
1.265128e+003,8.894727e-001
1.268985e+003,8.713991e-001
1.272842e+003,8.747325e-001
1.276699e+003,8.677502e-001
1.280556e+003,8.445325e-001
1.284413e+003,8.155410e-001
1.288270e+003,8.102464e-001
1.292127e+003,7.878752e-001
1.295984e+003,7.458100e-001
1.299841e+003,7.229755e-001
1.303698e+003,7.094405e-001
1.307556e+003,6.955178e-001
1.311413e+003,6.896715e-001
1.315270e+003,6.715253e-001
1.319127e+003,6.554337e-001
1.322984e+003,6.529577e-001
1.326841e+003,6.568776e-001
1.330698e+003,6.509880e-001
1.334555e+003,6.367131e-001
1.338412e+003,6.288664e-001
1.342270e+003,6.231800e-001
1.346127e+003,6.331762e-001
1.349984e+003,6.448140e-001
1.353841e+003,6.445526e-001
1.357698e+003,6.357121e-001
1.361555e+003,6.381518e-001
1.365412e+003,6.599653e-001
1.369269e+003,6.727406e-001
1.373126e+003,6.844382e-001
1.376983e+003,6.982341e-001
1.380840e+003,7.169560e-001
1.384698e+003,7.380599e-001
1.388555e+003,7.577112e-001
1.392412e+003,7.777455e-001
1.396269e+003,7.935241e-001
1.400126e+003,8.259133e-001
1.403983e+003,8.556136e-001
1.407840e+003,8.799487e-001
1.411697e+003,9.027010e-001
1.415554e+003,9.062504e-001
1.419411e+003,9.132587e-001
1.423269e+003,9.332917e-001
1.427126e+003,9.674312e-001
1.430983e+003,9.887429e-001
1.434840e+003,1.000809e+000
1.438697e+003,1.003631e+000
1.442554e+003,9.751043e-001
1.446411e+003,9.425160e-001
1.450268e+003,9.190170e-001
1.454125e+003,9.241382e-001
1.457982e+003,9.226267e-001
1.461839e+003,9.024355e-001
1.465697e+003,8.988305e-001
1.469554e+003,8.866997e-001
1.473411e+003,8.834575e-001
1.477268e+003,8.884495e-001
1.481125e+003,8.866277e-001
1.484982e+003,8.953981e-001
1.488839e+003,9.260330e-001
1.492696e+003,9.535870e-001
1.496553e+003,9.471173e-001
1.500411e+003,9.510200e-001
1.504268e+003,9.890340e-001
1.508125e+003,1.020671e+000
1.511982e+003,1.025233e+000
1.515839e+003,9.969796e-001
1.519696e+003,9.816160e-001
1.523553e+003,9.652241e-001
1.527410e+003,9.631332e-001
1.531267e+003,9.436910e-001
1.535124e+003,9.110818e-001
1.538981e+003,8.832213e-001
1.542839e+003,8.789891e-001
1.546696e+003,8.602952e-001
1.550553e+003,8.214703e-001
1.554410e+003,8.114550e-001
1.558267e+003,8.041539e-001
1.562124e+003,7.899046e-001
1.565981e+003,7.733526e-001
1.569838e+003,7.531422e-001
1.573695e+003,7.314409e-001
1.577552e+003,7.233958e-001
1.581410e+003,7.234577e-001
1.585267e+003,7.138510e-001
1.589124e+003,7.049586e-001
1.592981e+003,7.212518e-001
1.596838e+003,7.421765e-001
1.600695e+003,7.567471e-001
1.604552e+003,7.832741e-001
1.608409e+003,8.175377e-001
1.612266e+003,8.654251e-001
1.616123e+003,9.033688e-001
1.619980e+003,9.224708e-001
1.623838e+003,9.542744e-001
1.627695e+003,9.776920e-001
1.631552e+003,9.980534e-001
1.635409e+003,1.034527e+000
1.639266e+003,1.040710e+000
1.643123e+003,1.020883e+000
1.646980e+003,1.001018e+000
1.650837e+003,9.727167e-001
1.654694e+003,9.498793e-001
1.658551e+003,9.191229e-001
1.662409e+003,8.812393e-001
1.666266e+003,8.515427e-001
1.670123e+003,8.207598e-001
1.673980e+003,7.844487e-001
1.677837e+003,7.487546e-001
1.681694e+003,7.139910e-001
1.685551e+003,6.933215e-001
1.689408e+003,6.762819e-001
1.693265e+003,6.538641e-001
1.697122e+003,6.358854e-001
1.700979e+003,6.221582e-001
1.704837e+003,6.082856e-001
1.708694e+003,5.879744e-001
1.712551e+003,5.772949e-001
1.716408e+003,5.774094e-001
1.720265e+003,5.667287e-001
1.724122e+003,5.510967e-001
1.727979e+003,5.426216e-001
1.731836e+003,5.434544e-001
1.735693e+003,5.435749e-001
1.739550e+003,5.430793e-001
1.743408e+003,5.414215e-001
1.747265e+003,5.380803e-001
1.751122e+003,5.355458e-001
1.754979e+003,5.287742e-001
1.758836e+003,5.299135e-001
1.762693e+003,5.337335e-001
1.766550e+003,5.329567e-001
1.770407e+003,5.293136e-001
1.774264e+003,5.281479e-001
1.778121e+003,5.309421e-001
1.781979e+003,5.257402e-001
1.785836e+003,5.210528e-001
1.789693e+003,5.173925e-001
1.793550e+003,5.159576e-001
1.797407e+003,5.151924e-001
1.801264e+003,5.148546e-001
1.805121e+003,5.078009e-001
1.808978e+003,5.052435e-001
1.812835e+003,5.069088e-001
1.816692e+003,5.066198e-001
1.820549e+003,5.045454e-001
1.824407e+003,5.013533e-001
1.828264e+003,5.050121e-001
1.832121e+003,5.061932e-001
1.835978e+003,5.031577e-001
1.839835e+003,5.006167e-001
1.843692e+003,4.973105e-001
1.847549e+003,4.972301e-001
1.851406e+003,4.970845e-001
1.855263e+003,4.884714e-001
1.859120e+003,4.854805e-001
1.862978e+003,4.892353e-001
1.866835e+003,4.892459e-001
1.870692e+003,4.828200e-001
1.874549e+003,4.742918e-001
1.878406e+003,4.741670e-001
1.882263e+003,4.812621e-001
1.886120e+003,4.790628e-001
1.889977e+003,4.687870e-001
1.893834e+003,4.662649e-001
1.897691e+003,4.639862e-001
1.901548e+003,4.668699e-001
1.905406e+003,4.675026e-001
1.909263e+003,4.627631e-001
1.913120e+003,4.585072e-001
1.916977e+003,4.611636e-001
1.920834e+003,4.588618e-001
1.924691e+003,4.548180e-001
1.928548e+003,4.540442e-001
1.932405e+003,4.487691e-001
1.936262e+003,4.467042e-001
1.940119e+003,4.503453e-001
1.943977e+003,4.510742e-001
1.947834e+003,4.445000e-001
1.951691e+003,4.391864e-001
1.955548e+003,4.401041e-001
1.959405e+003,4.421197e-001
1.963262e+003,4.389187e-001
1.967119e+003,4.312702e-001
1.970976e+003,4.272795e-001
1.974833e+003,4.290425e-001
1.978690e+003,4.313175e-001
1.982547e+003,4.268854e-001
1.986405e+003,4.240172e-001
1.990262e+003,4.232013e-001
1.994119e+003,4.246145e-001
1.997976e+003,4.275455e-001
2.001833e+003,4.253240e-001
2.005690e+003,4.257324e-001
2.009547e+003,4.270195e-001
2.013404e+003,4.257461e-001
2.017261e+003,4.226587e-001
2.021118e+003,4.191678e-001
2.024976e+003,4.183415e-001
2.028833e+003,4.164633e-001
2.032690e+003,4.165942e-001
2.036547e+003,4.108069e-001
2.040404e+003,4.043643e-001
2.044261e+003,4.072581e-001
2.048118e+003,4.102085e-001
2.051975e+003,4.099974e-001
2.055832e+003,4.064283e-001
2.059689e+003,4.040118e-001
2.063546e+003,4.033370e-001
2.067404e+003,4.012189e-001
2.071261e+003,4.025700e-001
2.075118e+003,4.015916e-001
2.078975e+003,3.978811e-001
2.082832e+003,3.981487e-001
2.086689e+003,3.992597e-001
2.090546e+003,3.987743e-001
2.094403e+003,3.969614e-001
2.098260e+003,3.920269e-001
2.102117e+003,3.926337e-001
2.105975e+003,3.939381e-001
2.109832e+003,3.923834e-001
2.113689e+003,3.936309e-001
2.117546e+003,3.970963e-001
2.121403e+003,3.997762e-001
2.125260e+003,3.986826e-001
2.129117e+003,3.933124e-001
2.132974e+003,3.965850e-001
2.136831e+003,3.974000e-001
2.140688e+003,3.920572e-001
2.144545e+003,3.908770e-001
2.148403e+003,3.947513e-001
2.152260e+003,3.965025e-001
2.156117e+003,3.954360e-001
2.159974e+003,3.964657e-001
2.163831e+003,4.000043e-001
2.167688e+003,4.006382e-001
2.171545e+003,3.965723e-001
2.175402e+003,3.955798e-001
2.179259e+003,3.980827e-001
2.183116e+003,4.047582e-001
2.186974e+003,4.024232e-001
2.190831e+003,4.013121e-001
2.194688e+003,4.062770e-001
2.198545e+003,4.075039e-001
2.202402e+003,4.045726e-001
2.206259e+003,4.068272e-001
2.210116e+003,4.067269e-001
2.213973e+003,4.080304e-001
2.217830e+003,4.099850e-001
2.221688e+003,4.110179e-001
2.225544e+003,4.123991e-001
2.229402e+003,4.108581e-001
2.233259e+003,4.085914e-001
2.237116e+003,4.113460e-001
2.240973e+003,4.167965e-001
2.244830e+003,4.223511e-001
2.248687e+003,4.222915e-001
2.252544e+003,4.183173e-001
2.256401e+003,4.183286e-001
2.260258e+003,4.203701e-001
2.264115e+003,4.229949e-001
2.267973e+003,4.251979e-001
2.271830e+003,4.236208e-001
2.275687e+003,4.271459e-001
2.279544e+003,4.339491e-001
2.283401e+003,4.325564e-001
2.287258e+003,4.298396e-001
2.291115e+003,4.289838e-001
2.294972e+003,4.289995e-001
2.298829e+003,4.344939e-001
2.302687e+003,4.413719e-001
2.306543e+003,4.372738e-001
2.310401e+003,4.308854e-001
2.314258e+003,4.337762e-001
2.318115e+003,4.362194e-001
2.321972e+003,4.392704e-001
2.325829e+003,4.442920e-001
2.329686e+003,4.400585e-001
2.333543e+003,4.357024e-001
2.337400e+003,4.330046e-001
2.341257e+003,4.314758e-001
2.345115e+003,4.370176e-001
2.348972e+003,4.372762e-001
2.352829e+003,4.326824e-001
2.356686e+003,4.342749e-001
2.360543e+003,4.344189e-001
2.364400e+003,4.419211e-001
2.368257e+003,4.423361e-001
2.372114e+003,4.384451e-001
2.375971e+003,4.403379e-001
2.379828e+003,4.430250e-001
2.383686e+003,4.415143e-001
2.387542e+003,4.429800e-001
2.391400e+003,4.418944e-001
2.395257e+003,4.386547e-001
2.399114e+003,4.403815e-001
2.402971e+003,4.453318e-001
2.406828e+003,4.481905e-001
2.410685e+003,4.487385e-001
2.414542e+003,4.466058e-001
2.418399e+003,4.439029e-001
2.422256e+003,4.441572e-001
2.426114e+003,4.463407e-001
2.429971e+003,4.448465e-001
2.433828e+003,4.410354e-001
2.437685e+003,4.400617e-001
2.441542e+003,4.382523e-001
2.445399e+003,4.365475e-001
2.449256e+003,4.372340e-001
2.453113e+003,4.385896e-001
2.456970e+003,4.380957e-001
2.460827e+003,4.370559e-001
2.464684e+003,4.348817e-001
2.468542e+003,4.327053e-001
2.472399e+003,4.310797e-001
2.476256e+003,4.280234e-001
2.480113e+003,4.261808e-001
2.483970e+003,4.250090e-001
2.487827e+003,4.266420e-001
2.491684e+003,4.287483e-001
2.495541e+003,4.267302e-001
2.499398e+003,4.246508e-001
2.503255e+003,4.308214e-001
2.507113e+003,4.377992e-001
2.510969e+003,4.382029e-001
2.514827e+003,4.366842e-001
2.518684e+003,4.366296e-001
2.522541e+003,4.381646e-001
2.526398e+003,4.383704e-001
2.530255e+003,4.377044e-001
2.534112e+003,4.399983e-001
2.537969e+003,4.395619e-001
2.541826e+003,4.378239e-001
2.545683e+003,4.405185e-001
2.549541e+003,4.451904e-001
2.553398e+003,4.452196e-001
2.557255e+003,4.440900e-001
2.561112e+003,4.456105e-001
2.564969e+003,4.485287e-001
2.568826e+003,4.526083e-001
2.572683e+003,4.549716e-001
2.576540e+003,4.549008e-001
2.580397e+003,4.596418e-001
2.584254e+003,4.650977e-001
2.588112e+003,4.648250e-001
2.591969e+003,4.689158e-001
2.595826e+003,4.729424e-001
2.599683e+003,4.756206e-001
2.603540e+003,4.785250e-001
2.607397e+003,4.813111e-001
2.611254e+003,4.895541e-001
2.615111e+003,4.898688e-001
2.618968e+003,4.854487e-001
2.622825e+003,4.911236e-001
2.626682e+003,4.983845e-001
2.630540e+003,5.040210e-001
2.634397e+003,5.079518e-001
2.638254e+003,5.096365e-001
2.642111e+003,5.150034e-001
2.645968e+003,5.205510e-001
2.649825e+003,5.184001e-001
2.653682e+003,5.176257e-001
2.657539e+003,5.239515e-001
2.661396e+003,5.321130e-001
2.665253e+003,5.340742e-001
2.669111e+003,5.312749e-001
2.672968e+003,5.390626e-001
2.676825e+003,5.442969e-001
2.680682e+003,5.529070e-001
2.684539e+003,5.608206e-001
2.688396e+003,5.655364e-001
2.692253e+003,5.733789e-001
2.696110e+003,5.804868e-001
2.699967e+003,5.775383e-001
2.703824e+003,5.753304e-001
2.707681e+003,5.829417e-001
2.711539e+003,5.932357e-001
2.715396e+003,6.074421e-001
2.719253e+003,6.165109e-001
2.723110e+003,6.133366e-001
2.726967e+003,6.187462e-001
2.730824e+003,6.270180e-001
2.734681e+003,6.301533e-001
2.738538e+003,6.353744e-001
2.742395e+003,6.426938e-001
2.746252e+003,6.504891e-001
2.750110e+003,6.527611e-001
2.753967e+003,6.524474e-001
2.757824e+003,6.595412e-001
2.761681e+003,6.702760e-001
2.765538e+003,6.726689e-001
2.769395e+003,6.786224e-001
2.773252e+003,6.869439e-001
2.777109e+003,6.896337e-001
2.780966e+003,6.930217e-001
2.784823e+003,7.003514e-001
2.788680e+003,7.077317e-001
2.792538e+003,7.132244e-001
2.796395e+003,7.243300e-001
2.800252e+003,7.304611e-001
2.804109e+003,7.352813e-001
2.807966e+003,7.454333e-001
2.811823e+003,7.583123e-001
2.815680e+003,7.602477e-001
2.819537e+003,7.647199e-001
2.823394e+003,7.717344e-001
2.827251e+003,7.758851e-001
2.831109e+003,7.817215e-001
2.834966e+003,7.903758e-001
2.838823e+003,7.885530e-001
2.842680e+003,8.066552e-001
2.846537e+003,8.268006e-001
2.850394e+003,8.379164e-001
2.854251e+003,8.368908e-001
2.858108e+003,8.253001e-001
2.861965e+003,8.326757e-001
2.865823e+003,8.445682e-001
2.869679e+003,8.550697e-001
2.873537e+003,8.641533e-001
2.877394e+003,8.687217e-001
2.881251e+003,8.720662e-001
2.885108e+003,8.863979e-001
2.888965e+003,8.896728e-001
2.892822e+003,8.859755e-001
2.896679e+003,8.952256e-001
2.900536e+003,9.220575e-001
2.904393e+003,9.311594e-001
2.908250e+003,9.423062e-001
2.912108e+003,9.685053e-001
2.915965e+003,9.753897e-001
2.919822e+003,9.738362e-001
2.923679e+003,9.894519e-001
2.927536e+003,9.929655e-001
2.931393e+003,9.754680e-001
2.935250e+003,9.767007e-001
2.939107e+003,1.006193e+000
2.942964e+003,1.025906e+000
2.946822e+003,1.019402e+000
2.950678e+003,1.019107e+000
2.954536e+003,1.028002e+000
2.958393e+003,1.031677e+000
2.962250e+003,1.035129e+000
2.966107e+003,1.063839e+000
2.969964e+003,1.072908e+000
2.973821e+003,1.075866e+000
2.977678e+003,1.083930e+000
2.981535e+003,1.076048e+000
2.985392e+003,1.085770e+000
2.989250e+003,1.088275e+000
2.993107e+003,1.080094e+000
2.996964e+003,1.103363e+000
3.000821e+003,1.131944e+000
3.004678e+003,1.141040e+000
3.008535e+003,1.165447e+000
3.012392e+003,1.171722e+000
3.016249e+003,1.161232e+000
3.020106e+003,1.168331e+000
3.023963e+003,1.204062e+000
3.027821e+003,1.234273e+000
3.031677e+003,1.227527e+000
3.035535e+003,1.209374e+000
3.039392e+003,1.237230e+000
3.043249e+003,1.282412e+000
3.047106e+003,1.273559e+000
3.050963e+003,1.261271e+000
3.054820e+003,1.270444e+000
3.058677e+003,1.244509e+000
3.062534e+003,1.265154e+000
3.066391e+003,1.293521e+000
3.070249e+003,1.291027e+000
3.074106e+003,1.310001e+000
3.077963e+003,1.313678e+000
3.081820e+003,1.307022e+000
3.085677e+003,1.316223e+000
3.089534e+003,1.335797e+000
3.093391e+003,1.349946e+000
3.097248e+003,1.324116e+000
3.101105e+003,1.350486e+000
3.104962e+003,1.390073e+000
3.108820e+003,1.342543e+000
3.112677e+003,1.342896e+000
3.116534e+003,1.396565e+000
3.120391e+003,1.420492e+000
3.124248e+003,1.425591e+000
3.128105e+003,1.416560e+000
3.131962e+003,1.394173e+000
3.135819e+003,1.394218e+000
3.139676e+003,1.426971e+000
3.143533e+003,1.430160e+000
3.147390e+003,1.415085e+000
3.151248e+003,1.448544e+000
3.155105e+003,1.508384e+000
3.158962e+003,1.495862e+000
3.162819e+003,1.504182e+000
3.166676e+003,1.541174e+000
3.170533e+003,1.530009e+000
3.174390e+003,1.528733e+000
3.178247e+003,1.571637e+000
3.182104e+003,1.646781e+000
3.185961e+003,1.646138e+000
3.189819e+003,1.577544e+000
3.193676e+003,1.641821e+000
3.197533e+003,1.703582e+000
3.201390e+003,1.689773e+000
3.205247e+003,1.681009e+000
3.209104e+003,1.653785e+000
3.212961e+003,1.557245e+000
3.216818e+003,1.510431e+000
3.220675e+003,1.531386e+000
3.224532e+003,1.645698e+000
3.228389e+003,1.648972e+000
3.232247e+003,1.647789e+000
3.236104e+003,1.612203e+000
3.239961e+003,1.644138e+000
3.243818e+003,1.793788e+000
3.247675e+003,1.898712e+000
3.251532e+003,1.768232e+000
3.255389e+003,1.657834e+000
3.259246e+003,1.632862e+000
3.263103e+003,1.686100e+000
3.266960e+003,1.794712e+000
3.270818e+003,1.816531e+000
3.274675e+003,1.775044e+000
3.278532e+003,1.737678e+000
3.282389e+003,1.691714e+000
3.286246e+003,1.635636e+000
3.290103e+003,1.625729e+000
3.293960e+003,1.695994e+000
3.297817e+003,1.792936e+000
3.301674e+003,1.763260e+000
3.305531e+003,1.798538e+000
3.309388e+003,1.764713e+000
3.313246e+003,1.701694e+000
3.317103e+003,1.731535e+000
3.320960e+003,1.837822e+000
3.324817e+003,1.863955e+000
3.328674e+003,1.794514e+000
3.332531e+003,1.732195e+000
3.336388e+003,1.747769e+000
3.340245e+003,1.794806e+000
3.344102e+003,1.806557e+000
3.347959e+003,1.825485e+000
3.351817e+003,1.780498e+000
3.355674e+003,1.766320e+000
3.359531e+003,1.783729e+000
3.363388e+003,1.678327e+000
3.367245e+003,1.642228e+000
3.371102e+003,1.673883e+000
3.374959e+003,1.688372e+000
3.378816e+003,1.761390e+000
3.382673e+003,1.831274e+000
3.386530e+003,1.770669e+000
3.390387e+003,1.756470e+000
3.394245e+003,1.699455e+000
3.398102e+003,1.681615e+000
3.401959e+003,1.815860e+000
3.405816e+003,1.869269e+000
3.409673e+003,1.823929e+000
3.413530e+003,1.847646e+000
3.417387e+003,1.900454e+000
3.421244e+003,1.801804e+000
3.425101e+003,1.812058e+000
3.428958e+003,1.901696e+000
3.432815e+003,1.850033e+000
3.436673e+003,1.912649e+000
3.440530e+003,1.919921e+000
3.444387e+003,1.871289e+000
3.448244e+003,2.027148e+000
3.452101e+003,2.172236e+000
3.455958e+003,2.243251e+000
3.459815e+003,2.455452e+000
3.463672e+003,2.101846e+000
3.467529e+003,1.911697e+000
3.471386e+003,1.895054e+000
3.475244e+003,1.890647e+000
3.479101e+003,1.791721e+000
3.482958e+003,1.803543e+000
3.486815e+003,2.039604e+000
3.490672e+003,2.072963e+000
3.494529e+003,1.890634e+000
3.498386e+003,1.854886e+000
3.502243e+003,1.955442e+000
3.506100e+003,1.919324e+000
3.509958e+003,1.844647e+000
3.513814e+003,1.838630e+000
3.517672e+003,1.752005e+000
3.521529e+003,1.822375e+000
3.525386e+003,2.008985e+000
3.529243e+003,2.095726e+000
3.533100e+003,2.182252e+000
3.536957e+003,1.893254e+000
3.540814e+003,1.711115e+000
3.544671e+003,1.732471e+000
3.548528e+003,1.905918e+000
3.552385e+003,2.060404e+000
3.556243e+003,1.932146e+000
3.560100e+003,1.838711e+000
3.563957e+003,1.832124e+000
3.567814e+003,1.925544e+000
3.571671e+003,1.971798e+000
3.575528e+003,1.925848e+000
3.579385e+003,2.075957e+000
3.583242e+003,2.035695e+000
3.587099e+003,1.813993e+000
3.590957e+003,1.712609e+000
3.594813e+003,1.749768e+000
3.598671e+003,1.843182e+000
3.602528e+003,1.772433e+000
3.606385e+003,1.629335e+000
3.610242e+003,1.589217e+000
3.614099e+003,1.594768e+000
3.617956e+003,1.576534e+000
3.621813e+003,1.495383e+000
3.625670e+003,1.376433e+000
3.629527e+003,1.287099e+000
3.633385e+003,1.230601e+000
3.637242e+003,1.148014e+000
3.641099e+003,1.048887e+000
3.644956e+003,9.675503e-001
3.648813e+003,9.042870e-001
3.652670e+003,8.435736e-001
3.656527e+003,7.755733e-001
3.660384e+003,7.011870e-001
3.664241e+003,6.348950e-001
3.668098e+003,5.789251e-001
3.671956e+003,5.317623e-001
3.675813e+003,4.907028e-001
3.679670e+003,4.526711e-001
3.683527e+003,4.211028e-001
3.687384e+003,3.923741e-001
3.691241e+003,3.648476e-001
3.695098e+003,3.453470e-001
3.698955e+003,3.265103e-001
3.702812e+003,3.068484e-001
3.706669e+003,2.926351e-001
3.710526e+003,2.831948e-001
3.714384e+003,2.725277e-001
3.718241e+003,2.643625e-001
3.722098e+003,2.563717e-001
3.725955e+003,2.476798e-001
3.729812e+003,2.460169e-001
3.733669e+003,2.445881e-001
3.737526e+003,2.419445e-001
3.741383e+003,2.352129e-001
3.745240e+003,2.285704e-001
3.749097e+003,2.232223e-001
3.752955e+003,2.207869e-001
3.756812e+003,2.221993e-001
3.760669e+003,2.232050e-001
3.764526e+003,2.216236e-001
3.768383e+003,2.197071e-001
3.772240e+003,2.152020e-001
3.776097e+003,2.170358e-001
3.779954e+003,2.178073e-001
3.783811e+003,2.108791e-001
3.787668e+003,2.102698e-001
3.791525e+003,2.104458e-001
3.795383e+003,2.086871e-001
3.799240e+003,2.061087e-001
3.803097e+003,2.037661e-001
3.806954e+003,2.013499e-001
3.810811e+003,1.998950e-001
3.814668e+003,2.021712e-001
3.818525e+003,2.041385e-001
3.822382e+003,2.067022e-001
3.826239e+003,2.031223e-001
3.830096e+003,2.030460e-001
3.833954e+003,2.038034e-001
3.837811e+003,1.988440e-001
3.841668e+003,1.996449e-001
3.845525e+003,2.018789e-001
3.849382e+003,2.001871e-001
3.853239e+003,2.001100e-001
3.857096e+003,2.015170e-001
3.860953e+003,1.979904e-001
3.864810e+003,1.959448e-001
3.868667e+003,1.957566e-001
3.872524e+003,1.961383e-001
3.876382e+003,2.006009e-001
3.880239e+003,1.980900e-001
3.884096e+003,1.904754e-001
3.887953e+003,1.879545e-001
3.891810e+003,1.903162e-001
3.895667e+003,1.960773e-001
3.899524e+003,1.969212e-001
3.903381e+003,1.930121e-001
3.907238e+003,1.934827e-001
3.911095e+003,1.944511e-001
3.914953e+003,1.903986e-001
3.918810e+003,1.886229e-001
3.922667e+003,1.903851e-001
3.926524e+003,1.915609e-001
3.930381e+003,1.954039e-001
3.934238e+003,1.948659e-001
3.938095e+003,1.909267e-001
3.941952e+003,1.909178e-001
3.945809e+003,1.914039e-001
3.949667e+003,1.880617e-001
3.953523e+003,1.877001e-001
3.957381e+003,1.919116e-001
3.961238e+003,1.917076e-001
3.965095e+003,1.875312e-001
3.968952e+003,1.875840e-001
3.972809e+003,1.939631e-001
3.976666e+003,1.941998e-001
3.980523e+003,1.904903e-001
3.984380e+003,1.867913e-001
3.988237e+003,1.883656e-001
3.992094e+003,1.913367e-001
3.995952e+003,1.922035e-001
3.999809e+003,1.881240e-001
4.003666e+003,1.822736e-001
4.007523e+003,1.824332e-001
4.011380e+003,1.865839e-001
4.015237e+003,1.871679e-001
4.019094e+003,1.865847e-001
4.022951e+003,1.841875e-001
4.026808e+003,1.803077e-001
4.030666e+003,1.821161e-001
4.034522e+003,1.862029e-001
4.038380e+003,1.885501e-001
4.042237e+003,1.872596e-001
4.046094e+003,1.828348e-001
4.049951e+003,1.843715e-001
4.053808e+003,1.886509e-001
4.057665e+003,1.879047e-001
4.061522e+003,1.861858e-001
4.065379e+003,1.826950e-001
4.069236e+003,1.792263e-001
4.073094e+003,1.801045e-001
4.076951e+003,1.799473e-001
4.080808e+003,1.801714e-001
4.084665e+003,1.827143e-001
4.088522e+003,1.820721e-001
4.092379e+003,1.817817e-001
4.096236e+003,1.791780e-001
4.100093e+003,1.804615e-001
4.103950e+003,1.851636e-001
4.107808e+003,1.810181e-001
4.111665e+003,1.748832e-001
4.115521e+003,1.744937e-001
4.119379e+003,1.754320e-001
4.123236e+003,1.745348e-001
4.127093e+003,1.717117e-001
4.130950e+003,1.713189e-001
4.134807e+003,1.728920e-001
4.138664e+003,1.668152e-001
4.142521e+003,1.666846e-001
4.146378e+003,1.740829e-001
4.150235e+003,1.765624e-001
4.154093e+003,1.739032e-001
4.157950e+003,1.730183e-001
4.161807e+003,1.744958e-001
4.165664e+003,1.740858e-001
4.169521e+003,1.700146e-001
4.173378e+003,1.700406e-001
4.177235e+003,1.723070e-001
4.181092e+003,1.666514e-001
4.184949e+003,1.620949e-001
4.188807e+003,1.643699e-001
4.192664e+003,1.654404e-001
4.196521e+003,1.641609e-001
4.200378e+003,1.622940e-001
4.204235e+003,1.658290e-001
4.208092e+003,1.677872e-001
4.211949e+003,1.694977e-001
4.215806e+003,1.672787e-001
4.219663e+003,1.676482e-001
4.223521e+003,1.693419e-001
4.227377e+003,1.684984e-001
4.231234e+003,1.674776e-001
4.235092e+003,1.691417e-001
4.238949e+003,1.689934e-001
4.242806e+003,1.684976e-001
4.246663e+003,1.665455e-001
4.250520e+003,1.642393e-001
4.254377e+003,1.600124e-001
4.258234e+003,1.623684e-001
4.262091e+003,1.670445e-001
4.265948e+003,1.660282e-001
4.269806e+003,1.659967e-001
4.273663e+003,1.670141e-001
4.277520e+003,1.678931e-001
4.281377e+003,1.700472e-001
4.285234e+003,1.683681e-001
4.289091e+003,1.661123e-001
4.292948e+003,1.631302e-001
4.296805e+003,1.675545e-001
4.300662e+003,1.694997e-001
4.304520e+003,1.646192e-001
4.308376e+003,1.647978e-001
4.312233e+003,1.663385e-001
4.316091e+003,1.638809e-001
4.319948e+003,1.639577e-001
4.323805e+003,1.650078e-001
4.327662e+003,1.630844e-001
4.331519e+003,1.670824e-001
4.335376e+003,1.628544e-001
4.339233e+003,1.557710e-001
4.343090e+003,1.598720e-001
4.346947e+003,1.638523e-001
4.350805e+003,1.626084e-001
4.354662e+003,1.636294e-001
4.358519e+003,1.636883e-001
4.362376e+003,1.649256e-001
4.366233e+003,1.686445e-001
4.370090e+003,1.698587e-001
4.373947e+003,1.736168e-001
4.377804e+003,1.709878e-001
4.381661e+003,1.655203e-001
4.385519e+003,1.637448e-001
4.389375e+003,1.611588e-001
4.393232e+003,1.570216e-001
4.397090e+003,1.581544e-001
4.400947e+003,1.580188e-001
4.404804e+003,1.654631e-001
4.408661e+003,1.728677e-001
4.412518e+003,1.695050e-001
4.416375e+003,1.666522e-001
4.420232e+003,1.643657e-001
4.424089e+003,1.661503e-001
4.427946e+003,1.691813e-001
4.431804e+003,1.678558e-001
4.435661e+003,1.688173e-001
4.439518e+003,1.689126e-001
4.443375e+003,1.623060e-001
4.447232e+003,1.643658e-001
4.451089e+003,1.684407e-001
4.454946e+003,1.681515e-001
4.458803e+003,1.735529e-001
4.462660e+003,1.721169e-001
4.466518e+003,1.640678e-001
4.470375e+003,1.578423e-001
4.474231e+003,1.560206e-001
4.478089e+003,1.610157e-001
4.481946e+003,1.668485e-001
4.485803e+003,1.690266e-001
4.489660e+003,1.683828e-001
4.493517e+003,1.710623e-001
4.497375e+003,1.705149e-001
4.501231e+003,1.690260e-001
4.505088e+003,1.687240e-001
4.508946e+003,1.727987e-001
4.512803e+003,1.714356e-001
4.516660e+003,1.621845e-001
4.520517e+003,1.585897e-001
4.524374e+003,1.620681e-001
4.528231e+003,1.648341e-001
4.532088e+003,1.666620e-001
4.535945e+003,1.677356e-001
4.539802e+003,1.676151e-001
4.543660e+003,1.637303e-001
4.547517e+003,1.614092e-001
4.551374e+003,1.636672e-001
4.555231e+003,1.644052e-001
4.559088e+003,1.588661e-001
4.562945e+003,1.582487e-001
4.566802e+003,1.607027e-001
4.570659e+003,1.608131e-001
4.574516e+003,1.572001e-001
4.578374e+003,1.541724e-001
4.582230e+003,1.525566e-001
4.586087e+003,1.562153e-001
4.589945e+003,1.576283e-001
4.593802e+003,1.591540e-001
4.597659e+003,1.570299e-001
4.601516e+003,1.535366e-001
4.605373e+003,1.550904e-001
4.609230e+003,1.630346e-001
4.613087e+003,1.685884e-001
4.616944e+003,1.590850e-001
4.620801e+003,1.518565e-001
4.624659e+003,1.567167e-001
4.628516e+003,1.640770e-001
4.632373e+003,1.560443e-001
4.636230e+003,1.531691e-001
4.640087e+003,1.527187e-001
4.643944e+003,1.474635e-001
4.647801e+003,1.510967e-001
4.651658e+003,1.596107e-001
4.655515e+003,1.620400e-001
4.659373e+003,1.611646e-001
4.663229e+003,1.622330e-001
4.667086e+003,1.573999e-001
4.670944e+003,1.567717e-001
4.674801e+003,1.558594e-001
4.678658e+003,1.543244e-001
4.682515e+003,1.480608e-001
4.686372e+003,1.499796e-001
4.690229e+003,1.574755e-001
4.694086e+003,1.577369e-001
4.697943e+003,1.590722e-001
4.701800e+003,1.544043e-001
4.705658e+003,1.513811e-001
4.709515e+003,1.523648e-001
4.713372e+003,1.532006e-001
4.717229e+003,1.582246e-001
4.721086e+003,1.599711e-001
4.724943e+003,1.654742e-001
4.728800e+003,1.658686e-001
4.732657e+003,1.580570e-001
4.736514e+003,1.641406e-001
4.740372e+003,1.703570e-001
4.744229e+003,1.607056e-001
4.748085e+003,1.662327e-001
4.751943e+003,1.719728e-001
4.755800e+003,1.653853e-001
4.759657e+003,1.639477e-001
4.763514e+003,1.636524e-001
4.767371e+003,1.612938e-001
4.771228e+003,1.595246e-001
4.775085e+003,1.590591e-001
4.778942e+003,1.607588e-001
4.782799e+003,1.585502e-001
4.786657e+003,1.584690e-001
4.790514e+003,1.576589e-001
4.794371e+003,1.542954e-001
4.798228e+003,1.489144e-001
4.802085e+003,1.503259e-001
4.805942e+003,1.539178e-001
4.809799e+003,1.593872e-001
4.813656e+003,1.620502e-001
4.817513e+003,1.582442e-001
4.821371e+003,1.574557e-001
4.825228e+003,1.578153e-001
4.829084e+003,1.535609e-001
4.832942e+003,1.536442e-001
4.836799e+003,1.559083e-001
4.840656e+003,1.571068e-001
4.844513e+003,1.581359e-001
4.848370e+003,1.549299e-001
4.852227e+003,1.558942e-001
4.856084e+003,1.583457e-001
4.859941e+003,1.634880e-001
4.863798e+003,1.661766e-001
4.867656e+003,1.672263e-001
4.871513e+003,1.642671e-001
4.875370e+003,1.632108e-001
4.879227e+003,1.634529e-001
4.883084e+003,1.649485e-001
4.886941e+003,1.616095e-001
4.890798e+003,1.549268e-001
4.894655e+003,1.555812e-001
4.898512e+003,1.588390e-001
4.902370e+003,1.583834e-001
4.906227e+003,1.544725e-001
4.910083e+003,1.541106e-001
4.913941e+003,1.542175e-001
4.917798e+003,1.523292e-001
4.921655e+003,1.562352e-001
4.925512e+003,1.612965e-001
4.929369e+003,1.625100e-001
4.933226e+003,1.605729e-001
4.937083e+003,1.606387e-001
4.940940e+003,1.645090e-001
4.944797e+003,1.730098e-001
4.948655e+003,1.692787e-001
4.952512e+003,1.631548e-001
4.956369e+003,1.639167e-001
4.960226e+003,1.650735e-001
4.964083e+003,1.655832e-001
4.967940e+003,1.610565e-001
4.971797e+003,1.540244e-001
4.975654e+003,1.599546e-001
4.979511e+003,1.591479e-001
4.983369e+003,1.622899e-001
4.987226e+003,1.628204e-001
4.991083e+003,1.498345e-001
4.994940e+003,1.484824e-001
4.998797e+003,1.594451e-001
5.002654e+003,1.629984e-001
5.006511e+003,1.552361e-001
5.010368e+003,1.561343e-001
5.014225e+003,1.579749e-001
5.018083e+003,1.586810e-001
5.021939e+003,1.642566e-001
5.025796e+003,1.705625e-001
5.029654e+003,1.719281e-001
5.033511e+003,1.649678e-001
5.037368e+003,1.609089e-001
5.041225e+003,1.580977e-001
5.045082e+003,1.610180e-001
5.048939e+003,1.705717e-001
5.052796e+003,1.715513e-001
5.056653e+003,1.626480e-001
5.060510e+003,1.612789e-001
5.064368e+003,1.635997e-001
5.068225e+003,1.652654e-001
5.072082e+003,1.674812e-001
5.075939e+003,1.664736e-001
5.079796e+003,1.584957e-001
5.083653e+003,1.569103e-001
5.087510e+003,1.643241e-001
5.091367e+003,1.723086e-001
5.095224e+003,1.783019e-001
5.099082e+003,1.645300e-001
5.102938e+003,1.594460e-001
5.106795e+003,1.678857e-001
5.110653e+003,1.645417e-001
5.114510e+003,1.611250e-001
5.118367e+003,1.707583e-001
5.122224e+003,1.717068e-001
5.126081e+003,1.715592e-001
5.129938e+003,1.787263e-001
5.133795e+003,1.819892e-001
5.137652e+003,1.700399e-001
5.141509e+003,1.611791e-001
5.145367e+003,1.613144e-001
5.149224e+003,1.649550e-001
5.153081e+003,1.711455e-001
5.156938e+003,1.694037e-001
5.160795e+003,1.652815e-001
5.164652e+003,1.652697e-001
5.168509e+003,1.660608e-001
5.172366e+003,1.646653e-001
5.176223e+003,1.654110e-001
5.180081e+003,1.693345e-001
5.183938e+003,1.656430e-001
5.187794e+003,1.720075e-001
5.191652e+003,1.746357e-001
5.195509e+003,1.701005e-001
5.199366e+003,1.708814e-001
5.203223e+003,1.773217e-001
5.207080e+003,1.733280e-001
5.210937e+003,1.685964e-001
5.214794e+003,1.731530e-001
5.218651e+003,1.735417e-001
5.222508e+003,1.746643e-001
5.226366e+003,1.772252e-001
5.230223e+003,1.818727e-001
5.234080e+003,1.760108e-001
5.237937e+003,1.670452e-001
5.241794e+003,1.599217e-001
5.245651e+003,1.705695e-001
5.249508e+003,1.791054e-001
5.253365e+003,1.738693e-001
5.257222e+003,1.657527e-001
5.261080e+003,1.658608e-001
5.264937e+003,1.724506e-001
5.268793e+003,1.731134e-001
5.272651e+003,1.668541e-001
5.276508e+003,1.674297e-001
5.280365e+003,1.600123e-001
5.284222e+003,1.595926e-001
5.288079e+003,1.688569e-001
5.291936e+003,1.639832e-001
5.295793e+003,1.580931e-001
5.299650e+003,1.623596e-001
5.303507e+003,1.567829e-001
5.307365e+003,1.557326e-001
5.311222e+003,1.616231e-001
5.315079e+003,1.644218e-001
5.318936e+003,1.591447e-001
5.322793e+003,1.508317e-001
5.326650e+003,1.584022e-001
5.330507e+003,1.668051e-001
5.334364e+003,1.631894e-001
5.338221e+003,1.686386e-001
5.342079e+003,1.752656e-001
5.345936e+003,1.792810e-001
5.349792e+003,1.692132e-001
5.353650e+003,1.573409e-001
5.357507e+003,1.584301e-001
5.361364e+003,1.589528e-001
5.365221e+003,1.529448e-001
5.369078e+003,1.541838e-001
5.372935e+003,1.588174e-001
5.376792e+003,1.587082e-001
5.380649e+003,1.565690e-001
5.384506e+003,1.533912e-001
5.388364e+003,1.536872e-001
5.392221e+003,1.556470e-001
5.396078e+003,1.554420e-001
5.399935e+003,1.621374e-001
5.403792e+003,1.659043e-001
5.407649e+003,1.559816e-001
5.411506e+003,1.549375e-001
5.415363e+003,1.589142e-001
5.419220e+003,1.568457e-001
5.423078e+003,1.482421e-001
5.426935e+003,1.466144e-001
5.430792e+003,1.470029e-001
5.434649e+003,1.475139e-001
5.438506e+003,1.603851e-001
5.442363e+003,1.625290e-001
5.446220e+003,1.594380e-001
5.450077e+003,1.690018e-001
5.453934e+003,1.671062e-001
5.457792e+003,1.610148e-001
5.461648e+003,1.616351e-001
5.465505e+003,1.607710e-001
5.469363e+003,1.618513e-001
5.473220e+003,1.684541e-001
5.477077e+003,1.659177e-001
5.480934e+003,1.629231e-001
5.484791e+003,1.641886e-001
5.488648e+003,1.587430e-001
5.492505e+003,1.624603e-001
5.496362e+003,1.618402e-001
5.500219e+003,1.516001e-001
5.504077e+003,1.572535e-001
5.507934e+003,1.657465e-001
5.511791e+003,1.686579e-001
5.515648e+003,1.632218e-001
5.519505e+003,1.596728e-001
5.523362e+003,1.577924e-001
5.527219e+003,1.535520e-001
5.531076e+003,1.549496e-001
5.534933e+003,1.590311e-001
5.538791e+003,1.580528e-001
5.542647e+003,1.633204e-001
5.546504e+003,1.595441e-001
5.550362e+003,1.491994e-001
5.554219e+003,1.560592e-001
5.558076e+003,1.612125e-001
5.561933e+003,1.594480e-001
5.565790e+003,1.601426e-001
5.569647e+003,1.662854e-001
5.573504e+003,1.679336e-001
5.577361e+003,1.660736e-001
5.581218e+003,1.574626e-001
5.585076e+003,1.497884e-001
5.588933e+003,1.468009e-001
5.592790e+003,1.547313e-001
5.596647e+003,1.682146e-001
5.600504e+003,1.650134e-001
5.604361e+003,1.628456e-001
5.608218e+003,1.700159e-001
5.612075e+003,1.622438e-001
5.615932e+003,1.455621e-001
5.619790e+003,1.406924e-001
5.623646e+003,1.473987e-001
5.627503e+003,1.642764e-001
5.631361e+003,1.606925e-001
5.635218e+003,1.526606e-001
5.639075e+003,1.554827e-001
5.642932e+003,1.612414e-001
5.646789e+003,1.564517e-001
5.650646e+003,1.523924e-001
5.654503e+003,1.657077e-001
5.658360e+003,1.749687e-001
5.662217e+003,1.693439e-001
5.666075e+003,1.564260e-001
5.669932e+003,1.610103e-001
5.673789e+003,1.655643e-001
5.677646e+003,1.588156e-001
5.681503e+003,1.608006e-001
5.685360e+003,1.583235e-001
5.689217e+003,1.590234e-001
5.693074e+003,1.589997e-001
5.696931e+003,1.634373e-001
5.700789e+003,1.606819e-001
5.704646e+003,1.489852e-001
5.708502e+003,1.483396e-001
5.712360e+003,1.627082e-001
5.716217e+003,1.586245e-001
5.720074e+003,1.410500e-001
5.723931e+003,1.361492e-001
5.727788e+003,1.496147e-001
5.731645e+003,1.583052e-001
5.735502e+003,1.577918e-001
5.739359e+003,1.554761e-001
5.743216e+003,1.550057e-001
5.747074e+003,1.615323e-001
5.750931e+003,1.621899e-001
5.754788e+003,1.561837e-001
5.758645e+003,1.592492e-001
5.762502e+003,1.619805e-001
5.766359e+003,1.613644e-001
5.770216e+003,1.574554e-001
5.774073e+003,1.570462e-001
5.777930e+003,1.617073e-001
5.781788e+003,1.608279e-001
5.785645e+003,1.638315e-001
5.789501e+003,1.707104e-001
5.793359e+003,1.610545e-001
5.797216e+003,1.534155e-001
5.801073e+003,1.624695e-001
5.804930e+003,1.629970e-001
5.808787e+003,1.586303e-001
5.812644e+003,1.609592e-001
5.816501e+003,1.641978e-001
5.820358e+003,1.597132e-001
5.824215e+003,1.544859e-001
5.828073e+003,1.518609e-001
5.831930e+003,1.532768e-001
5.835787e+003,1.557495e-001
5.839644e+003,1.431674e-001
5.843501e+003,1.492100e-001
5.847358e+003,1.600185e-001
5.851215e+003,1.491247e-001
5.855072e+003,1.402211e-001
5.858929e+003,1.490144e-001
5.862787e+003,1.626888e-001
5.866644e+003,1.657775e-001
5.870500e+003,1.594945e-001
5.874358e+003,1.549705e-001
5.878215e+003,1.499275e-001
5.882072e+003,1.573267e-001
5.885929e+003,1.661305e-001
5.889786e+003,1.681272e-001
5.893643e+003,1.584452e-001
5.897500e+003,1.480735e-001
5.901357e+003,1.481187e-001
5.905214e+003,1.533184e-001
5.909072e+003,1.664317e-001
5.912929e+003,1.660745e-001
5.916786e+003,1.602952e-001
5.920643e+003,1.589716e-001
5.924500e+003,1.631028e-001
5.928357e+003,1.594828e-001
5.932214e+003,1.633536e-001
5.936071e+003,1.609002e-001
5.939928e+003,1.495074e-001
5.943786e+003,1.543137e-001
5.947643e+003,1.597736e-001
5.951500e+003,1.625730e-001
5.955357e+003,1.520693e-001
5.959214e+003,1.518440e-001
5.963071e+003,1.557779e-001
5.966928e+003,1.481076e-001
5.970785e+003,1.456287e-001
5.974642e+003,1.536790e-001
5.978500e+003,1.533207e-001
5.982356e+003,1.533606e-001
5.986213e+003,1.527172e-001
5.990071e+003,1.606801e-001
5.993928e+003,1.662374e-001
5.997785e+003,1.540809e-001
6.001642e+003,1.608876e-001
6.005499e+003,1.704204e-001
6.009356e+003,1.615359e-001
6.013213e+003,1.570985e-001
6.017070e+003,1.564293e-001
6.020927e+003,1.510867e-001
6.024785e+003,1.424402e-001
6.028642e+003,1.444050e-001
6.032499e+003,1.451876e-001
6.036356e+003,1.506053e-001
6.040213e+003,1.615539e-001
6.044070e+003,1.541525e-001
6.047927e+003,1.500233e-001
6.051784e+003,1.685604e-001
6.055641e+003,1.682624e-001
6.059499e+003,1.467505e-001
6.063355e+003,1.472224e-001
6.067212e+003,1.519142e-001
6.071070e+003,1.384069e-001
6.074927e+003,1.345026e-001
6.078784e+003,1.460731e-001
6.082641e+003,1.495951e-001
6.086498e+003,1.573264e-001
6.090355e+003,1.703215e-001
6.094212e+003,1.654244e-001
6.098069e+003,1.560229e-001
6.101926e+003,1.526352e-001
6.105784e+003,1.587173e-001
6.109641e+003,1.628644e-001
6.113498e+003,1.554270e-001
6.117355e+003,1.398157e-001
6.121212e+003,1.375174e-001
6.125069e+003,1.415958e-001
6.128926e+003,1.459033e-001
6.132783e+003,1.526912e-001
6.136640e+003,1.671109e-001
6.140498e+003,1.682356e-001
6.144354e+003,1.520204e-001
6.148211e+003,1.477905e-001
6.152069e+003,1.452792e-001
6.155926e+003,1.484134e-001
6.159783e+003,1.569279e-001
6.163640e+003,1.545571e-001
6.167497e+003,1.558838e-001
6.171354e+003,1.478660e-001
6.175211e+003,1.523869e-001
6.179068e+003,1.564752e-001
6.182925e+003,1.542853e-001
6.186783e+003,1.612364e-001
6.190640e+003,1.690147e-001
6.194497e+003,1.550893e-001
6.198354e+003,1.385509e-001
6.202211e+003,1.432366e-001
6.206068e+003,1.629394e-001
6.209925e+003,1.670002e-001
6.213782e+003,1.526581e-001
6.217639e+003,1.615735e-001
6.221497e+003,1.686602e-001
6.225354e+003,1.664375e-001
6.229210e+003,1.630619e-001
6.233068e+003,1.592619e-001
6.236925e+003,1.498968e-001
6.240782e+003,1.545627e-001
6.244639e+003,1.569181e-001
6.248496e+003,1.505674e-001
6.252353e+003,1.606375e-001
6.256210e+003,1.691532e-001
6.260067e+003,1.691065e-001
6.263924e+003,1.614148e-001
6.267782e+003,1.578869e-001
6.271639e+003,1.591324e-001
6.275496e+003,1.534238e-001
6.279353e+003,1.487544e-001
6.283210e+003,1.651941e-001
6.287067e+003,1.863732e-001
6.290924e+003,1.710521e-001
6.294781e+003,1.484105e-001
6.298638e+003,1.500409e-001
6.302496e+003,1.677686e-001
6.306353e+003,1.732357e-001
6.310209e+003,1.716142e-001
6.314067e+003,1.621670e-001
6.317924e+003,1.531375e-001
6.321781e+003,1.601920e-001
6.325638e+003,1.661301e-001
6.329495e+003,1.833158e-001
6.333352e+003,1.888118e-001
6.337209e+003,1.657171e-001
6.341066e+003,1.642527e-001
6.344923e+003,1.739367e-001
6.348780e+003,1.726680e-001
6.352638e+003,1.654946e-001
6.356495e+003,1.610427e-001
6.360352e+003,1.677532e-001
6.364209e+003,1.702496e-001
6.368066e+003,1.660073e-001
6.371923e+003,1.575969e-001
6.375780e+003,1.513938e-001
6.379637e+003,1.581308e-001
6.383494e+003,1.660431e-001
6.387352e+003,1.659272e-001
6.391208e+003,1.562448e-001
6.395065e+003,1.495411e-001
6.398923e+003,1.647366e-001
6.402780e+003,1.692569e-001
6.406637e+003,1.567848e-001
6.410494e+003,1.592124e-001
6.414351e+003,1.613674e-001
6.418208e+003,1.503581e-001
6.422065e+003,1.524130e-001
6.425922e+003,1.668121e-001
6.429779e+003,1.600616e-001
6.433637e+003,1.531738e-001
6.437494e+003,1.580466e-001
6.441351e+003,1.612236e-001
6.445208e+003,1.638314e-001
6.449065e+003,1.663831e-001
6.452922e+003,1.693412e-001
6.456779e+003,1.557724e-001
6.460636e+003,1.540772e-001
6.464493e+003,1.691681e-001
6.468351e+003,1.663363e-001
6.472208e+003,1.574644e-001
6.476064e+003,1.616423e-001
6.479922e+003,1.706132e-001
6.483779e+003,1.905343e-001
6.487636e+003,1.812530e-001
6.491493e+003,1.739805e-001
6.495350e+003,1.723499e-001
6.499207e+003,1.605961e-001
6.503064e+003,1.587590e-001
6.506921e+003,1.663312e-001
6.510778e+003,1.632737e-001
6.514636e+003,1.623958e-001
6.518493e+003,1.615093e-001
6.522350e+003,1.600817e-001
6.526207e+003,1.784946e-001
6.530064e+003,1.809669e-001
6.533921e+003,1.728214e-001
6.537778e+003,1.681695e-001
6.541635e+003,1.663500e-001
6.545492e+003,1.680101e-001
6.549350e+003,1.704699e-001
6.553207e+003,1.777062e-001
6.557063e+003,1.767883e-001
6.560921e+003,1.740314e-001
6.564778e+003,1.780926e-001
6.568635e+003,1.745768e-001
6.572492e+003,1.576390e-001
6.576349e+003,1.655598e-001
6.580206e+003,1.627507e-001
6.584063e+003,1.517937e-001
6.587920e+003,1.442509e-001
6.591777e+003,1.376302e-001
6.595635e+003,1.533217e-001
6.599492e+003,1.628710e-001
6.603349e+003,1.535604e-001
6.607206e+003,1.676447e-001
6.611063e+003,1.616647e-001
6.614920e+003,1.665321e-001
6.618777e+003,1.717993e-001
6.622634e+003,1.611683e-001
6.626491e+003,1.583675e-001
6.630349e+003,1.732807e-001
6.634206e+003,1.741653e-001
6.638063e+003,1.496378e-001
6.641920e+003,1.461212e-001
6.645777e+003,1.545559e-001
6.649634e+003,1.789050e-001
6.653491e+003,1.973954e-001
6.657348e+003,1.880055e-001
6.661205e+003,1.760412e-001
6.665063e+003,1.737732e-001
6.668919e+003,1.657531e-001
6.672776e+003,1.722345e-001
6.676634e+003,1.917254e-001
6.680491e+003,1.745045e-001
6.684348e+003,1.467734e-001
6.688205e+003,1.499589e-001
6.692062e+003,1.720832e-001
6.695919e+003,1.783738e-001
6.699776e+003,1.716837e-001
6.703633e+003,1.637570e-001
6.707490e+003,1.586327e-001
6.711348e+003,1.523200e-001
6.715205e+003,1.567971e-001
6.719062e+003,1.749010e-001
6.722919e+003,1.846628e-001
6.726776e+003,1.676371e-001
6.730633e+003,1.802650e-001
6.734490e+003,1.828599e-001
6.738347e+003,1.709927e-001
6.742204e+003,1.808127e-001
6.746062e+003,1.943233e-001
6.749918e+003,1.922444e-001
6.753775e+003,1.724059e-001
6.757633e+003,1.681185e-001
6.761490e+003,2.003123e-001
6.765347e+003,2.061471e-001
6.769204e+003,1.666895e-001
6.773061e+003,1.494729e-001
6.776918e+003,1.590668e-001
6.780775e+003,1.596208e-001
6.784632e+003,1.505952e-001
6.788489e+003,1.523018e-001
6.792347e+003,1.759862e-001
6.796204e+003,1.831946e-001
6.800061e+003,1.923806e-001
6.803918e+003,1.989115e-001
6.807775e+003,1.831323e-001
6.811632e+003,1.938065e-001
6.815489e+003,2.037248e-001
6.819346e+003,1.873751e-001
6.823203e+003,1.698382e-001
6.827061e+003,1.904945e-001
6.830917e+003,2.176080e-001
6.834774e+003,2.217712e-001
6.838632e+003,2.114627e-001
6.842489e+003,1.997697e-001
6.846346e+003,1.967794e-001
6.850203e+003,1.858650e-001
6.854060e+003,1.727070e-001
6.857917e+003,1.635013e-001
6.861774e+003,1.725951e-001
6.865631e+003,1.650812e-001
6.869488e+003,1.872360e-001
6.873346e+003,2.043586e-001
6.877203e+003,1.834700e-001
6.881060e+003,1.906141e-001
6.884917e+003,2.049718e-001
6.888774e+003,2.136869e-001
6.892631e+003,2.157935e-001
6.896488e+003,2.187965e-001
6.900345e+003,1.970594e-001
6.904202e+003,1.795123e-001
6.908060e+003,1.725464e-001
6.911917e+003,1.803134e-001
6.915773e+003,1.804786e-001
6.919631e+003,1.513977e-001
6.923488e+003,1.493306e-001
6.927345e+003,1.552005e-001
6.931202e+003,1.944123e-001
6.935059e+003,2.169331e-001
6.938916e+003,1.882824e-001
6.942773e+003,1.743702e-001
6.946630e+003,2.002919e-001
6.950487e+003,2.467371e-001
6.954345e+003,2.468798e-001
6.958202e+003,1.926172e-001
6.962059e+003,1.462985e-001
6.965916e+003,1.716131e-001
6.969773e+003,2.302836e-001
6.973630e+003,2.442653e-001
6.977487e+003,2.143079e-001
6.981344e+003,1.838769e-001
6.985201e+003,1.541148e-001
6.989059e+003,1.708884e-001
6.992916e+003,1.902438e-001
6.996772e+003,2.200761e-001
7.000630e+003,2.497339e-001
7.004487e+003,2.330901e-001
7.008344e+003,2.127151e-001
7.012201e+003,1.976299e-001
7.016058e+003,1.862527e-001
7.019915e+003,1.929027e-001
7.023772e+003,2.016401e-001
7.027629e+003,1.939368e-001
7.031486e+003,1.753612e-001
7.035344e+003,1.842298e-001
7.039201e+003,2.036881e-001
7.043058e+003,2.253988e-001
7.046915e+003,2.292736e-001
7.050772e+003,2.486645e-001
7.054629e+003,2.726861e-001
7.058486e+003,2.193147e-001
7.062343e+003,1.844765e-001
7.066200e+003,1.870951e-001
7.070058e+003,1.856959e-001
7.073915e+003,1.914102e-001
7.077771e+003,1.984559e-001
7.081629e+003,2.000065e-001
7.085486e+003,2.062612e-001
7.089343e+003,2.122636e-001
7.093200e+003,1.827817e-001
7.097057e+003,1.867610e-001
7.100914e+003,2.376240e-001
7.104771e+003,2.678214e-001
7.108628e+003,2.181140e-001
7.112485e+003,1.960539e-001
7.116343e+003,2.167228e-001
7.120200e+003,2.227754e-001
7.124057e+003,2.251394e-001
7.127914e+003,2.182810e-001
7.131771e+003,1.984856e-001
7.135628e+003,2.395636e-001
7.139485e+003,2.908666e-001
7.143342e+003,2.672892e-001
7.147199e+003,2.082574e-001
7.151057e+003,1.802850e-001
7.154914e+003,1.790611e-001
7.158771e+003,2.100695e-001
7.162628e+003,2.386867e-001
7.166485e+003,2.185817e-001
7.170342e+003,1.848637e-001
7.174199e+003,1.990672e-001
7.178056e+003,2.143276e-001
7.181913e+003,2.115781e-001
7.185771e+003,2.230774e-001
7.189627e+003,2.764553e-001
7.193484e+003,2.813754e-001
7.197342e+003,2.327551e-001
7.201199e+003,2.298871e-001
7.205056e+003,2.373551e-001
7.208913e+003,2.281704e-001
7.212770e+003,2.305608e-001
7.216627e+003,2.296046e-001
7.220484e+003,2.192492e-001
7.224341e+003,2.073805e-001
7.228198e+003,2.159754e-001
7.232056e+003,2.408148e-001
7.235913e+003,2.608515e-001
7.239770e+003,2.319333e-001
7.243627e+003,2.513271e-001
7.247484e+003,2.931903e-001
7.251341e+003,2.832698e-001
7.255198e+003,2.441396e-001
7.259055e+003,1.977429e-001
7.262912e+003,1.959928e-001
7.266770e+003,2.182218e-001
7.270626e+003,2.238000e-001
7.274483e+003,2.471372e-001
7.278341e+003,2.921579e-001
7.282198e+003,2.595101e-001
7.286055e+003,1.894337e-001
7.289912e+003,1.877167e-001
7.293769e+003,2.173198e-001
7.297626e+003,2.637010e-001
7.301483e+003,2.925451e-001
7.305340e+003,2.452813e-001
7.309197e+003,2.465998e-001
7.313055e+003,1.993855e-001
7.316912e+003,2.026196e-001
7.320769e+003,2.188009e-001
7.324626e+003,2.070047e-001
7.328483e+003,2.256841e-001
7.332340e+003,2.019739e-001
7.336197e+003,2.057314e-001
7.340054e+003,2.366885e-001
7.343911e+003,2.392604e-001
7.347769e+003,2.028025e-001
7.351625e+003,1.830469e-001
7.355482e+003,1.667017e-001
7.359340e+003,1.976351e-001
7.363197e+003,2.363762e-001
7.367054e+003,2.041401e-001
7.370911e+003,1.707232e-001
7.374768e+003,1.903229e-001
7.378625e+003,2.315463e-001
7.382482e+003,2.253587e-001
7.386339e+003,1.794647e-001
7.390196e+003,1.690539e-001
7.394054e+003,1.867840e-001
7.397911e+003,2.189497e-001
7.401768e+003,1.875871e-001
7.405625e+003,1.603593e-001
7.409482e+003,1.704888e-001
7.413339e+003,2.005996e-001
7.417196e+003,1.825425e-001
7.421053e+003,2.049769e-001
7.424910e+003,2.072365e-001
7.428768e+003,2.523535e-001
7.432625e+003,2.739287e-001
7.436481e+003,2.384463e-001
7.440339e+003,2.005213e-001
7.444196e+003,1.739124e-001
7.448053e+003,1.964702e-001
7.451910e+003,1.934313e-001
7.455767e+003,1.689166e-001
7.459624e+003,1.727552e-001
7.463481e+003,1.804482e-001
7.467338e+003,2.024476e-001
7.471195e+003,1.833768e-001
7.475053e+003,1.747697e-001
7.478910e+003,1.770862e-001
7.482767e+003,1.548660e-001
7.486624e+003,1.351008e-001
7.490481e+003,1.869794e-001
7.494338e+003,2.537202e-001
7.498195e+003,3.455498e-001
7.502052e+003,3.090993e-001
7.505909e+003,2.113187e-001
7.509767e+003,2.369606e-001
7.513624e+003,2.417462e-001
7.517480e+003,1.785200e-001
7.521338e+003,1.393747e-001
7.525195e+003,1.571013e-001
7.529052e+003,2.179242e-001
7.532909e+003,2.002755e-001
7.536766e+003,1.924765e-001
7.540623e+003,1.960242e-001
7.544480e+003,1.836476e-001
7.548337e+003,2.064479e-001
7.552194e+003,2.356559e-001
7.556052e+003,2.597660e-001
7.559909e+003,2.861294e-001
7.563766e+003,3.286218e-001
7.567623e+003,3.433837e-001
7.571480e+003,3.083473e-001
7.575337e+003,2.305355e-001
7.579194e+003,1.959559e-001
7.583051e+003,2.250247e-001
7.586908e+003,2.694646e-001
7.590766e+003,2.936073e-001
7.594623e+003,2.796430e-001
7.598479e+003,2.335990e-001
7.602337e+003,2.157390e-001
7.606194e+003,2.459780e-001
7.610051e+003,2.689179e-001
7.613908e+003,2.414110e-001
7.617765e+003,2.374882e-001
7.621622e+003,2.878946e-001
7.625479e+003,2.592965e-001
7.629336e+003,2.145631e-001
7.633193e+003,2.353333e-001
7.637051e+003,2.771078e-001
7.640908e+003,2.992655e-001
7.644765e+003,2.830153e-001
7.648622e+003,2.209813e-001
7.652479e+003,2.064556e-001
7.656336e+003,2.752362e-001
7.660193e+003,3.194270e-001
7.664050e+003,2.403378e-001
7.667907e+003,1.674530e-001
7.671765e+003,2.152793e-001
7.675622e+003,3.043580e-001
7.679479e+003,2.657852e-001
7.683336e+003,2.782337e-001
7.687193e+003,3.088945e-001
7.691050e+003,3.368082e-001
7.694907e+003,1.994708e-001
7.698764e+003,1.442193e-001
7.702621e+003,1.879770e-001
7.706479e+003,2.564897e-001
7.710335e+003,2.821855e-001
7.714192e+003,2.414558e-001
7.718050e+003,2.151980e-001
7.721907e+003,2.069528e-001
7.725764e+003,1.694570e-001
7.729621e+003,2.002509e-001
7.733478e+003,2.395724e-001
7.737335e+003,2.779099e-001
7.741192e+003,3.163278e-001
7.745049e+003,2.873805e-001
7.748906e+003,3.001834e-001
7.752764e+003,2.730103e-001
7.756621e+003,2.698231e-001
7.760478e+003,2.447386e-001
7.764335e+003,2.469309e-001
7.768192e+003,1.971611e-001
7.772049e+003,1.791735e-001
7.775906e+003,2.062514e-001
7.779763e+003,2.141111e-001
7.783620e+003,2.569681e-001
7.787478e+003,3.217362e-001
7.791334e+003,3.483334e-001
7.795191e+003,2.869685e-001
7.799049e+003,2.488305e-001
7.802906e+003,2.920754e-001
7.806763e+003,3.471634e-001
7.810620e+003,3.005830e-001
7.814477e+003,2.399511e-001
7.818334e+003,2.642315e-001
7.822191e+003,2.470758e-001
7.826048e+003,2.579967e-001
7.829905e+003,3.210829e-001
7.833763e+003,3.119528e-001
7.837620e+003,3.089629e-001
7.841477e+003,3.902830e-001
7.845334e+003,4.497264e-001
7.849191e+003,4.174357e-001
7.853048e+003,4.140112e-001
7.856905e+003,3.325806e-001
7.860762e+003,1.950888e-001
7.864619e+003,1.280738e-001
7.868477e+003,2.185282e-001
7.872333e+003,2.272139e-001
7.876190e+003,1.448730e-001
7.880048e+003,1.957216e-001
7.883905e+003,2.705479e-001
7.887762e+003,2.493002e-001
7.891619e+003,2.202408e-001
7.895476e+003,2.563789e-001
7.899333e+003,2.584884e-001
7.903190e+003,2.141572e-001
7.907047e+003,3.026324e-001
7.910904e+003,3.903075e-001
7.914762e+003,3.034920e-001
7.918619e+003,2.933504e-001
7.922476e+003,3.662929e-001
7.926333e+003,3.777652e-001
7.930190e+003,3.570533e-001
7.934047e+003,3.203879e-001
7.937904e+003,3.576807e-001
7.941761e+003,4.160842e-001
7.945618e+003,4.357776e-001
7.949476e+003,2.061586e-001
7.953333e+003,1.763133e-001
7.957189e+003,2.292367e-001
7.961047e+003,1.569618e-001
7.964904e+003,1.584792e-001
7.968761e+003,2.240573e-001
7.972618e+003,2.361725e-001
7.976475e+003,1.854228e-001
7.980332e+003,1.317790e-001
7.984189e+003,1.767231e-001
7.988046e+003,3.146984e-001
7.991903e+003,3.616661e-001
7.995761e+003,2.103814e-001
7.999618e+003,1.989475e-001
