4.011380e+002,-3.903823e-002
4.049951e+002,-2.818699e-001
4.088522e+002,1.427595e-001
4.127093e+002,7.995316e-001
4.165664e+002,6.000000e+000
4.204235e+002,6.000000e+000
4.242806e+002,6.000000e+000
4.281377e+002,6.000000e+000
4.319948e+002,6.000000e+000
4.358519e+002,6.000000e+000
4.397090e+002,-4.398303e-001
4.435661e+002,-3.607408e-002
4.474232e+002,7.055287e-001
4.512803e+002,6.000000e+000
4.551374e+002,6.000000e+000
4.589945e+002,6.000000e+000
4.628516e+002,6.000000e+000
4.667087e+002,-4.103282e-001
4.705658e+002,5.551130e-002
4.744229e+002,6.000000e+000
4.782800e+002,6.000000e+000
4.821371e+002,6.000000e+000
4.859941e+002,-2.866825e-001
4.898513e+002,6.000000e+000
4.937083e+002,6.000000e+000
4.975654e+002,3.223569e-001
5.014225e+002,-2.249348e-001
5.052796e+002,7.464240e-001
5.091367e+002,-1.244373e+000
5.129938e+002,-8.894598e-001
5.168509e+002,-2.588843e-001
5.207080e+002,-4.942175e-002
5.245651e+002,6.000000e+000
5.284222e+002,6.000000e+000
5.322793e+002,-1.497633e+000
5.361364e+002,1.490044e+000
5.399935e+002,5.413210e-001
5.438506e+002,4.839729e-001
5.477077e+002,6.000000e+000
5.515648e+002,3.238904e+000
5.554219e+002,5.879638e-001
5.592790e+002,-6.486144e-001
5.631361e+002,6.000000e+000
5.669932e+002,3.039757e-001
5.708503e+002,4.331729e-001
5.747074e+002,6.000000e+000
5.785645e+002,6.000000e+000
5.824216e+002,1.251753e+000
5.862787e+002,6.000000e+000
5.901357e+002,6.000000e+000
5.939929e+002,6.000000e+000
5.978499e+002,6.522076e-001
6.017070e+002,6.000000e+000
6.055641e+002,3.059823e+000
6.094212e+002,6.000000e+000
6.132783e+002,-2.768738e-001
6.171354e+002,6.000000e+000
6.209925e+002,-1.677998e-001
6.248496e+002,-1.200839e-003
6.287067e+002,6.000000e+000
6.325638e+002,6.000000e+000
6.364209e+002,6.000000e+000
6.402780e+002,6.000000e+000
6.441351e+002,2.468400e-001
6.479922e+002,7.278904e-001
6.518493e+002,6.000000e+000
6.557064e+002,3.741966e-001
6.595635e+002,-4.944819e-001
6.634205e+002,6.000000e+000
6.672777e+002,6.000000e+000
6.711348e+002,6.000000e+000
6.749918e+002,6.000000e+000
6.788490e+002,6.000000e+000
6.827061e+002,6.000000e+000
6.865631e+002,6.000000e+000
6.904203e+002,1.984671e-001
6.942773e+002,6.000000e+000
6.981344e+002,4.400126e-002
7.019916e+002,6.000000e+000
7.058486e+002,3.140562e-001
7.097057e+002,3.380978e-001
7.135629e+002,6.000000e+000
7.174199e+002,3.543868e-001
7.212770e+002,-1.344904e-001
7.251342e+002,6.010478e-002
7.289912e+002,-5.607167e-001
7.328483e+002,-2.231764e+000
7.367054e+002,-2.741932e-001
7.405625e+002,6.741040e-001
7.444196e+002,6.000000e+000
7.482767e+002,6.000000e+000
7.521338e+002,8.892036e-001
7.559908e+002,4.995911e-001
7.598480e+002,-2.505943e-001
7.637051e+002,-1.750879e+000
7.675621e+002,6.000000e+000
7.714193e+002,6.000000e+000
7.752764e+002,6.000000e+000
7.791334e+002,6.000000e+000
7.829905e+002,6.000000e+000
7.868477e+002,6.000000e+000
7.907047e+002,6.000000e+000
7.945618e+002,3.881914e-001
7.984189e+002,4.121359e-002
8.022760e+002,6.000000e+000
8.061331e+002,6.000000e+000
8.099902e+002,2.126744e-001
8.138473e+002,2.338742e-002
8.177044e+002,2.227627e-001
8.215615e+002,6.794019e-002
8.254186e+002,3.148714e-001
8.292757e+002,2.436662e-001
8.331328e+002,-6.987668e-002
8.369899e+002,2.455068e-001
8.408470e+002,6.000000e+000
8.447041e+002,6.000000e+000
8.485612e+002,6.000000e+000
8.524183e+002,6.000000e+000
8.562754e+002,3.235578e-001
8.601324e+002,1.709998e-001
8.639896e+002,6.659761e-001
8.678467e+002,6.000000e+000
8.717037e+002,6.000000e+000
8.755609e+002,6.000000e+000
8.794180e+002,6.000000e+000
8.832750e+002,6.000000e+000
8.871321e+002,1.111464e+000
8.909893e+002,6.000000e+000
8.948463e+002,7.693775e-001
8.987034e+002,7.216422e-001
9.025605e+002,6.342990e-001
9.064176e+002,7.898551e-001
9.102747e+002,2.207056e+000
9.141318e+002,1.844620e+000
9.179889e+002,1.159837e+000
9.218461e+002,8.632155e-001
9.257031e+002,7.036433e-001
9.295602e+002,9.639095e-001
9.334174e+002,6.000000e+000
9.372744e+002,1.094621e+000
9.411315e+002,7.929053e-001
9.449886e+002,9.938145e-001
9.488457e+002,1.033179e+000
9.527028e+002,1.045471e+000
9.565599e+002,1.052465e+000
9.604170e+002,9.123794e-001
9.642740e+002,9.088649e-001
9.681312e+002,1.033350e+000
9.719883e+002,9.451183e-001
9.758453e+002,9.942552e-001
9.797025e+002,9.910848e-001
9.835596e+002,8.749712e-001
9.874166e+002,9.861268e-001
9.912738e+002,1.108293e+000
9.951309e+002,1.067600e+000
9.989879e+002,1.052275e+000
1.002845e+003,1.070661e+000
1.006702e+003,9.491500e-001
1.010559e+003,8.748834e-001
1.014416e+003,8.817621e-001
1.018273e+003,9.152613e-001
1.022130e+003,9.119972e-001
1.025988e+003,8.200564e-001
1.029845e+003,8.279520e-001
1.033702e+003,8.517965e-001
1.037559e+003,8.847753e-001
1.041416e+003,9.166071e-001
1.045273e+003,9.736732e-001
1.049130e+003,1.015587e+000
1.052987e+003,9.880716e-001
1.056844e+003,9.577913e-001
1.060702e+003,8.646886e-001
1.064559e+003,8.655265e-001
1.068416e+003,9.031765e-001
1.072273e+003,9.435772e-001
1.076130e+003,9.892455e-001
1.079987e+003,9.645898e-001
1.083844e+003,9.282719e-001
1.087701e+003,9.530904e-001
1.091558e+003,9.137180e-001
1.095415e+003,8.988003e-001
1.099272e+003,9.008704e-001
1.103130e+003,9.116175e-001
1.106987e+003,9.084818e-001
1.110844e+003,8.861966e-001
1.114701e+003,8.786663e-001
1.118558e+003,8.596236e-001
1.122415e+003,8.232273e-001
1.126272e+003,9.109731e-001
1.130129e+003,9.534425e-001
1.133986e+003,9.176336e-001
1.137843e+003,8.934370e-001
1.141701e+003,8.741940e-001
1.145558e+003,8.635989e-001
1.149415e+003,8.516687e-001
1.153272e+003,8.438699e-001
1.157129e+003,8.742456e-001
1.160986e+003,8.949466e-001
1.164843e+003,8.620796e-001
1.168700e+003,8.602703e-001
1.172557e+003,8.816511e-001
1.176414e+003,8.459486e-001
1.180271e+003,8.217598e-001
1.184129e+003,8.452249e-001
1.187986e+003,8.574004e-001
1.191843e+003,8.245373e-001
1.195700e+003,7.921177e-001
1.199557e+003,7.721156e-001
1.203414e+003,7.311502e-001
1.207271e+003,7.315016e-001
1.211128e+003,7.430532e-001
1.214985e+003,7.194653e-001
1.218842e+003,6.964888e-001
1.222699e+003,6.916490e-001
1.226557e+003,6.800836e-001
1.230414e+003,6.498634e-001
1.234271e+003,6.430449e-001
1.238128e+003,6.618844e-001
1.241985e+003,6.708657e-001
1.245842e+003,6.666975e-001
1.249699e+003,6.709421e-001
1.253556e+003,6.841324e-001
1.257413e+003,6.814229e-001
1.261271e+003,6.625655e-001
1.265128e+003,6.604122e-001
1.268985e+003,6.367281e-001
1.272842e+003,6.207690e-001
1.276699e+003,6.060815e-001
1.280556e+003,5.706662e-001
1.284413e+003,5.658750e-001
1.288270e+003,5.667086e-001
1.292127e+003,5.358899e-001
1.295984e+003,5.105206e-001
1.299841e+003,5.052828e-001
1.303698e+003,4.959686e-001
1.307556e+003,4.743272e-001
1.311413e+003,4.680192e-001
1.315270e+003,4.665620e-001
1.319127e+003,4.472803e-001
1.322984e+003,4.429973e-001
1.326841e+003,4.304760e-001
1.330698e+003,4.154112e-001
1.334555e+003,4.127129e-001
1.338412e+003,4.092148e-001
1.342270e+003,4.142095e-001
1.346127e+003,4.185212e-001
1.349984e+003,4.117242e-001
1.353841e+003,4.173765e-001
1.357698e+003,4.252945e-001
1.361555e+003,4.244781e-001
1.365412e+003,4.288788e-001
1.369269e+003,4.459966e-001
1.373126e+003,4.507844e-001
1.376983e+003,4.618767e-001
1.380840e+003,4.779828e-001
1.384698e+003,4.971272e-001
1.388555e+003,5.276640e-001
1.392412e+003,5.356795e-001
1.396269e+003,5.449383e-001
1.400126e+003,5.679910e-001
1.403983e+003,5.811297e-001
1.407840e+003,5.983796e-001
1.411697e+003,6.180550e-001
1.415554e+003,6.322778e-001
1.419411e+003,6.238092e-001
1.423269e+003,6.230404e-001
1.427126e+003,6.310723e-001
1.430983e+003,6.551671e-001
1.434840e+003,6.586261e-001
1.438697e+003,6.453301e-001
1.442554e+003,6.459845e-001
1.446411e+003,6.546560e-001
1.450268e+003,6.522784e-001
1.454125e+003,6.522097e-001
1.457982e+003,6.492186e-001
1.461839e+003,6.289099e-001
1.465697e+003,6.151492e-001
1.469554e+003,6.171343e-001
1.473411e+003,6.266004e-001
1.477268e+003,6.349920e-001
1.481125e+003,6.394284e-001
1.484982e+003,6.536047e-001
1.488839e+003,6.697257e-001
1.492696e+003,6.719799e-001
1.496553e+003,6.660345e-001
1.500411e+003,6.613125e-001
1.504268e+003,6.586608e-001
1.508125e+003,6.600974e-001
1.511982e+003,6.642025e-001
1.515839e+003,6.670837e-001
1.519696e+003,6.657653e-001
1.523553e+003,6.489130e-001
1.527410e+003,6.342525e-001
1.531267e+003,6.160477e-001
1.535124e+003,5.976049e-001
1.538981e+003,5.855368e-001
1.542839e+003,5.625041e-001
1.546696e+003,5.531268e-001
1.550553e+003,5.604926e-001
1.554410e+003,5.713660e-001
1.558267e+003,5.473710e-001
1.562124e+003,5.208722e-001
1.565981e+003,5.129420e-001
1.569838e+003,5.148147e-001
1.573695e+003,5.046124e-001
1.577552e+003,4.911977e-001
1.581410e+003,4.912603e-001
1.585267e+003,4.937004e-001
1.589124e+003,5.005566e-001
1.592981e+003,4.926775e-001
1.596838e+003,4.856203e-001
1.600695e+003,4.894528e-001
1.604552e+003,4.988945e-001
1.608409e+003,5.112605e-001
1.612266e+003,5.155252e-001
1.616123e+003,5.267279e-001
1.619980e+003,5.507050e-001
1.623838e+003,5.681624e-001
1.627695e+003,5.622283e-001
1.631552e+003,5.693084e-001
1.635409e+003,5.748911e-001
1.639266e+003,5.768843e-001
1.643123e+003,5.689793e-001
1.646980e+003,5.584213e-001
1.650837e+003,5.478545e-001
1.654694e+003,5.393360e-001
1.658551e+003,5.274619e-001
1.662409e+003,5.124214e-001
1.666266e+003,4.930441e-001
1.670123e+003,4.709274e-001
1.673980e+003,4.579921e-001
1.677837e+003,4.566017e-001
1.681694e+003,4.463882e-001
1.685551e+003,4.328429e-001
1.689408e+003,4.218054e-001
1.693265e+003,4.100706e-001
1.697122e+003,4.040764e-001
1.700979e+003,3.974876e-001
1.704837e+003,3.937900e-001
1.708694e+003,3.912114e-001
1.712551e+003,3.898171e-001
1.716408e+003,3.862993e-001
1.720265e+003,3.792033e-001
1.724122e+003,3.791445e-001
1.727979e+003,3.842028e-001
1.731836e+003,3.882727e-001
1.735693e+003,3.877330e-001
1.739550e+003,3.831803e-001
1.743408e+003,3.756966e-001
1.747265e+003,3.689749e-001
1.751122e+003,3.756987e-001
1.754979e+003,3.898393e-001
1.758836e+003,3.910576e-001
1.762693e+003,3.896380e-001
1.766550e+003,3.903780e-001
1.770407e+003,3.899591e-001
1.774264e+003,3.814960e-001
1.778121e+003,3.813136e-001
1.781979e+003,3.959017e-001
1.785836e+003,3.914363e-001
1.789693e+003,3.853109e-001
1.793550e+003,3.873019e-001
1.797407e+003,3.968210e-001
1.801264e+003,4.034794e-001
1.805121e+003,4.083615e-001
1.808978e+003,4.099415e-001
1.812835e+003,4.173102e-001
1.816692e+003,4.233604e-001
1.820549e+003,4.211116e-001
1.824407e+003,4.185911e-001
1.828264e+003,4.107808e-001
1.832121e+003,4.144567e-001
1.835978e+003,4.228125e-001
1.839835e+003,4.262558e-001
1.843692e+003,4.213258e-001
1.847549e+003,4.201116e-001
1.851406e+003,4.211160e-001
1.855263e+003,4.220340e-001
1.859120e+003,4.231264e-001
1.862978e+003,4.284613e-001
1.866835e+003,4.253270e-001
1.870692e+003,4.140168e-001
1.874549e+003,4.133053e-001
1.878406e+003,4.165135e-001
1.882263e+003,4.261854e-001
1.886120e+003,4.265207e-001
1.889977e+003,4.208767e-001
1.893834e+003,4.274426e-001
1.897691e+003,4.321753e-001
1.901548e+003,4.276204e-001
1.905406e+003,4.337142e-001
1.909263e+003,4.343521e-001
1.913120e+003,4.335096e-001
1.916977e+003,4.388069e-001
1.920834e+003,4.331268e-001
1.924691e+003,4.294183e-001
1.928548e+003,4.294790e-001
1.932405e+003,4.288584e-001
1.936262e+003,4.341829e-001
1.940119e+003,4.415188e-001
1.943977e+003,4.413578e-001
1.947834e+003,4.288684e-001
1.951691e+003,4.234624e-001
1.955548e+003,4.279945e-001
1.959405e+003,4.316183e-001
1.963262e+003,4.301204e-001
1.967119e+003,4.310763e-001
1.970976e+003,4.345474e-001
1.974833e+003,4.258870e-001
1.978690e+003,4.161748e-001
1.982547e+003,4.191125e-001
1.986405e+003,4.244372e-001
1.990262e+003,4.168868e-001
1.994119e+003,4.085939e-001
1.997976e+003,4.042781e-001
2.001833e+003,4.006454e-001
2.005690e+003,3.989851e-001
2.009547e+003,3.975075e-001
2.013404e+003,3.995907e-001
2.017261e+003,4.063835e-001
2.021118e+003,4.006331e-001
2.024976e+003,3.898489e-001
2.028833e+003,3.902122e-001
2.032690e+003,3.931255e-001
2.036547e+003,3.872460e-001
2.040404e+003,3.865076e-001
2.044261e+003,3.939486e-001
2.048118e+003,3.947901e-001
2.051975e+003,3.858391e-001
2.055832e+003,3.857918e-001
2.059689e+003,3.896137e-001
2.063546e+003,3.851036e-001
2.067404e+003,3.785076e-001
2.071261e+003,3.769695e-001
2.075118e+003,3.759455e-001
2.078975e+003,3.724073e-001
2.082832e+003,3.700950e-001
2.086689e+003,3.651339e-001
2.090546e+003,3.634949e-001
2.094403e+003,3.723428e-001
2.098260e+003,3.737450e-001
2.102117e+003,3.656228e-001
2.105975e+003,3.612646e-001
2.109832e+003,3.623614e-001
2.113689e+003,3.638484e-001
2.117546e+003,3.636574e-001
2.121403e+003,3.540713e-001
2.125260e+003,3.450657e-001
2.129117e+003,3.378546e-001
2.132974e+003,3.368510e-001
2.136831e+003,3.408692e-001
2.140688e+003,3.420112e-001
2.144545e+003,3.421413e-001
2.148403e+003,3.390178e-001
2.152260e+003,3.339657e-001
2.156117e+003,3.357542e-001
2.159974e+003,3.459707e-001
2.163831e+003,3.454224e-001
2.167688e+003,3.404683e-001
2.171545e+003,3.415193e-001
2.175402e+003,3.449963e-001
2.179259e+003,3.494599e-001
2.183116e+003,3.507731e-001
2.186974e+003,3.491169e-001
2.190831e+003,3.518082e-001
2.194688e+003,3.533350e-001
2.198545e+003,3.496247e-001
2.202402e+003,3.444985e-001
2.206259e+003,3.475545e-001
2.210116e+003,3.495490e-001
2.213973e+003,3.422085e-001
2.217830e+003,3.392529e-001
2.221688e+003,3.398530e-001
2.225544e+003,3.415852e-001
2.229402e+003,3.466052e-001
2.233259e+003,3.473977e-001
2.237116e+003,3.417163e-001
2.240973e+003,3.353281e-001
2.244830e+003,3.384652e-001
2.248687e+003,3.440248e-001
2.252544e+003,3.470245e-001
2.256401e+003,3.450865e-001
2.260258e+003,3.422343e-001
2.264115e+003,3.422974e-001
2.267973e+003,3.407285e-001
2.271830e+003,3.462042e-001
2.275687e+003,3.500733e-001
2.279544e+003,3.519001e-001
2.283401e+003,3.519985e-001
2.287258e+003,3.509201e-001
2.291115e+003,3.509026e-001
2.294972e+003,3.517752e-001
2.298829e+003,3.532821e-001
2.302687e+003,3.586328e-001
2.306543e+003,3.628149e-001
2.310401e+003,3.620090e-001
2.314258e+003,3.622353e-001
2.318115e+003,3.682320e-001
2.321972e+003,3.774356e-001
2.325829e+003,3.846955e-001
2.329686e+003,3.865190e-001
2.333543e+003,3.829846e-001
2.337400e+003,3.749216e-001
2.341257e+003,3.739616e-001
2.345115e+003,3.845854e-001
2.348972e+003,3.872437e-001
2.352829e+003,3.866225e-001
2.356686e+003,3.852420e-001
2.360543e+003,3.894541e-001
2.364400e+003,3.872193e-001
2.368257e+003,3.803372e-001
2.372114e+003,3.827271e-001
2.375971e+003,3.807758e-001
2.379828e+003,3.785633e-001
2.383686e+003,3.806783e-001
2.387542e+003,3.811563e-001
2.391400e+003,3.799113e-001
2.395257e+003,3.805472e-001
2.399114e+003,3.792470e-001
2.402971e+003,3.777099e-001
2.406828e+003,3.828180e-001
2.410685e+003,3.830769e-001
2.414542e+003,3.765311e-001
2.418399e+003,3.731180e-001
2.422256e+003,3.768817e-001
2.426114e+003,3.821723e-001
2.429971e+003,3.887274e-001
2.433828e+003,3.924880e-001
2.437685e+003,3.929209e-001
2.441542e+003,3.925899e-001
2.445399e+003,3.874516e-001
2.449256e+003,3.882681e-001
2.453113e+003,3.841064e-001
2.456970e+003,3.742515e-001
2.460827e+003,3.761413e-001
2.464684e+003,3.795069e-001
2.468542e+003,3.780471e-001
2.472399e+003,3.878151e-001
2.476256e+003,3.917751e-001
2.480113e+003,3.878404e-001
2.483970e+003,3.847340e-001
2.487827e+003,3.809405e-001
2.491684e+003,3.781340e-001
2.495541e+003,3.810001e-001
2.499398e+003,3.876137e-001
2.503255e+003,3.875349e-001
2.507113e+003,3.882479e-001
2.510969e+003,3.865275e-001
2.514827e+003,3.818066e-001
2.518684e+003,3.779168e-001
2.522541e+003,3.884304e-001
2.526398e+003,3.981638e-001
2.530255e+003,3.975326e-001
2.534112e+003,3.944804e-001
2.537969e+003,3.903405e-001
2.541826e+003,3.893080e-001
2.545683e+003,3.952514e-001
2.549541e+003,3.969392e-001
2.553398e+003,3.944680e-001
2.557255e+003,3.968329e-001
2.561112e+003,4.007379e-001
2.564969e+003,4.000536e-001
2.568826e+003,3.982975e-001
2.572683e+003,3.995304e-001
2.576540e+003,4.008034e-001
2.580397e+003,3.991324e-001
2.584254e+003,3.990906e-001
2.588112e+003,4.029509e-001
2.591969e+003,4.033906e-001
2.595826e+003,4.034147e-001
2.599683e+003,4.013129e-001
2.603540e+003,3.976644e-001
2.607397e+003,3.993231e-001
2.611254e+003,4.042513e-001
2.615111e+003,3.998615e-001
2.618968e+003,3.967248e-001
2.622825e+003,3.936864e-001
2.626682e+003,3.888387e-001
2.630540e+003,3.970397e-001
2.634397e+003,4.037740e-001
2.638254e+003,4.008818e-001
2.642111e+003,3.991120e-001
2.645968e+003,4.024465e-001
2.649825e+003,4.019295e-001
2.653682e+003,3.991223e-001
2.657539e+003,3.962781e-001
2.661396e+003,3.933313e-001
2.665253e+003,3.931758e-001
2.669111e+003,3.996424e-001
2.672968e+003,4.010557e-001
2.676825e+003,4.040246e-001
2.680682e+003,4.117137e-001
2.684539e+003,4.150301e-001
2.688396e+003,4.175027e-001
2.692253e+003,4.181881e-001
2.696110e+003,4.196488e-001
2.699967e+003,4.223015e-001
2.703824e+003,4.147996e-001
2.707681e+003,4.109602e-001
2.711539e+003,4.166872e-001
2.715396e+003,4.198377e-001
2.719253e+003,4.180186e-001
2.723110e+003,4.142684e-001
2.726967e+003,4.177984e-001
2.730824e+003,4.220419e-001
2.734681e+003,4.218822e-001
2.738538e+003,4.236548e-001
2.742395e+003,4.299993e-001
2.746252e+003,4.275115e-001
2.750110e+003,4.237625e-001
2.753967e+003,4.190452e-001
2.757824e+003,4.165512e-001
2.761681e+003,4.186747e-001
2.765538e+003,4.184755e-001
2.769395e+003,4.219027e-001
2.773252e+003,4.230830e-001
2.777109e+003,4.277762e-001
2.780966e+003,4.382619e-001
2.784823e+003,4.365760e-001
2.788680e+003,4.370949e-001
2.792538e+003,4.446289e-001
2.796395e+003,4.547591e-001
2.800252e+003,4.515746e-001
2.804109e+003,4.518584e-001
2.807966e+003,4.568038e-001
2.811823e+003,4.574754e-001
2.815680e+003,4.590942e-001
2.819537e+003,4.610382e-001
2.823394e+003,4.682299e-001
2.827251e+003,4.678231e-001
2.831109e+003,4.572966e-001
2.834966e+003,4.601697e-001
2.838823e+003,4.655624e-001
2.842680e+003,4.700039e-001
2.846537e+003,4.772293e-001
2.850394e+003,4.813836e-001
2.854251e+003,4.765967e-001
2.858108e+003,4.735775e-001
2.861965e+003,4.759484e-001
2.865823e+003,4.798608e-001
2.869679e+003,4.765333e-001
2.873537e+003,4.731441e-001
2.877394e+003,4.759215e-001
2.881251e+003,4.883113e-001
2.885108e+003,5.032333e-001
2.888965e+003,5.082403e-001
2.892822e+003,5.042866e-001
2.896679e+003,5.051318e-001
2.900536e+003,4.995072e-001
2.904393e+003,5.105546e-001
2.908250e+003,5.131177e-001
2.912108e+003,5.042085e-001
2.915965e+003,5.090603e-001
2.919822e+003,5.143763e-001
2.923679e+003,5.288750e-001
2.927536e+003,5.352259e-001
2.931393e+003,5.250144e-001
2.935250e+003,5.267234e-001
2.939107e+003,5.399591e-001
2.942964e+003,5.500849e-001
2.946822e+003,5.570710e-001
2.950678e+003,5.586284e-001
2.954536e+003,5.523760e-001
2.958393e+003,5.436048e-001
2.962250e+003,5.504186e-001
2.966107e+003,5.618883e-001
2.969964e+003,5.629188e-001
2.973821e+003,5.652655e-001
2.977678e+003,5.705137e-001
2.981535e+003,5.729263e-001
2.985392e+003,5.809421e-001
2.989250e+003,5.793904e-001
2.993107e+003,5.732371e-001
2.996964e+003,5.719346e-001
3.000821e+003,5.749407e-001
3.004678e+003,5.798536e-001
3.008535e+003,5.897345e-001
3.012392e+003,5.928220e-001
3.016249e+003,5.921131e-001
3.020106e+003,5.950937e-001
3.023963e+003,6.065022e-001
3.027821e+003,6.193046e-001
3.031677e+003,6.255168e-001
3.035535e+003,6.176514e-001
3.039392e+003,6.198644e-001
3.043249e+003,6.317081e-001
3.047106e+003,6.311916e-001
3.050963e+003,6.303290e-001
3.054820e+003,6.317403e-001
3.058677e+003,6.339104e-001
3.062534e+003,6.473333e-001
3.066391e+003,6.565570e-001
3.070249e+003,6.536009e-001
3.074106e+003,6.478881e-001
3.077963e+003,6.511090e-001
3.081820e+003,6.577357e-001
3.085677e+003,6.620217e-001
3.089534e+003,6.645147e-001
3.093391e+003,6.695770e-001
3.097248e+003,6.798111e-001
3.101105e+003,6.939775e-001
3.104962e+003,6.887614e-001
3.108820e+003,6.726326e-001
3.112677e+003,6.843674e-001
3.116534e+003,7.038693e-001
3.120391e+003,6.891146e-001
3.124248e+003,6.912791e-001
3.128105e+003,6.944604e-001
3.131962e+003,6.983325e-001
3.135819e+003,7.080351e-001
3.139676e+003,7.196972e-001
3.143533e+003,7.141727e-001
3.147390e+003,7.131417e-001
3.151248e+003,7.480428e-001
3.155105e+003,7.487212e-001
3.158962e+003,7.190838e-001
3.162819e+003,7.117268e-001
3.166676e+003,7.249992e-001
3.170533e+003,7.286584e-001
3.174390e+003,7.310815e-001
3.178247e+003,7.440681e-001
3.182104e+003,7.509239e-001
3.185961e+003,7.618734e-001
3.189819e+003,7.817014e-001
3.193676e+003,7.811557e-001
3.197533e+003,7.525350e-001
3.201390e+003,7.527713e-001
3.205247e+003,7.733252e-001
3.209104e+003,7.727221e-001
3.212961e+003,7.702467e-001
3.216818e+003,7.713000e-001
3.220675e+003,7.554334e-001
3.224532e+003,7.554448e-001
3.228389e+003,7.740927e-001
3.232247e+003,7.797915e-001
3.236104e+003,7.768502e-001
3.239961e+003,7.853572e-001
3.243818e+003,7.895911e-001
3.247675e+003,7.834790e-001
3.251532e+003,7.989514e-001
3.255389e+003,8.139090e-001
3.259246e+003,8.100944e-001
3.263103e+003,8.007334e-001
3.266960e+003,8.196421e-001
3.270818e+003,8.196108e-001
3.274675e+003,7.982115e-001
3.278532e+003,7.959052e-001
3.282389e+003,8.155283e-001
3.286246e+003,8.151600e-001
3.290103e+003,8.228375e-001
3.293960e+003,8.248506e-001
3.297817e+003,8.232078e-001
3.301674e+003,8.195794e-001
3.305531e+003,8.081718e-001
3.309388e+003,8.136091e-001
3.313246e+003,8.247951e-001
3.317103e+003,8.042715e-001
3.320960e+003,8.207291e-001
3.324817e+003,8.290280e-001
3.328674e+003,8.358024e-001
3.332531e+003,8.444788e-001
3.336388e+003,8.403611e-001
3.340245e+003,8.295515e-001
3.344102e+003,8.305608e-001
3.347959e+003,8.329123e-001
3.351817e+003,8.443441e-001
3.355674e+003,8.574997e-001
3.359531e+003,8.703267e-001
3.363388e+003,8.807613e-001
3.367245e+003,8.667849e-001
3.371102e+003,8.648947e-001
3.374959e+003,8.544521e-001
3.378816e+003,8.360990e-001
3.382673e+003,8.363785e-001
3.386530e+003,8.475866e-001
3.390387e+003,8.550786e-001
3.394245e+003,8.513830e-001
3.398102e+003,8.448649e-001
3.401959e+003,8.487456e-001
3.405816e+003,8.604906e-001
3.409673e+003,8.675177e-001
3.413530e+003,8.691346e-001
3.417387e+003,8.670726e-001
3.421244e+003,8.723879e-001
3.425101e+003,8.594303e-001
3.428958e+003,8.382278e-001
3.432815e+003,8.391870e-001
3.436673e+003,8.647236e-001
3.440530e+003,8.637022e-001
3.444387e+003,8.465393e-001
3.448244e+003,8.465451e-001
3.452101e+003,8.588001e-001
3.455958e+003,8.579983e-001
3.459815e+003,8.389771e-001
3.463672e+003,8.451009e-001
3.467529e+003,8.665786e-001
3.471386e+003,8.617997e-001
3.475244e+003,8.591185e-001
3.479101e+003,8.685333e-001
3.482958e+003,8.793619e-001
3.486815e+003,8.694501e-001
3.490672e+003,8.789532e-001
3.494529e+003,8.905951e-001
3.498386e+003,8.741419e-001
3.502243e+003,8.680136e-001
3.506100e+003,8.338421e-001
3.509958e+003,8.407133e-001
3.513814e+003,8.643934e-001
3.517672e+003,8.549916e-001
3.521529e+003,8.523222e-001
3.525386e+003,8.701060e-001
3.529243e+003,8.622726e-001
3.533100e+003,8.572205e-001
3.536957e+003,8.521256e-001
3.540814e+003,8.637218e-001
3.544671e+003,8.680212e-001
3.548528e+003,8.609831e-001
3.552385e+003,8.522052e-001
3.556243e+003,8.521892e-001
3.560100e+003,8.479211e-001
3.563957e+003,8.396660e-001
3.567814e+003,8.545167e-001
3.571671e+003,8.599537e-001
3.575528e+003,8.521589e-001
3.579385e+003,8.513028e-001
3.583242e+003,8.338040e-001
3.587099e+003,8.029972e-001
3.590957e+003,8.025699e-001
3.594813e+003,7.934282e-001
3.598671e+003,7.792149e-001
3.602528e+003,7.738622e-001
3.606385e+003,7.606754e-001
3.610242e+003,7.611817e-001
3.614099e+003,7.550688e-001
3.617956e+003,7.134436e-001
3.621813e+003,6.755527e-001
3.625670e+003,6.577960e-001
3.629527e+003,6.360912e-001
3.633385e+003,6.116849e-001
3.637242e+003,5.841451e-001
3.641099e+003,5.528064e-001
3.644956e+003,5.315461e-001
3.648813e+003,5.092436e-001
3.652670e+003,4.672998e-001
3.656527e+003,4.335819e-001
3.660384e+003,4.163832e-001
3.664241e+003,4.010386e-001
3.668098e+003,3.842955e-001
3.671956e+003,3.662850e-001
3.675813e+003,3.536192e-001
3.679670e+003,3.412229e-001
3.683527e+003,3.301916e-001
3.687384e+003,3.194949e-001
3.691241e+003,3.052210e-001
3.695098e+003,2.961969e-001
3.698955e+003,2.940246e-001
3.702812e+003,2.871057e-001
3.706669e+003,2.765212e-001
3.710526e+003,2.741743e-001
3.714384e+003,2.846430e-001
3.718241e+003,2.798329e-001
3.722098e+003,2.703462e-001
3.725955e+003,2.700179e-001
3.729812e+003,2.685403e-001
3.733669e+003,2.631795e-001
3.737526e+003,2.589715e-001
3.741383e+003,2.641689e-001
3.745240e+003,2.728326e-001
3.749097e+003,2.732541e-001
3.752955e+003,2.670795e-001
3.756812e+003,2.608788e-001
3.760669e+003,2.585908e-001
3.764526e+003,2.621318e-001
3.768383e+003,2.646482e-001
3.772240e+003,2.677642e-001
3.776097e+003,2.706003e-001
3.779954e+003,2.733586e-001
3.783811e+003,2.730365e-001
3.787668e+003,2.686403e-001
3.791525e+003,2.693291e-001
3.795383e+003,2.723191e-001
3.799240e+003,2.648565e-001
3.803097e+003,2.583452e-001
3.806954e+003,2.585279e-001
3.810811e+003,2.657966e-001
3.814668e+003,2.733054e-001
3.818525e+003,2.682391e-001
3.822382e+003,2.610359e-001
3.826239e+003,2.633995e-001
3.830096e+003,2.606690e-001
3.833954e+003,2.553305e-001
3.837811e+003,2.536535e-001
3.841668e+003,2.610337e-001
3.845525e+003,2.677780e-001
3.849382e+003,2.683063e-001
3.853239e+003,2.541202e-001
3.857096e+003,2.498460e-001
3.860953e+003,2.578662e-001
3.864810e+003,2.621435e-001
3.868667e+003,2.629370e-001
3.872524e+003,2.675000e-001
3.876382e+003,2.711472e-001
3.880239e+003,2.689193e-001
3.884096e+003,2.691438e-001
3.887953e+003,2.730011e-001
3.891810e+003,2.742236e-001
3.895667e+003,2.777722e-001
3.899524e+003,2.752306e-001
3.903381e+003,2.680562e-001
3.907238e+003,2.723588e-001
3.911095e+003,2.778330e-001
3.914953e+003,2.728430e-001
3.918810e+003,2.771814e-001
3.922667e+003,2.755650e-001
3.926524e+003,2.670028e-001
3.930381e+003,2.616551e-001
3.934238e+003,2.642202e-001
3.938095e+003,2.641950e-001
3.941952e+003,2.629234e-001
3.945809e+003,2.693230e-001
3.949667e+003,2.736968e-001
3.953523e+003,2.683044e-001
3.957381e+003,2.600155e-001
3.961238e+003,2.615522e-001
3.965095e+003,2.653013e-001
3.968952e+003,2.680736e-001
3.972809e+003,2.645664e-001
3.976666e+003,2.654747e-001
3.980523e+003,2.701287e-001
3.984380e+003,2.675478e-001
3.988237e+003,2.647390e-001
3.992094e+003,2.653721e-001
3.995952e+003,2.643492e-001
3.999809e+003,2.625379e-001
4.003666e+003,2.622563e-001
4.007523e+003,2.650659e-001
4.011380e+003,2.681188e-001
4.015237e+003,2.652706e-001
4.019094e+003,2.606976e-001
4.022951e+003,2.597755e-001
4.026808e+003,2.649867e-001
4.030666e+003,2.731527e-001
4.034522e+003,2.780433e-001
4.038380e+003,2.762933e-001
4.042237e+003,2.684980e-001
4.046094e+003,2.633945e-001
4.049951e+003,2.662204e-001
4.053808e+003,2.662132e-001
4.057665e+003,2.691669e-001
4.061522e+003,2.677214e-001
4.065379e+003,2.690212e-001
4.069236e+003,2.666650e-001
4.073094e+003,2.676817e-001
4.076951e+003,2.712926e-001
4.080808e+003,2.705872e-001
4.084665e+003,2.624909e-001
4.088522e+003,2.510632e-001
4.092379e+003,2.417867e-001
4.096236e+003,2.468833e-001
4.100093e+003,2.511240e-001
4.103950e+003,2.471220e-001
4.107808e+003,2.482933e-001
4.111665e+003,2.538649e-001
4.115521e+003,2.530496e-001
4.119379e+003,2.409397e-001
4.123236e+003,2.356346e-001
4.127093e+003,2.390372e-001
4.130950e+003,2.473808e-001
4.134807e+003,2.517174e-001
4.138664e+003,2.523052e-001
4.142521e+003,2.495898e-001
4.146378e+003,2.494813e-001
4.150235e+003,2.506451e-001
4.154093e+003,2.558683e-001
4.157950e+003,2.563122e-001
4.161807e+003,2.486537e-001
4.165664e+003,2.512828e-001
4.169521e+003,2.542017e-001
4.173378e+003,2.397267e-001
4.177235e+003,2.338730e-001
4.181092e+003,2.379545e-001
4.184949e+003,2.442163e-001
4.188807e+003,2.436537e-001
4.192664e+003,2.466754e-001
4.196521e+003,2.438419e-001
4.200378e+003,2.371699e-001
4.204235e+003,2.371917e-001
4.208092e+003,2.389682e-001
4.211949e+003,2.469560e-001
4.215806e+003,2.544342e-001
4.219663e+003,2.550050e-001
4.223521e+003,2.517238e-001
4.227377e+003,2.507119e-001
4.231234e+003,2.485898e-001
4.235092e+003,2.440713e-001
4.238949e+003,2.404434e-001
4.242806e+003,2.350444e-001
4.246663e+003,2.301983e-001
4.250520e+003,2.371731e-001
4.254377e+003,2.463041e-001
4.258234e+003,2.460253e-001
4.262091e+003,2.422252e-001
4.265948e+003,2.401766e-001
4.269806e+003,2.360921e-001
4.273663e+003,2.367909e-001
4.277520e+003,2.472093e-001
4.281377e+003,2.465014e-001
4.285234e+003,2.475684e-001
4.289091e+003,2.481152e-001
4.292948e+003,2.396922e-001
4.296805e+003,2.343848e-001
4.300662e+003,2.394979e-001
4.304520e+003,2.414118e-001
4.308376e+003,2.459086e-001
4.312233e+003,2.476765e-001
4.316091e+003,2.502013e-001
4.319948e+003,2.579728e-001
4.323805e+003,2.490155e-001
4.327662e+003,2.444963e-001
4.331519e+003,2.409149e-001
4.335376e+003,2.333018e-001
4.339233e+003,2.345010e-001
4.343090e+003,2.383079e-001
4.346947e+003,2.416677e-001
4.350805e+003,2.392485e-001
4.354662e+003,2.442840e-001
4.358519e+003,2.424656e-001
4.362376e+003,2.314824e-001
4.366233e+003,2.325381e-001
4.370090e+003,2.418675e-001
4.373947e+003,2.460192e-001
4.377804e+003,2.415666e-001
4.381661e+003,2.445681e-001
4.385519e+003,2.592031e-001
4.389375e+003,2.593437e-001
4.393232e+003,2.495573e-001
4.397090e+003,2.568994e-001
4.400947e+003,2.653742e-001
4.404804e+003,2.663389e-001
4.408661e+003,2.609400e-001
4.412518e+003,2.503488e-001
4.416375e+003,2.514202e-001
4.420232e+003,2.584540e-001
4.424089e+003,2.624829e-001
4.427946e+003,2.601812e-001
4.431804e+003,2.571003e-001
4.435661e+003,2.636579e-001
4.439518e+003,2.582166e-001
4.443375e+003,2.508650e-001
4.447232e+003,2.429410e-001
4.451089e+003,2.468912e-001
4.454946e+003,2.565146e-001
4.458803e+003,2.565603e-001
4.462660e+003,2.561218e-001
4.466518e+003,2.481609e-001
4.470375e+003,2.294198e-001
4.474231e+003,2.288255e-001
4.478089e+003,2.415368e-001
4.481946e+003,2.479955e-001
4.485803e+003,2.525234e-001
4.489660e+003,2.532394e-001
4.493517e+003,2.516005e-001
4.497375e+003,2.553281e-001
4.501231e+003,2.491003e-001
4.505088e+003,2.492318e-001
4.508946e+003,2.604601e-001
4.512803e+003,2.620483e-001
4.516660e+003,2.613004e-001
4.520517e+003,2.643035e-001
4.524374e+003,2.616197e-001
4.528231e+003,2.589543e-001
4.532088e+003,2.622662e-001
4.535945e+003,2.737390e-001
4.539802e+003,2.634672e-001
4.543660e+003,2.604168e-001
4.547517e+003,2.628767e-001
4.551374e+003,2.567866e-001
4.555231e+003,2.590591e-001
4.559088e+003,2.565004e-001
4.562945e+003,2.516718e-001
4.566802e+003,2.564195e-001
4.570659e+003,2.612059e-001
4.574516e+003,2.588617e-001
4.578374e+003,2.501521e-001
4.582230e+003,2.499202e-001
4.586087e+003,2.551127e-001
4.589945e+003,2.503019e-001
4.593802e+003,2.455261e-001
4.597659e+003,2.445036e-001
4.601516e+003,2.451033e-001
4.605373e+003,2.546342e-001
4.609230e+003,2.684702e-001
4.613087e+003,2.522142e-001
4.616944e+003,2.477480e-001
4.620801e+003,2.436595e-001
4.624659e+003,2.395719e-001
4.628516e+003,2.519448e-001
4.632373e+003,2.591046e-001
4.636230e+003,2.528246e-001
4.640087e+003,2.647114e-001
4.643944e+003,2.694305e-001
4.647801e+003,2.487576e-001
4.651658e+003,2.496738e-001
4.655515e+003,2.615261e-001
4.659373e+003,2.678772e-001
4.663229e+003,2.726604e-001
4.667086e+003,2.655174e-001
4.670944e+003,2.648576e-001
4.674801e+003,2.721888e-001
4.678658e+003,2.712625e-001
4.682515e+003,2.537088e-001
4.686372e+003,2.485585e-001
4.690229e+003,2.560840e-001
4.694086e+003,2.435528e-001
4.697943e+003,2.427188e-001
4.701800e+003,2.590052e-001
4.705658e+003,2.708035e-001
4.709515e+003,2.583886e-001
4.713372e+003,2.384424e-001
4.717229e+003,2.433982e-001
4.721086e+003,2.521579e-001
4.724943e+003,2.515951e-001
4.728800e+003,2.558691e-001
4.732657e+003,2.579128e-001
4.736514e+003,2.527285e-001
4.740372e+003,2.598121e-001
4.744229e+003,2.483274e-001
4.748085e+003,2.362332e-001
4.751943e+003,2.390528e-001
4.755800e+003,2.365315e-001
4.759657e+003,2.352262e-001
4.763514e+003,2.515068e-001
4.767371e+003,2.515904e-001
4.771228e+003,2.462237e-001
4.775085e+003,2.398391e-001
4.778942e+003,2.544259e-001
4.782799e+003,2.457835e-001
4.786657e+003,2.206593e-001
4.790514e+003,2.250091e-001
4.794371e+003,2.473537e-001
4.798228e+003,2.523510e-001
4.802085e+003,2.483070e-001
4.805942e+003,2.499149e-001
4.809799e+003,2.504835e-001
4.813656e+003,2.602049e-001
4.817513e+003,2.611886e-001
4.821371e+003,2.535893e-001
4.825228e+003,2.516972e-001
4.829084e+003,2.475970e-001
4.832942e+003,2.467328e-001
4.836799e+003,2.405201e-001
4.840656e+003,2.411164e-001
4.844513e+003,2.415726e-001
4.848370e+003,2.400801e-001
4.852227e+003,2.380249e-001
4.856084e+003,2.307551e-001
4.859941e+003,2.355740e-001
4.863798e+003,2.435518e-001
4.867656e+003,2.399229e-001
4.871513e+003,2.359691e-001
4.875370e+003,2.342422e-001
4.879227e+003,2.388483e-001
4.883084e+003,2.334713e-001
4.886941e+003,2.390447e-001
4.890798e+003,2.503163e-001
4.894655e+003,2.500334e-001
4.898512e+003,2.485301e-001
4.902370e+003,2.572491e-001
4.906227e+003,2.544606e-001
4.910083e+003,2.361041e-001
4.913941e+003,2.373108e-001
4.917798e+003,2.403324e-001
4.921655e+003,2.403548e-001
4.925512e+003,2.391335e-001
4.929369e+003,2.484716e-001
4.933226e+003,2.491760e-001
4.937083e+003,2.440379e-001
4.940940e+003,2.454072e-001
4.944797e+003,2.562462e-001
4.948655e+003,2.561679e-001
4.952512e+003,2.603072e-001
4.956369e+003,2.606928e-001
4.960226e+003,2.589854e-001
4.964083e+003,2.528938e-001
4.967940e+003,2.296358e-001
4.971797e+003,2.291518e-001
4.975654e+003,2.464487e-001
4.979511e+003,2.482800e-001
4.983369e+003,2.520320e-001
4.987226e+003,2.546827e-001
4.991083e+003,2.416302e-001
4.994940e+003,2.516437e-001
4.998797e+003,2.596677e-001
5.002654e+003,2.573670e-001
5.006511e+003,2.476246e-001
5.010368e+003,2.378149e-001
5.014225e+003,2.423923e-001
5.018083e+003,2.561187e-001
5.021939e+003,2.548731e-001
5.025796e+003,2.352731e-001
5.029654e+003,2.155218e-001
5.033511e+003,2.160578e-001
5.037368e+003,2.311713e-001
5.041225e+003,2.494797e-001
5.045082e+003,2.611469e-001
5.048939e+003,2.638629e-001
5.052796e+003,2.822586e-001
5.056653e+003,2.748035e-001
5.060510e+003,2.677470e-001
5.064368e+003,2.678822e-001
5.068225e+003,2.634699e-001
5.072082e+003,2.642192e-001
5.075939e+003,2.486544e-001
5.079796e+003,2.487911e-001
5.083653e+003,2.552432e-001
5.087510e+003,2.526048e-001
5.091367e+003,2.511647e-001
5.095224e+003,2.479233e-001
5.099082e+003,2.449699e-001
5.102938e+003,2.543015e-001
5.106795e+003,2.657207e-001
5.110653e+003,2.697207e-001
5.114510e+003,2.559048e-001
5.118367e+003,2.421243e-001
5.122224e+003,2.512213e-001
5.126081e+003,2.660281e-001
5.129938e+003,2.583892e-001
5.133795e+003,2.540859e-001
5.137652e+003,2.687382e-001
5.141509e+003,2.755550e-001
5.145367e+003,2.732717e-001
5.149224e+003,2.661463e-001
5.153081e+003,2.570886e-001
5.156938e+003,2.556967e-001
5.160795e+003,2.572024e-001
5.164652e+003,2.545648e-001
5.168509e+003,2.590343e-001
5.172366e+003,2.728032e-001
5.176223e+003,2.910484e-001
5.180081e+003,2.836455e-001
5.183938e+003,2.693172e-001
5.187794e+003,2.686225e-001
5.191652e+003,2.694717e-001
5.195509e+003,2.579781e-001
5.199366e+003,2.591362e-001
5.203223e+003,2.704427e-001
5.207080e+003,2.770191e-001
5.210937e+003,2.751036e-001
5.214794e+003,2.745683e-001
5.218651e+003,2.799553e-001
5.222508e+003,2.872949e-001
5.226366e+003,2.633802e-001
5.230223e+003,2.548160e-001
5.234080e+003,2.760082e-001
5.237937e+003,2.731771e-001
5.241794e+003,2.638768e-001
5.245651e+003,2.653890e-001
5.249508e+003,2.718072e-001
5.253365e+003,2.765432e-001
5.257222e+003,2.752656e-001
5.261080e+003,2.691661e-001
5.264937e+003,2.666741e-001
5.268793e+003,2.673344e-001
5.272651e+003,2.751841e-001
5.276508e+003,2.813116e-001
5.280365e+003,2.784751e-001
5.284222e+003,2.729842e-001
5.288079e+003,2.638765e-001
5.291936e+003,2.634094e-001
5.295793e+003,2.568367e-001
5.299650e+003,2.649727e-001
5.303507e+003,2.671750e-001
5.307365e+003,2.585919e-001
5.311222e+003,2.597619e-001
5.315079e+003,2.576172e-001
5.318936e+003,2.448937e-001
5.322793e+003,2.464998e-001
5.326650e+003,2.553311e-001
5.330507e+003,2.363059e-001
5.334364e+003,2.358837e-001
5.338221e+003,2.511307e-001
5.342079e+003,2.575565e-001
5.345936e+003,2.587014e-001
5.349792e+003,2.653709e-001
5.353650e+003,2.704515e-001
5.357507e+003,2.770729e-001
5.361364e+003,2.777896e-001
5.365221e+003,2.680409e-001
5.369078e+003,2.626306e-001
5.372935e+003,2.584589e-001
5.376792e+003,2.543904e-001
5.380649e+003,2.576916e-001
5.384506e+003,2.429122e-001
5.388364e+003,2.461228e-001
5.392221e+003,2.678258e-001
5.396078e+003,2.685968e-001
5.399935e+003,2.581719e-001
5.403792e+003,2.543162e-001
5.407649e+003,2.483445e-001
5.411506e+003,2.430417e-001
5.415363e+003,2.459976e-001
5.419220e+003,2.420279e-001
5.423078e+003,2.330831e-001
5.426935e+003,2.435854e-001
5.430792e+003,2.436607e-001
5.434649e+003,2.386497e-001
5.438506e+003,2.388800e-001
5.442363e+003,2.371505e-001
5.446220e+003,2.346035e-001
5.450077e+003,2.440974e-001
5.453934e+003,2.597120e-001
5.457792e+003,2.566604e-001
5.461648e+003,2.544315e-001
5.465505e+003,2.736309e-001
5.469363e+003,2.805198e-001
5.473220e+003,2.821541e-001
5.477077e+003,2.674855e-001
5.480934e+003,2.483552e-001
5.484791e+003,2.387356e-001
5.488648e+003,2.443044e-001
5.492505e+003,2.609906e-001
5.496362e+003,2.589785e-001
5.500219e+003,2.386300e-001
5.504077e+003,2.347979e-001
5.507934e+003,2.539814e-001
5.511791e+003,2.629577e-001
5.515648e+003,2.597814e-001
5.519505e+003,2.375249e-001
5.523362e+003,2.482836e-001
5.527219e+003,2.569403e-001
5.531076e+003,2.417706e-001
5.534933e+003,2.293033e-001
5.538791e+003,2.300140e-001
5.542647e+003,2.480481e-001
5.546504e+003,2.676231e-001
5.550362e+003,2.587464e-001
5.554219e+003,2.351536e-001
5.558076e+003,2.267321e-001
5.561933e+003,2.349503e-001
5.565790e+003,2.458896e-001
5.569647e+003,2.550884e-001
5.573504e+003,2.543389e-001
5.577361e+003,2.463285e-001
5.581218e+003,2.590025e-001
5.585076e+003,2.732082e-001
5.588933e+003,2.677191e-001
5.592790e+003,2.564030e-001
5.596647e+003,2.614597e-001
5.600504e+003,2.615440e-001
5.604361e+003,2.490384e-001
5.608218e+003,2.542205e-001
5.612075e+003,2.545342e-001
5.615932e+003,2.661660e-001
5.619790e+003,2.675954e-001
5.623646e+003,2.607712e-001
5.627503e+003,2.635012e-001
5.631361e+003,2.745143e-001
5.635218e+003,2.787495e-001
5.639075e+003,2.755159e-001
5.642932e+003,2.580990e-001
5.646789e+003,2.473403e-001
5.650646e+003,2.414853e-001
5.654503e+003,2.365732e-001
5.658360e+003,2.367443e-001
5.662217e+003,2.490363e-001
5.666075e+003,2.539400e-001
5.669932e+003,2.560387e-001
5.673789e+003,2.530241e-001
5.677646e+003,2.590090e-001
5.681503e+003,2.776235e-001
5.685360e+003,2.697871e-001
5.689217e+003,2.477424e-001
5.693074e+003,2.434691e-001
5.696931e+003,2.601006e-001
5.700789e+003,2.674440e-001
5.704646e+003,2.742102e-001
5.708502e+003,2.632625e-001
5.712360e+003,2.582579e-001
5.716217e+003,2.765755e-001
5.720074e+003,2.981721e-001
5.723931e+003,2.860398e-001
5.727788e+003,2.671245e-001
5.731645e+003,2.791582e-001
5.735502e+003,2.845007e-001
5.739359e+003,2.686179e-001
5.743216e+003,2.514633e-001
5.747074e+003,2.514131e-001
5.750931e+003,2.643396e-001
5.754788e+003,2.732019e-001
5.758645e+003,2.792147e-001
5.762502e+003,2.609713e-001
5.766359e+003,2.654180e-001
5.770216e+003,2.664479e-001
5.774073e+003,2.610011e-001
5.777930e+003,2.476465e-001
5.781788e+003,2.371116e-001
5.785645e+003,2.242048e-001
5.789501e+003,2.346718e-001
5.793359e+003,2.464003e-001
5.797216e+003,2.452836e-001
5.801073e+003,2.542816e-001
5.804930e+003,2.521909e-001
5.808787e+003,2.433355e-001
5.812644e+003,2.424101e-001
5.816501e+003,2.560135e-001
5.820358e+003,2.576779e-001
5.824215e+003,2.697493e-001
5.828073e+003,2.639275e-001
5.831930e+003,2.570781e-001
5.835787e+003,2.574092e-001
5.839644e+003,2.764961e-001
5.843501e+003,2.867728e-001
5.847358e+003,2.752579e-001
5.851215e+003,2.685504e-001
5.855072e+003,2.697050e-001
5.858929e+003,2.540503e-001
5.862787e+003,2.405080e-001
5.866644e+003,2.488694e-001
5.870500e+003,2.503218e-001
5.874358e+003,2.647285e-001
5.878215e+003,2.910255e-001
5.882072e+003,2.745518e-001
5.885929e+003,2.534813e-001
5.889786e+003,2.485742e-001
5.893643e+003,2.524798e-001
5.897500e+003,2.503003e-001
5.901357e+003,2.342238e-001
5.905214e+003,2.362281e-001
5.909072e+003,2.400895e-001
5.912929e+003,2.318041e-001
5.916786e+003,2.306626e-001
5.920643e+003,2.292481e-001
5.924500e+003,2.342071e-001
5.928357e+003,2.463808e-001
5.932214e+003,2.575297e-001
5.936071e+003,2.656378e-001
5.939928e+003,2.545437e-001
5.943786e+003,2.497895e-001
5.947643e+003,2.498504e-001
5.951500e+003,2.431468e-001
5.955357e+003,2.418406e-001
5.959214e+003,2.602631e-001
5.963071e+003,2.811119e-001
5.966928e+003,2.870528e-001
5.970785e+003,2.900062e-001
5.974642e+003,2.757088e-001
5.978500e+003,2.724703e-001
5.982356e+003,2.550818e-001
5.986213e+003,2.409985e-001
5.990071e+003,2.552980e-001
5.993928e+003,2.593608e-001
5.997785e+003,2.567470e-001
6.001642e+003,2.636003e-001
6.005499e+003,2.628866e-001
6.009356e+003,2.563460e-001
6.013213e+003,2.539329e-001
6.017070e+003,2.586794e-001
6.020927e+003,2.715320e-001
6.024785e+003,2.582780e-001
6.028642e+003,2.446469e-001
6.032499e+003,2.418012e-001
6.036356e+003,2.342279e-001
6.040213e+003,2.310897e-001
6.044070e+003,2.515478e-001
6.047927e+003,2.708319e-001
6.051784e+003,2.779756e-001
6.055641e+003,2.640701e-001
6.059499e+003,2.453690e-001
6.063355e+003,2.470300e-001
6.067212e+003,2.556827e-001
6.071070e+003,2.552625e-001
6.074927e+003,2.459277e-001
6.078784e+003,2.395151e-001
6.082641e+003,2.353875e-001
6.086498e+003,2.322999e-001
6.090355e+003,2.350471e-001
6.094212e+003,2.489266e-001
6.098069e+003,2.589325e-001
6.101926e+003,2.557786e-001
6.105784e+003,2.497765e-001
6.109641e+003,2.564027e-001
6.113498e+003,2.743845e-001
6.117355e+003,2.679154e-001
6.121212e+003,2.520080e-001
6.125069e+003,2.591763e-001
6.128926e+003,2.469889e-001
6.132783e+003,2.408428e-001
6.136640e+003,2.319596e-001
6.140498e+003,2.298218e-001
6.144354e+003,2.444944e-001
6.148211e+003,2.237007e-001
6.152069e+003,2.151380e-001
6.155926e+003,2.474752e-001
6.159783e+003,2.472093e-001
6.163640e+003,2.352513e-001
6.167497e+003,2.576032e-001
6.171354e+003,2.711815e-001
6.175211e+003,2.704808e-001
6.179068e+003,2.717440e-001
6.182925e+003,2.625105e-001
6.186783e+003,2.885994e-001
6.190640e+003,2.819058e-001
6.194497e+003,2.514755e-001
6.198354e+003,2.580960e-001
6.202211e+003,2.488223e-001
6.206068e+003,2.403844e-001
6.209925e+003,2.599280e-001
6.213782e+003,2.679914e-001
6.217639e+003,2.700411e-001
6.221497e+003,2.656780e-001
6.225354e+003,2.477798e-001
6.229210e+003,2.668179e-001
6.233068e+003,2.763530e-001
6.236925e+003,2.642529e-001
6.240782e+003,2.971204e-001
6.244639e+003,3.028497e-001
6.248496e+003,2.665141e-001
6.252353e+003,2.586355e-001
6.256210e+003,2.595598e-001
6.260067e+003,2.529671e-001
6.263924e+003,2.786585e-001
6.267782e+003,2.800419e-001
6.271639e+003,2.670926e-001
6.275496e+003,2.564673e-001
6.279353e+003,2.445539e-001
6.283210e+003,2.462371e-001
6.287067e+003,2.612037e-001
6.290924e+003,2.703754e-001
6.294781e+003,2.461436e-001
6.298638e+003,2.407294e-001
6.302496e+003,2.485642e-001
6.306353e+003,2.425708e-001
6.310209e+003,2.420792e-001
6.314067e+003,2.347004e-001
6.317924e+003,2.196457e-001
6.321781e+003,2.254263e-001
6.325638e+003,2.576382e-001
6.329495e+003,2.685157e-001
6.333352e+003,2.668229e-001
6.337209e+003,2.521022e-001
6.341066e+003,2.624708e-001
6.344923e+003,2.466480e-001
6.348780e+003,2.350774e-001
6.352638e+003,2.573695e-001
6.356495e+003,2.729968e-001
6.360352e+003,2.732825e-001
6.364209e+003,2.655586e-001
6.368066e+003,2.795160e-001
6.371923e+003,2.907064e-001
6.375780e+003,3.144341e-001
6.379637e+003,3.043130e-001
6.383494e+003,2.752276e-001
6.387352e+003,2.501600e-001
6.391208e+003,2.154879e-001
6.395065e+003,2.092227e-001
6.398923e+003,2.572778e-001
6.402780e+003,2.706493e-001
6.406637e+003,2.337809e-001
6.410494e+003,2.353257e-001
6.414351e+003,2.629158e-001
6.418208e+003,2.534335e-001
6.422065e+003,2.522614e-001
6.425922e+003,2.666735e-001
6.429779e+003,2.786165e-001
6.433637e+003,2.796709e-001
6.437494e+003,2.741549e-001
6.441351e+003,2.563455e-001
6.445208e+003,2.254476e-001
6.449065e+003,2.332069e-001
6.452922e+003,2.514234e-001
6.456779e+003,2.563077e-001
6.460636e+003,2.648371e-001
6.464493e+003,2.718938e-001
6.468351e+003,2.714077e-001
6.472208e+003,2.725877e-001
6.476064e+003,2.508887e-001
6.479922e+003,2.339531e-001
6.483779e+003,2.702166e-001
6.487636e+003,2.972460e-001
6.491493e+003,3.057174e-001
6.495350e+003,3.046420e-001
6.499207e+003,2.636876e-001
6.503064e+003,2.553443e-001
6.506921e+003,2.636446e-001
6.510778e+003,2.715096e-001
6.514636e+003,2.838991e-001
6.518493e+003,2.716794e-001
6.522350e+003,2.724598e-001
6.526207e+003,2.792246e-001
6.530064e+003,2.923019e-001
6.533921e+003,2.914655e-001
6.537778e+003,2.685753e-001
6.541635e+003,2.398498e-001
6.545492e+003,2.295860e-001
6.549350e+003,2.219781e-001
6.553207e+003,2.415426e-001
6.557063e+003,2.766573e-001
6.560921e+003,2.523350e-001
6.564778e+003,2.263459e-001
6.568635e+003,2.448057e-001
6.572492e+003,2.342328e-001
6.576349e+003,2.006616e-001
6.580206e+003,1.887716e-001
6.584063e+003,2.175548e-001
6.587920e+003,2.464393e-001
6.591777e+003,2.350728e-001
6.595635e+003,2.443951e-001
6.599492e+003,3.010755e-001
6.603349e+003,2.926448e-001
6.607206e+003,2.571492e-001
6.611063e+003,2.551387e-001
6.614920e+003,2.691696e-001
6.618777e+003,2.722220e-001
6.622634e+003,2.537718e-001
6.626491e+003,2.653893e-001
6.630349e+003,2.722008e-001
6.634206e+003,2.769508e-001
6.638063e+003,2.931456e-001
6.641920e+003,2.540719e-001
6.645777e+003,2.392802e-001
6.649634e+003,2.357071e-001
6.653491e+003,2.508118e-001
6.657348e+003,2.807885e-001
6.661205e+003,2.866713e-001
6.665063e+003,2.573171e-001
6.668919e+003,2.844270e-001
6.672776e+003,2.895612e-001
6.676634e+003,2.594371e-001
6.680491e+003,2.244493e-001
6.684348e+003,2.390928e-001
6.688205e+003,2.324397e-001
6.692062e+003,2.194121e-001
6.695919e+003,2.658434e-001
6.699776e+003,2.568106e-001
6.703633e+003,2.322592e-001
6.707490e+003,2.345623e-001
6.711348e+003,2.820014e-001
6.715205e+003,2.720120e-001
6.719062e+003,2.535652e-001
6.722919e+003,2.619816e-001
6.726776e+003,2.440221e-001
6.730633e+003,2.586533e-001
6.734490e+003,2.889098e-001
6.738347e+003,2.776480e-001
6.742204e+003,2.389546e-001
6.746062e+003,2.237123e-001
6.749918e+003,2.133501e-001
6.753775e+003,2.240990e-001
6.757633e+003,2.618338e-001
6.761490e+003,2.748365e-001
6.765347e+003,2.678986e-001
6.769204e+003,2.660430e-001
6.773061e+003,2.567038e-001
6.776918e+003,2.345638e-001
6.780775e+003,2.553111e-001
6.784632e+003,3.318760e-001
6.788489e+003,3.318088e-001
6.792347e+003,2.547519e-001
6.796204e+003,2.488622e-001
6.800061e+003,2.477266e-001
6.803918e+003,2.471927e-001
6.807775e+003,2.372921e-001
6.811632e+003,2.292843e-001
6.815489e+003,2.416740e-001
6.819346e+003,2.293523e-001
6.823203e+003,2.293545e-001
6.827061e+003,2.509566e-001
6.830917e+003,2.678314e-001
6.834774e+003,2.559295e-001
6.838632e+003,2.616324e-001
6.842489e+003,2.481495e-001
6.846346e+003,2.494864e-001
6.850203e+003,2.989170e-001
6.854060e+003,3.329806e-001
6.857917e+003,3.034640e-001
6.861774e+003,2.333163e-001
6.865631e+003,2.308477e-001
6.869488e+003,2.798610e-001
6.873346e+003,2.940776e-001
6.877203e+003,1.978478e-001
6.881060e+003,1.794380e-001
6.884917e+003,2.614499e-001
6.888774e+003,2.986963e-001
6.892631e+003,2.591207e-001
6.896488e+003,2.388540e-001
6.900345e+003,2.784064e-001
6.904202e+003,2.997965e-001
6.908060e+003,2.936183e-001
6.911917e+003,2.433548e-001
6.915773e+003,2.362377e-001
6.919631e+003,2.528592e-001
6.923488e+003,2.704573e-001
6.927345e+003,3.016523e-001
6.931202e+003,3.216653e-001
6.935059e+003,3.616183e-001
6.938916e+003,3.593216e-001
6.942773e+003,3.004712e-001
6.946630e+003,2.593910e-001
6.950487e+003,2.515359e-001
6.954345e+003,2.454140e-001
6.958202e+003,2.542171e-001
6.962059e+003,2.594606e-001
6.965916e+003,2.179649e-001
6.969773e+003,2.159607e-001
6.973630e+003,2.920311e-001
6.977487e+003,3.267990e-001
6.981344e+003,3.235058e-001
6.985201e+003,3.229129e-001
6.989059e+003,3.032691e-001
6.992916e+003,3.011980e-001
6.996772e+003,2.785466e-001
7.000630e+003,2.742090e-001
7.004487e+003,3.011386e-001
7.008344e+003,2.718586e-001
7.012201e+003,2.721487e-001
7.016058e+003,2.975907e-001
7.019915e+003,2.963427e-001
7.023772e+003,3.146050e-001
7.027629e+003,3.071069e-001
7.031486e+003,2.815011e-001
7.035344e+003,2.696186e-001
7.039201e+003,2.559053e-001
7.043058e+003,2.919026e-001
7.046915e+003,3.066585e-001
7.050772e+003,2.880796e-001
7.054629e+003,2.928578e-001
7.058486e+003,2.863500e-001
7.062343e+003,2.648446e-001
7.066200e+003,2.204222e-001
7.070058e+003,2.542828e-001
7.073915e+003,3.357637e-001
7.077771e+003,2.922365e-001
7.081629e+003,1.821874e-001
7.085486e+003,1.747364e-001
7.089343e+003,2.526309e-001
7.093200e+003,2.183830e-001
7.097057e+003,1.815377e-001
7.100914e+003,2.229613e-001
7.104771e+003,2.147702e-001
7.108628e+003,2.132412e-001
7.112485e+003,2.799814e-001
7.116343e+003,2.959814e-001
7.120200e+003,2.287330e-001
7.124057e+003,2.470329e-001
7.127914e+003,3.188095e-001
7.131771e+003,3.053813e-001
7.135628e+003,2.531559e-001
7.139485e+003,2.240217e-001
7.143342e+003,2.487742e-001
7.147199e+003,3.232443e-001
7.151057e+003,3.255924e-001
7.154914e+003,2.249235e-001
7.158771e+003,2.100618e-001
7.162628e+003,2.855840e-001
7.166485e+003,3.292310e-001
7.170342e+003,3.107119e-001
7.174199e+003,3.136740e-001
7.178056e+003,2.709222e-001
7.181913e+003,2.948926e-001
7.185771e+003,3.155836e-001
7.189627e+003,2.789089e-001
7.193484e+003,2.258983e-001
7.197342e+003,2.153734e-001
7.201199e+003,2.456076e-001
7.205056e+003,2.775154e-001
7.208913e+003,2.485219e-001
7.212770e+003,2.411581e-001
7.216627e+003,2.520657e-001
7.220484e+003,2.141722e-001
7.224341e+003,2.149111e-001
7.228198e+003,2.832852e-001
7.232056e+003,3.122773e-001
7.235913e+003,3.074158e-001
7.239770e+003,2.492935e-001
7.243627e+003,2.318335e-001
7.247484e+003,2.452040e-001
7.251341e+003,2.425853e-001
7.255198e+003,2.544428e-001
7.259055e+003,2.622730e-001
7.262912e+003,2.727527e-001
7.266770e+003,2.556865e-001
7.270626e+003,2.202503e-001
7.274483e+003,2.205996e-001
7.278341e+003,2.807567e-001
7.282198e+003,2.566048e-001
7.286055e+003,2.115565e-001
7.289912e+003,2.127057e-001
7.293769e+003,2.248101e-001
7.297626e+003,2.433864e-001
7.301483e+003,2.873322e-001
7.305340e+003,2.339683e-001
7.309197e+003,2.786141e-001
7.313055e+003,3.485094e-001
7.316912e+003,2.732174e-001
7.320769e+003,2.526600e-001
7.324626e+003,2.924849e-001
7.328483e+003,2.892441e-001
7.332340e+003,2.553688e-001
7.336197e+003,2.671633e-001
7.340054e+003,3.414397e-001
7.343911e+003,4.073138e-001
7.347769e+003,3.781243e-001
7.351625e+003,3.114568e-001
7.355482e+003,3.076972e-001
7.359340e+003,3.299087e-001
7.363197e+003,2.391335e-001
7.367054e+003,2.272419e-001
7.370911e+003,3.452778e-001
7.374768e+003,3.810718e-001
7.378625e+003,3.214741e-001
7.382482e+003,2.669941e-001
7.386339e+003,2.512430e-001
7.390196e+003,2.612606e-001
7.394054e+003,2.096142e-001
7.397911e+003,2.132744e-001
7.401768e+003,2.174855e-001
7.405625e+003,2.285902e-001
7.409482e+003,2.701343e-001
7.413339e+003,2.596200e-001
7.417196e+003,3.036439e-001
7.421053e+003,3.475919e-001
7.424910e+003,3.238335e-001
7.428768e+003,2.548556e-001
7.432625e+003,3.075271e-001
7.436481e+003,3.461007e-001
7.440339e+003,3.236361e-001
7.444196e+003,2.718881e-001
7.448053e+003,2.903931e-001
7.451910e+003,3.248757e-001
7.455767e+003,2.768101e-001
7.459624e+003,2.387301e-001
7.463481e+003,2.413139e-001
7.467338e+003,2.974025e-001
7.471195e+003,3.362541e-001
7.475053e+003,3.085769e-001
7.478910e+003,2.691966e-001
7.482767e+003,3.282507e-001
7.486624e+003,2.865282e-001
7.490481e+003,1.749431e-001
7.494338e+003,2.006339e-001
7.498195e+003,1.982220e-001
7.502052e+003,2.010024e-001
7.505909e+003,2.085730e-001
7.509767e+003,1.999792e-001
7.513624e+003,2.168921e-001
7.517480e+003,2.630452e-001
7.521338e+003,2.941253e-001
7.525195e+003,2.318529e-001
7.529052e+003,1.863679e-001
7.532909e+003,2.633688e-001
7.536766e+003,2.604640e-001
7.540623e+003,3.054919e-001
7.544480e+003,4.289324e-001
7.548337e+003,4.530470e-001
7.552194e+003,2.825202e-001
7.556052e+003,2.375594e-001
7.559909e+003,2.530177e-001
7.563766e+003,3.008150e-001
7.567623e+003,3.007565e-001
7.571480e+003,3.179221e-001
7.575337e+003,4.013406e-001
7.579194e+003,3.955537e-001
7.583051e+003,3.826790e-001
7.586908e+003,4.302369e-001
7.590766e+003,4.435979e-001
7.594623e+003,4.001297e-001
7.598479e+003,2.955717e-001
7.602337e+003,3.964273e-001
7.606194e+003,4.703561e-001
7.610051e+003,3.422725e-001
7.613908e+003,2.659172e-001
7.617765e+003,2.255772e-001
7.621622e+003,1.269823e-001
7.625479e+003,1.597430e-001
7.629336e+003,2.547686e-001
7.633193e+003,2.571003e-001
7.637051e+003,2.635954e-001
7.640908e+003,3.730848e-001
7.644765e+003,3.446389e-001
7.648622e+003,2.377273e-001
7.652479e+003,1.916158e-001
7.656336e+003,1.769922e-001
7.660193e+003,2.344065e-001
7.664050e+003,3.232416e-001
7.667907e+003,3.179879e-001
7.671765e+003,2.413837e-001
7.675622e+003,2.466766e-001
7.679479e+003,2.629149e-001
7.683336e+003,2.454775e-001
7.687193e+003,2.325399e-001
7.691050e+003,1.614191e-001
7.694907e+003,1.866637e-001
7.698764e+003,3.282284e-001
7.702621e+003,2.896352e-001
7.706479e+003,2.385031e-001
7.710335e+003,2.675622e-001
7.714192e+003,3.263304e-001
7.718050e+003,2.666652e-001
7.721907e+003,2.856967e-001
7.725764e+003,2.457904e-001
7.729621e+003,1.565343e-001
7.733478e+003,7.420775e-002
7.737335e+003,1.391729e-001
7.741192e+003,3.238693e-001
7.745049e+003,3.574094e-001
7.748906e+003,3.218991e-001
7.752764e+003,2.671925e-001
7.756621e+003,2.724899e-001
7.760478e+003,2.628855e-001
7.764335e+003,2.279216e-001
7.768192e+003,2.841392e-001
7.772049e+003,3.740824e-001
7.775906e+003,3.718267e-001
7.779763e+003,1.308830e-001
7.783620e+003,8.332333e-002
7.787478e+003,7.538682e-002
7.791334e+003,1.672508e-001
7.795191e+003,2.210822e-001
7.799049e+003,2.418987e-001
7.802906e+003,3.210501e-001
7.806763e+003,3.534792e-001
7.810620e+003,3.454919e-001
7.814477e+003,3.096908e-001
7.818334e+003,2.115736e-001
7.822191e+003,1.863871e-001
7.826048e+003,2.984080e-001
7.829905e+003,3.567392e-001
7.833763e+003,3.098734e-001
7.837620e+003,3.762003e-001
7.841477e+003,4.239607e-001
7.845334e+003,2.815809e-001
7.849191e+003,2.967134e-001
7.853048e+003,3.304789e-001
7.856905e+003,3.918990e-001
7.860762e+003,5.926707e-001
7.864619e+003,4.208230e-001
7.868477e+003,1.375628e-001
7.872333e+003,1.188440e-001
7.876190e+003,2.949389e-001
7.880048e+003,5.031848e-001
7.883905e+003,4.253310e-001
7.887762e+003,3.011847e-001
7.891619e+003,2.697539e-001
7.895476e+003,2.332053e-001
7.899333e+003,1.905230e-001
7.903190e+003,1.688234e-001
7.907047e+003,1.154072e-001
7.910904e+003,9.379234e-002
7.914762e+003,8.528697e-002
7.918619e+003,1.956905e-001
7.922476e+003,4.790994e-001
7.926333e+003,4.865646e-001
7.930190e+003,2.839171e-001
7.934047e+003,2.796817e-001
7.937904e+003,3.777339e-001
7.941761e+003,3.389673e-001
7.945618e+003,2.054155e-001
7.949476e+003,1.044537e-001
7.953333e+003,2.304966e-001
7.957189e+003,3.333443e-001
7.961047e+003,3.895688e-001
7.964904e+003,2.838396e-001
7.968761e+003,1.847854e-001
7.972618e+003,1.694825e-001
7.976475e+003,9.378831e-002
7.980332e+003,1.869885e-001
7.984189e+003,3.830183e-001
7.988046e+003,3.905136e-001
7.991903e+003,4.808712e-001
7.995761e+003,7.135428e-001
7.999618e+003,6.212555e-001
