4.011380e+002,6.000000e+000
4.049951e+002,6.000000e+000
4.088522e+002,8.198468e-004
4.127093e+002,7.175089e-001
4.165664e+002,6.000000e+000
4.204235e+002,6.000000e+000
4.242806e+002,4.693318e-001
4.281377e+002,4.976095e-002
4.319948e+002,6.000000e+000
4.358519e+002,-5.409760e-002
4.397090e+002,5.402020e-001
4.435661e+002,8.974026e-001
4.474232e+002,1.380353e-001
4.512803e+002,-4.506912e-001
4.551374e+002,6.000000e+000
4.589945e+002,6.000000e+000
4.628516e+002,6.000000e+000
4.667087e+002,6.000000e+000
4.705658e+002,-4.372170e-001
4.744229e+002,6.000000e+000
4.782800e+002,6.000000e+000
4.821371e+002,5.922090e-001
4.859941e+002,1.019269e+000
4.898513e+002,6.000000e+000
4.937083e+002,6.000000e+000
4.975654e+002,6.000000e+000
5.014225e+002,6.000000e+000
5.052796e+002,6.000000e+000
5.091367e+002,6.000000e+000
5.129938e+002,6.000000e+000
5.168509e+002,-3.269136e-001
5.207080e+002,-1.023860e+000
5.245651e+002,6.000000e+000
5.284222e+002,6.000000e+000
5.322793e+002,6.000000e+000
5.361364e+002,2.770898e-001
5.399935e+002,6.000000e+000
5.438506e+002,6.000000e+000
5.477077e+002,6.000000e+000
5.515648e+002,6.000000e+000
5.554219e+002,6.000000e+000
5.592790e+002,-2.501231e-002
5.631361e+002,1.186710e-001
5.669932e+002,6.000000e+000
5.708503e+002,6.000000e+000
5.747074e+002,6.000000e+000
5.785645e+002,-3.129695e-001
5.824216e+002,-1.069423e+000
5.862787e+002,6.000000e+000
5.901357e+002,4.379554e-001
5.939929e+002,6.000000e+000
5.978499e+002,6.466526e-001
6.017070e+002,6.000000e+000
6.055641e+002,6.000000e+000
6.094212e+002,1.759611e+000
6.132783e+002,6.000000e+000
6.171354e+002,6.000000e+000
6.209925e+002,6.000000e+000
6.248496e+002,-1.131218e+000
6.287067e+002,6.000000e+000
6.325638e+002,9.310517e-002
6.364209e+002,5.658959e-003
6.402780e+002,-3.755340e-001
6.441351e+002,-4.939597e-001
6.479922e+002,1.592546e-001
6.518493e+002,6.000000e+000
6.557064e+002,5.073741e-001
6.595635e+002,-1.990196e-001
6.634205e+002,5.110192e-002
6.672777e+002,-1.209802e-001
6.711348e+002,-2.081637e-002
6.749918e+002,6.000000e+000
6.788490e+002,-7.377673e-001
6.827061e+002,6.000000e+000
6.865631e+002,6.000000e+000
6.904203e+002,6.000000e+000
6.942773e+002,6.000000e+000
6.981344e+002,-4.940529e-001
7.019916e+002,-9.786932e-001
7.058486e+002,-1.317634e-001
7.097057e+002,6.223800e-001
7.135629e+002,2.075829e-001
7.174199e+002,-6.492522e-001
7.212770e+002,6.000000e+000
7.251342e+002,6.000000e+000
7.289912e+002,-7.665306e-001
7.328483e+002,1.697177e-001
7.367054e+002,1.156952e-001
7.405625e+002,6.000000e+000
7.444196e+002,6.000000e+000
7.482767e+002,7.992138e-001
7.521338e+002,6.000000e+000
7.559908e+002,-6.536012e-001
7.598480e+002,6.000000e+000
7.637051e+002,6.000000e+000
7.675621e+002,6.000000e+000
7.714193e+002,-6.922683e-001
7.752764e+002,-1.288165e-001
7.791334e+002,3.103847e-002
7.829905e+002,1.524584e-001
7.868477e+002,-4.025024e-001
7.907047e+002,6.000000e+000
7.945618e+002,-1.442693e+000
7.984189e+002,6.000000e+000
8.022760e+002,6.000000e+000
8.061331e+002,-3.513714e-002
8.099902e+002,2.328732e-001
8.138473e+002,1.201231e+000
8.177044e+002,1.936707e+000
8.215615e+002,1.586162e+000
8.254186e+002,6.762314e-002
8.292757e+002,-1.971154e-001
8.331328e+002,-7.266217e-002
8.369899e+002,6.000000e+000
8.408470e+002,6.000000e+000
8.447041e+002,5.163862e-001
8.485612e+002,5.068429e-001
8.524183e+002,8.275774e-001
8.562754e+002,6.761101e-001
8.601324e+002,5.161167e-001
8.639896e+002,7.544484e-001
8.678467e+002,1.099194e+000
8.717037e+002,9.989260e-001
8.755609e+002,6.000000e+000
8.794180e+002,6.000000e+000
8.832750e+002,1.370201e+000
8.871321e+002,1.162765e+000
8.909893e+002,1.943066e+000
8.948463e+002,2.227030e+000
8.987034e+002,1.568993e+000
9.025605e+002,1.679183e+000
9.064176e+002,1.524464e+000
9.102747e+002,1.028629e+000
9.141318e+002,1.059682e+000
9.179889e+002,1.378783e+000
9.218461e+002,1.221749e+000
9.257031e+002,1.359885e+000
9.295602e+002,1.787202e+000
9.334174e+002,1.742401e+000
9.372744e+002,2.513783e+000
9.411315e+002,6.000000e+000
9.449886e+002,1.891408e+000
9.488457e+002,1.689794e+000
9.527028e+002,1.609697e+000
9.565599e+002,1.968102e+000
9.604170e+002,6.000000e+000
9.642740e+002,1.583509e+000
9.681312e+002,1.264495e+000
9.719883e+002,1.259236e+000
9.758453e+002,1.877993e+000
9.797025e+002,2.894511e+000
9.835596e+002,6.000000e+000
9.874166e+002,6.000000e+000
9.912738e+002,6.000000e+000
9.951309e+002,6.000000e+000
9.989879e+002,1.828718e+000
1.002845e+003,1.711707e+000
1.006702e+003,2.202204e+000
1.010559e+003,2.551277e+000
1.014416e+003,1.745111e+000
1.018273e+003,1.575591e+000
1.022130e+003,1.566201e+000
1.025988e+003,1.444380e+000
1.029845e+003,1.431951e+000
1.033702e+003,1.590151e+000
1.037559e+003,1.782041e+000
1.041416e+003,1.569791e+000
1.045273e+003,1.496261e+000
1.049130e+003,1.397548e+000
1.052987e+003,1.303783e+000
1.056844e+003,1.479672e+000
1.060702e+003,1.519266e+000
1.064559e+003,1.393893e+000
1.068416e+003,1.414593e+000
1.072273e+003,1.457141e+000
1.076130e+003,1.339842e+000
1.079987e+003,1.164139e+000
1.083844e+003,1.136831e+000
1.087701e+003,1.169488e+000
1.091558e+003,1.147603e+000
1.095415e+003,1.135157e+000
1.099272e+003,1.148314e+000
1.103130e+003,1.136570e+000
1.106987e+003,1.093390e+000
1.110844e+003,1.076723e+000
1.114701e+003,1.097379e+000
1.118558e+003,1.052745e+000
1.122415e+003,1.010955e+000
1.126272e+003,1.015475e+000
1.130129e+003,9.988267e-001
1.133986e+003,9.539492e-001
1.137843e+003,9.692239e-001
1.141701e+003,9.591405e-001
1.145558e+003,9.069979e-001
1.149415e+003,8.884315e-001
1.153272e+003,8.926348e-001
1.157129e+003,9.187346e-001
1.160986e+003,9.159601e-001
1.164843e+003,8.900926e-001
1.168700e+003,9.160034e-001
1.172557e+003,9.352739e-001
1.176414e+003,9.258226e-001
1.180271e+003,9.167565e-001
1.184129e+003,8.880978e-001
1.187986e+003,8.697406e-001
1.191843e+003,8.485656e-001
1.195700e+003,8.407013e-001
1.199557e+003,8.695570e-001
1.203414e+003,8.633488e-001
1.207271e+003,8.246061e-001
1.211128e+003,8.152195e-001
1.214985e+003,8.161098e-001
1.218842e+003,7.767777e-001
1.222699e+003,7.646124e-001
1.226557e+003,7.570170e-001
1.230414e+003,7.161797e-001
1.234271e+003,6.799556e-001
1.238128e+003,6.395380e-001
1.241985e+003,6.022826e-001
1.245842e+003,5.799870e-001
1.249699e+003,5.606487e-001
1.253556e+003,5.385733e-001
1.257413e+003,5.186118e-001
1.261271e+003,4.975842e-001
1.265128e+003,4.723506e-001
1.268985e+003,4.507547e-001
1.272842e+003,4.426963e-001
1.276699e+003,4.353812e-001
1.280556e+003,4.290655e-001
1.284413e+003,4.219769e-001
1.288270e+003,4.064595e-001
1.292127e+003,3.887213e-001
1.295984e+003,3.820137e-001
1.299841e+003,3.836640e-001
1.303698e+003,3.736503e-001
1.307556e+003,3.574438e-001
1.311413e+003,3.537575e-001
1.315270e+003,3.533565e-001
1.319127e+003,3.507556e-001
1.322984e+003,3.475240e-001
1.326841e+003,3.370680e-001
1.330698e+003,3.257147e-001
1.334555e+003,3.216537e-001
1.338412e+003,3.224239e-001
1.342270e+003,3.166538e-001
1.346127e+003,3.095191e-001
1.349984e+003,3.047273e-001
1.353841e+003,3.029256e-001
1.357698e+003,2.971480e-001
1.361555e+003,2.940291e-001
1.365412e+003,2.982449e-001
1.369269e+003,2.988891e-001
1.373126e+003,3.027533e-001
1.376983e+003,3.062982e-001
1.380840e+003,3.111018e-001
1.384698e+003,3.159516e-001
1.388555e+003,3.157385e-001
1.392412e+003,3.193756e-001
1.396269e+003,3.275353e-001
1.400126e+003,3.343337e-001
1.403983e+003,3.393443e-001
1.407840e+003,3.454450e-001
1.411697e+003,3.571024e-001
1.415554e+003,3.639042e-001
1.419411e+003,3.680536e-001
1.423269e+003,3.743727e-001
1.427126e+003,3.688716e-001
1.430983e+003,3.636521e-001
1.434840e+003,3.613055e-001
1.438697e+003,3.629012e-001
1.442554e+003,3.636317e-001
1.446411e+003,3.547699e-001
1.450268e+003,3.492796e-001
1.454125e+003,3.492402e-001
1.457982e+003,3.459199e-001
1.461839e+003,3.384348e-001
1.465697e+003,3.336793e-001
1.469554e+003,3.342262e-001
1.473411e+003,3.355875e-001
1.477268e+003,3.371848e-001
1.481125e+003,3.362267e-001
1.484982e+003,3.464738e-001
1.488839e+003,3.603372e-001
1.492696e+003,3.616336e-001
1.496553e+003,3.641668e-001
1.500411e+003,3.686729e-001
1.504268e+003,3.777930e-001
1.508125e+003,3.807457e-001
1.511982e+003,3.719883e-001
1.515839e+003,3.720409e-001
1.519696e+003,3.762769e-001
1.523553e+003,3.723431e-001
1.527410e+003,3.656044e-001
1.531267e+003,3.633278e-001
1.535124e+003,3.618359e-001
1.538981e+003,3.596168e-001
1.542839e+003,3.532884e-001
1.546696e+003,3.472909e-001
1.550553e+003,3.430455e-001
1.554410e+003,3.378277e-001
1.558267e+003,3.363712e-001
1.562124e+003,3.353344e-001
1.565981e+003,3.298387e-001
1.569838e+003,3.265586e-001
1.573695e+003,3.218269e-001
1.577552e+003,3.182465e-001
1.581410e+003,3.175983e-001
1.585267e+003,3.157888e-001
1.589124e+003,3.193108e-001
1.592981e+003,3.246736e-001
1.596838e+003,3.250597e-001
1.600695e+003,3.320888e-001
1.604552e+003,3.421901e-001
1.608409e+003,3.484767e-001
1.612266e+003,3.589798e-001
1.616123e+003,3.681799e-001
1.619980e+003,3.778505e-001
1.623838e+003,3.955805e-001
1.627695e+003,4.187071e-001
1.631552e+003,4.278708e-001
1.635409e+003,4.242794e-001
1.639266e+003,4.285901e-001
1.643123e+003,4.396884e-001
1.646980e+003,4.411423e-001
1.650837e+003,4.420786e-001
1.654694e+003,4.381522e-001
1.658551e+003,4.272434e-001
1.662409e+003,4.216768e-001
1.666266e+003,4.102747e-001
1.670123e+003,3.980486e-001
1.673980e+003,3.906221e-001
1.677837e+003,3.840097e-001
1.681694e+003,3.779499e-001
1.685551e+003,3.717655e-001
1.689408e+003,3.591900e-001
1.693265e+003,3.523031e-001
1.697122e+003,3.514209e-001
1.700979e+003,3.514604e-001
1.704837e+003,3.448440e-001
1.708694e+003,3.386398e-001
1.712551e+003,3.341375e-001
1.716408e+003,3.320530e-001
1.720265e+003,3.314806e-001
1.724122e+003,3.322788e-001
1.727979e+003,3.306826e-001
1.731836e+003,3.296619e-001
1.735693e+003,3.281439e-001
1.739550e+003,3.257639e-001
1.743408e+003,3.253735e-001
1.747265e+003,3.296476e-001
1.751122e+003,3.350725e-001
1.754979e+003,3.385919e-001
1.758836e+003,3.419146e-001
1.762693e+003,3.474001e-001
1.766550e+003,3.487352e-001
1.770407e+003,3.516125e-001
1.774264e+003,3.529787e-001
1.778121e+003,3.517502e-001
1.781979e+003,3.535641e-001
1.785836e+003,3.524528e-001
1.789693e+003,3.446219e-001
1.793550e+003,3.357756e-001
1.797407e+003,3.318718e-001
1.801264e+003,3.317378e-001
1.805121e+003,3.349867e-001
1.808978e+003,3.353060e-001
1.812835e+003,3.297517e-001
1.816692e+003,3.337745e-001
1.820549e+003,3.400139e-001
1.824407e+003,3.348222e-001
1.828264e+003,3.339989e-001
1.832121e+003,3.347246e-001
1.835978e+003,3.296469e-001
1.839835e+003,3.230524e-001
1.843692e+003,3.207848e-001
1.847549e+003,3.165239e-001
1.851406e+003,3.103477e-001
1.855263e+003,3.114065e-001
1.859120e+003,3.139458e-001
1.862978e+003,3.108033e-001
1.866835e+003,3.031911e-001
1.870692e+003,2.981309e-001
1.874549e+003,2.963724e-001
1.878406e+003,2.969479e-001
1.882263e+003,2.977729e-001
1.886120e+003,3.001237e-001
1.889977e+003,3.073305e-001
1.893834e+003,3.093392e-001
1.897691e+003,3.060513e-001
1.901548e+003,3.083242e-001
1.905406e+003,3.122372e-001
1.909263e+003,3.167038e-001
1.913120e+003,3.194750e-001
1.916977e+003,3.217543e-001
1.920834e+003,3.230174e-001
1.924691e+003,3.258079e-001
1.928548e+003,3.260407e-001
1.932405e+003,3.226648e-001
1.936262e+003,3.206602e-001
1.940119e+003,3.200890e-001
1.943977e+003,3.180548e-001
1.947834e+003,3.188594e-001
1.951691e+003,3.198594e-001
1.955548e+003,3.158240e-001
1.959405e+003,3.141859e-001
1.963262e+003,3.112873e-001
1.967119e+003,3.058448e-001
1.970976e+003,3.023633e-001
1.974833e+003,3.023272e-001
1.978690e+003,2.986881e-001
1.982547e+003,2.902223e-001
1.986405e+003,2.877809e-001
1.990262e+003,2.876943e-001
1.994119e+003,2.853709e-001
1.997976e+003,2.858619e-001
2.001833e+003,2.881393e-001
2.005690e+003,2.892501e-001
2.009547e+003,2.926495e-001
2.013404e+003,2.946452e-001
2.017261e+003,2.920499e-001
2.021118e+003,2.933348e-001
2.024976e+003,2.977641e-001
2.028833e+003,2.997219e-001
2.032690e+003,3.007517e-001
2.036547e+003,3.035730e-001
2.040404e+003,3.068078e-001
2.044261e+003,3.106932e-001
2.048118e+003,3.116905e-001
2.051975e+003,3.113137e-001
2.055832e+003,3.141411e-001
2.059689e+003,3.140433e-001
2.063546e+003,3.158873e-001
2.067404e+003,3.151732e-001
2.071261e+003,3.125104e-001
2.075118e+003,3.108245e-001
2.078975e+003,3.082532e-001
2.082832e+003,3.051317e-001
2.086689e+003,3.002747e-001
2.090546e+003,2.982944e-001
2.094403e+003,2.955811e-001
2.098260e+003,2.908862e-001
2.102117e+003,2.879078e-001
2.105975e+003,2.847565e-001
2.109832e+003,2.832299e-001
2.113689e+003,2.814778e-001
2.117546e+003,2.755455e-001
2.121403e+003,2.712074e-001
2.125260e+003,2.697301e-001
2.129117e+003,2.692549e-001
2.132974e+003,2.706841e-001
2.136831e+003,2.719235e-001
2.140688e+003,2.703799e-001
2.144545e+003,2.715443e-001
2.148403e+003,2.748962e-001
2.152260e+003,2.814927e-001
2.156117e+003,2.851240e-001
2.159974e+003,2.885775e-001
2.163831e+003,2.937772e-001
2.167688e+003,2.996220e-001
2.171545e+003,3.043005e-001
2.175402e+003,3.092045e-001
2.179259e+003,3.168073e-001
2.183116e+003,3.204966e-001
2.186974e+003,3.150319e-001
2.190831e+003,3.146509e-001
2.194688e+003,3.178807e-001
2.198545e+003,3.191180e-001
2.202402e+003,3.159893e-001
2.206259e+003,3.130251e-001
2.210116e+003,3.098570e-001
2.213973e+003,3.084677e-001
2.217830e+003,3.072170e-001
2.221688e+003,3.017066e-001
2.225544e+003,2.959377e-001
2.229402e+003,2.911581e-001
2.233259e+003,2.874537e-001
2.237116e+003,2.851491e-001
2.240973e+003,2.794647e-001
2.244830e+003,2.751625e-001
2.248687e+003,2.750727e-001
2.252544e+003,2.701353e-001
2.256401e+003,2.663277e-001
2.260258e+003,2.695336e-001
2.264115e+003,2.728076e-001
2.267973e+003,2.767235e-001
2.271830e+003,2.780648e-001
2.275687e+003,2.796713e-001
2.279544e+003,2.834421e-001
2.283401e+003,2.875319e-001
2.287258e+003,2.911984e-001
2.291115e+003,2.963959e-001
2.294972e+003,3.044202e-001
2.298829e+003,3.079492e-001
2.302687e+003,3.103995e-001
2.306543e+003,3.151589e-001
2.310401e+003,3.165241e-001
2.314258e+003,3.132564e-001
2.318115e+003,3.098139e-001
2.321972e+003,3.147018e-001
2.325829e+003,3.161096e-001
2.329686e+003,3.119991e-001
2.333543e+003,3.083873e-001
2.337400e+003,3.051565e-001
2.341257e+003,2.952404e-001
2.345115e+003,2.950951e-001
2.348972e+003,2.975050e-001
2.352829e+003,2.904076e-001
2.356686e+003,2.820412e-001
2.360543e+003,2.788198e-001
2.364400e+003,2.784655e-001
2.368257e+003,2.771491e-001
2.372114e+003,2.723322e-001
2.375971e+003,2.646143e-001
2.379828e+003,2.623438e-001
2.383686e+003,2.614965e-001
2.387542e+003,2.628770e-001
2.391400e+003,2.676471e-001
2.395257e+003,2.707407e-001
2.399114e+003,2.712299e-001
2.402971e+003,2.691899e-001
2.406828e+003,2.694769e-001
2.410685e+003,2.734013e-001
2.414542e+003,2.773721e-001
2.418399e+003,2.787440e-001
2.422256e+003,2.820263e-001
2.426114e+003,2.872867e-001
2.429971e+003,2.936710e-001
2.433828e+003,2.952190e-001
2.437685e+003,2.935944e-001
2.441542e+003,2.946166e-001
2.445399e+003,2.969967e-001
2.449256e+003,3.045745e-001
2.453113e+003,3.066272e-001
2.456970e+003,2.998676e-001
2.460827e+003,2.945822e-001
2.464684e+003,2.944520e-001
2.468542e+003,2.927269e-001
2.472399e+003,2.894526e-001
2.476256e+003,2.838290e-001
2.480113e+003,2.814684e-001
2.483970e+003,2.788609e-001
2.487827e+003,2.740432e-001
2.491684e+003,2.711998e-001
2.495541e+003,2.663691e-001
2.499398e+003,2.589056e-001
2.503255e+003,2.524901e-001
2.507113e+003,2.507235e-001
2.510969e+003,2.491565e-001
2.514827e+003,2.479953e-001
2.518684e+003,2.469611e-001
2.522541e+003,2.487035e-001
2.526398e+003,2.492706e-001
2.530255e+003,2.506905e-001
2.534112e+003,2.507518e-001
2.537969e+003,2.534233e-001
2.541826e+003,2.597280e-001
2.545683e+003,2.642871e-001
2.549541e+003,2.679298e-001
2.553398e+003,2.706194e-001
2.557255e+003,2.758354e-001
2.561112e+003,2.800048e-001
2.564969e+003,2.830728e-001
2.568826e+003,2.851135e-001
2.572683e+003,2.864405e-001
2.576540e+003,2.849535e-001
2.580397e+003,2.852305e-001
2.584254e+003,2.843841e-001
2.588112e+003,2.827267e-001
2.591969e+003,2.821965e-001
2.595826e+003,2.844035e-001
2.599683e+003,2.865255e-001
2.603540e+003,2.820459e-001
2.607397e+003,2.754624e-001
2.611254e+003,2.695162e-001
2.615111e+003,2.668685e-001
2.618968e+003,2.678060e-001
2.622825e+003,2.685374e-001
2.626682e+003,2.654966e-001
2.630540e+003,2.593376e-001
2.634397e+003,2.564204e-001
2.638254e+003,2.564436e-001
2.642111e+003,2.555478e-001
2.645968e+003,2.556667e-001
2.649825e+003,2.572309e-001
2.653682e+003,2.569370e-001
2.657539e+003,2.585399e-001
2.661396e+003,2.607462e-001
2.665253e+003,2.617167e-001
2.669111e+003,2.649192e-001
2.672968e+003,2.672727e-001
2.676825e+003,2.688278e-001
2.680682e+003,2.729051e-001
2.684539e+003,2.781903e-001
2.688396e+003,2.836795e-001
2.692253e+003,2.874607e-001
2.696110e+003,2.899989e-001
2.699967e+003,2.944850e-001
2.703824e+003,2.940980e-001
2.707681e+003,2.947943e-001
2.711539e+003,2.980219e-001
2.715396e+003,3.011149e-001
2.719253e+003,3.033899e-001
2.723110e+003,3.034369e-001
2.726967e+003,3.019443e-001
2.730824e+003,3.011435e-001
2.734681e+003,2.968202e-001
2.738538e+003,2.976516e-001
2.742395e+003,2.968749e-001
2.746252e+003,2.923276e-001
2.750110e+003,2.910093e-001
2.753967e+003,2.921934e-001
2.757824e+003,2.905517e-001
2.761681e+003,2.875219e-001
2.765538e+003,2.852072e-001
2.769395e+003,2.847718e-001
2.773252e+003,2.861464e-001
2.777109e+003,2.851036e-001
2.780966e+003,2.834739e-001
2.784823e+003,2.849413e-001
2.788680e+003,2.896169e-001
2.792538e+003,2.918774e-001
2.796395e+003,2.916385e-001
2.800252e+003,2.954023e-001
2.804109e+003,2.980025e-001
2.807966e+003,3.035065e-001
2.811823e+003,3.089093e-001
2.815680e+003,3.092061e-001
2.819537e+003,3.147375e-001
2.823394e+003,3.195600e-001
2.827251e+003,3.233728e-001
2.831109e+003,3.284030e-001
2.834966e+003,3.310785e-001
2.838823e+003,3.314610e-001
2.842680e+003,3.333315e-001
2.846537e+003,3.381030e-001
2.850394e+003,3.412927e-001
2.854251e+003,3.434501e-001
2.858108e+003,3.427582e-001
2.861965e+003,3.435154e-001
2.865823e+003,3.410958e-001
2.869679e+003,3.375625e-001
2.873537e+003,3.390092e-001
2.877394e+003,3.412455e-001
2.881251e+003,3.409130e-001
2.885108e+003,3.409220e-001
2.888965e+003,3.435681e-001
2.892822e+003,3.468912e-001
2.896679e+003,3.523800e-001
2.900536e+003,3.542515e-001
2.904393e+003,3.520663e-001
2.908250e+003,3.514488e-001
2.912108e+003,3.530065e-001
2.915965e+003,3.536201e-001
2.919822e+003,3.553427e-001
2.923679e+003,3.557572e-001
2.927536e+003,3.559017e-001
2.931393e+003,3.550302e-001
2.935250e+003,3.558524e-001
2.939107e+003,3.631602e-001
2.942964e+003,3.703330e-001
2.946822e+003,3.731252e-001
2.950678e+003,3.772886e-001
2.954536e+003,3.784717e-001
2.958393e+003,3.763584e-001
2.962250e+003,3.776399e-001
2.966107e+003,3.801102e-001
2.969964e+003,3.872475e-001
2.973821e+003,3.942035e-001
2.977678e+003,3.973384e-001
2.981535e+003,4.014948e-001
2.985392e+003,4.057665e-001
2.989250e+003,4.040690e-001
2.993107e+003,4.020751e-001
2.996964e+003,4.050379e-001
3.000821e+003,4.145257e-001
3.004678e+003,4.189466e-001
3.008535e+003,4.154184e-001
3.012392e+003,4.118967e-001
3.016249e+003,4.118446e-001
3.020106e+003,4.122300e-001
3.023963e+003,4.091145e-001
3.027821e+003,4.110363e-001
3.031677e+003,4.165202e-001
3.035535e+003,4.200346e-001
3.039392e+003,4.183602e-001
3.043249e+003,4.194626e-001
3.047106e+003,4.237036e-001
3.050963e+003,4.263290e-001
3.054820e+003,4.303381e-001
3.058677e+003,4.318690e-001
3.062534e+003,4.354799e-001
3.066391e+003,4.411176e-001
3.070249e+003,4.410815e-001
3.074106e+003,4.410944e-001
3.077963e+003,4.458283e-001
3.081820e+003,4.511359e-001
3.085677e+003,4.536250e-001
3.089534e+003,4.553769e-001
3.093391e+003,4.586622e-001
3.097248e+003,4.640288e-001
3.101105e+003,4.664400e-001
3.104962e+003,4.629314e-001
3.108820e+003,4.647334e-001
3.112677e+003,4.728362e-001
3.116534e+003,4.735629e-001
3.120391e+003,4.804608e-001
3.124248e+003,4.889757e-001
3.128105e+003,4.900063e-001
3.131962e+003,4.920310e-001
3.135819e+003,5.012723e-001
3.139676e+003,5.000566e-001
3.143533e+003,4.952527e-001
3.147390e+003,5.007696e-001
3.151248e+003,5.055656e-001
3.155105e+003,5.078191e-001
3.158962e+003,5.058058e-001
3.162819e+003,5.072725e-001
3.166676e+003,5.156405e-001
3.170533e+003,5.101776e-001
3.174390e+003,5.027264e-001
3.178247e+003,5.047461e-001
3.182104e+003,5.030571e-001
3.185961e+003,5.065284e-001
3.189819e+003,5.116744e-001
3.193676e+003,5.102728e-001
3.197533e+003,5.131792e-001
3.201390e+003,5.198106e-001
3.205247e+003,5.213103e-001
3.209104e+003,5.266055e-001
3.212961e+003,5.269168e-001
3.216818e+003,5.303553e-001
3.220675e+003,5.353011e-001
3.224532e+003,5.358062e-001
3.228389e+003,5.408839e-001
3.232247e+003,5.464049e-001
3.236104e+003,5.504785e-001
3.239961e+003,5.505944e-001
3.243818e+003,5.514276e-001
3.247675e+003,5.546906e-001
3.251532e+003,5.594022e-001
3.255389e+003,5.583741e-001
3.259246e+003,5.570624e-001
3.263103e+003,5.572573e-001
3.266960e+003,5.593159e-001
3.270818e+003,5.684813e-001
3.274675e+003,5.728946e-001
3.278532e+003,5.674180e-001
3.282389e+003,5.655352e-001
3.286246e+003,5.693200e-001
3.290103e+003,5.771399e-001
3.293960e+003,5.795531e-001
3.297817e+003,5.769683e-001
3.301674e+003,5.771666e-001
3.305531e+003,5.809607e-001
3.309388e+003,5.875431e-001
3.313246e+003,5.859467e-001
3.317103e+003,5.853955e-001
3.320960e+003,5.853401e-001
3.324817e+003,5.841145e-001
3.328674e+003,5.877826e-001
3.332531e+003,5.864028e-001
3.336388e+003,5.816706e-001
3.340245e+003,5.805117e-001
3.344102e+003,5.842968e-001
3.347959e+003,5.922056e-001
3.351817e+003,6.002375e-001
3.355674e+003,5.982904e-001
3.359531e+003,6.010481e-001
3.363388e+003,6.082945e-001
3.367245e+003,6.150805e-001
3.371102e+003,6.129031e-001
3.374959e+003,6.117468e-001
3.378816e+003,6.122305e-001
3.382673e+003,6.128144e-001
3.386530e+003,6.113577e-001
3.390387e+003,6.148411e-001
3.394245e+003,6.187050e-001
3.398102e+003,6.217196e-001
3.401959e+003,6.273691e-001
3.405816e+003,6.323549e-001
3.409673e+003,6.346563e-001
3.413530e+003,6.332038e-001
3.417387e+003,6.323421e-001
3.421244e+003,6.348764e-001
3.425101e+003,6.402408e-001
3.428958e+003,6.378875e-001
3.432815e+003,6.376387e-001
3.436673e+003,6.443223e-001
3.440530e+003,6.358159e-001
3.444387e+003,6.314078e-001
3.448244e+003,6.343243e-001
3.452101e+003,6.361191e-001
3.455958e+003,6.419775e-001
3.459815e+003,6.423318e-001
3.463672e+003,6.382416e-001
3.467529e+003,6.350960e-001
3.471386e+003,6.305676e-001
3.475244e+003,6.289071e-001
3.479101e+003,6.401520e-001
3.482958e+003,6.428045e-001
3.486815e+003,6.373170e-001
3.490672e+003,6.458883e-001
3.494529e+003,6.540836e-001
3.498386e+003,6.473277e-001
3.502243e+003,6.367697e-001
3.506100e+003,6.380222e-001
3.509958e+003,6.403198e-001
3.513814e+003,6.470636e-001
3.517672e+003,6.516933e-001
3.521529e+003,6.587032e-001
3.525386e+003,6.607287e-001
3.529243e+003,6.525165e-001
3.533100e+003,6.539735e-001
3.536957e+003,6.518485e-001
3.540814e+003,6.473401e-001
3.544671e+003,6.468760e-001
3.548528e+003,6.477048e-001
3.552385e+003,6.447105e-001
3.556243e+003,6.455903e-001
3.560100e+003,6.395032e-001
3.563957e+003,6.402831e-001
3.567814e+003,6.437964e-001
3.571671e+003,6.390794e-001
3.575528e+003,6.391749e-001
3.579385e+003,6.355255e-001
3.583242e+003,6.259372e-001
3.587099e+003,6.247897e-001
3.590957e+003,6.228121e-001
3.594813e+003,6.055333e-001
3.598671e+003,5.921512e-001
3.602528e+003,5.881213e-001
3.606385e+003,5.802188e-001
3.610242e+003,5.688508e-001
3.614099e+003,5.552796e-001
3.617956e+003,5.348673e-001
3.621813e+003,5.179659e-001
3.625670e+003,5.010845e-001
3.629527e+003,4.835695e-001
3.633385e+003,4.725526e-001
3.637242e+003,4.566547e-001
3.641099e+003,4.378030e-001
3.644956e+003,4.230794e-001
3.648813e+003,4.046747e-001
3.652670e+003,3.802768e-001
3.656527e+003,3.609603e-001
3.660384e+003,3.538355e-001
3.664241e+003,3.430572e-001
3.668098e+003,3.219211e-001
3.671956e+003,3.082687e-001
3.675813e+003,2.990468e-001
3.679670e+003,2.861742e-001
3.683527e+003,2.748475e-001
3.687384e+003,2.702548e-001
3.691241e+003,2.657137e-001
3.695098e+003,2.594591e-001
3.698955e+003,2.573173e-001
3.702812e+003,2.498174e-001
3.706669e+003,2.383490e-001
3.710526e+003,2.314966e-001
3.714384e+003,2.278335e-001
3.718241e+003,2.294371e-001
3.722098e+003,2.267810e-001
3.725955e+003,2.256544e-001
3.729812e+003,2.237758e-001
3.733669e+003,2.193820e-001
3.737526e+003,2.168645e-001
3.741383e+003,2.179347e-001
3.745240e+003,2.219445e-001
3.749097e+003,2.243046e-001
3.752955e+003,2.229204e-001
3.756812e+003,2.179633e-001
3.760669e+003,2.181102e-001
3.764526e+003,2.188454e-001
3.768383e+003,2.185900e-001
3.772240e+003,2.151815e-001
3.776097e+003,2.074413e-001
3.779954e+003,2.061916e-001
3.783811e+003,2.080606e-001
3.787668e+003,2.066656e-001
3.791525e+003,2.080689e-001
3.795383e+003,2.075682e-001
3.799240e+003,2.115098e-001
3.803097e+003,2.114708e-001
3.806954e+003,2.019863e-001
3.810811e+003,2.014920e-001
3.814668e+003,2.044877e-001
3.818525e+003,2.015675e-001
3.822382e+003,1.956882e-001
3.826239e+003,1.940265e-001
3.830096e+003,1.940200e-001
3.833954e+003,1.953876e-001
3.837811e+003,1.992203e-001
3.841668e+003,1.961448e-001
3.845525e+003,1.957189e-001
3.849382e+003,1.987375e-001
3.853239e+003,1.957092e-001
3.857096e+003,1.952508e-001
3.860953e+003,1.925235e-001
3.864810e+003,1.935097e-001
3.868667e+003,1.945116e-001
3.872524e+003,1.914583e-001
3.876382e+003,1.920178e-001
3.880239e+003,1.938223e-001
3.884096e+003,1.921466e-001
3.887953e+003,1.867409e-001
3.891810e+003,1.913050e-001
3.895667e+003,1.971541e-001
3.899524e+003,1.907789e-001
3.903381e+003,1.843211e-001
3.907238e+003,1.844671e-001
3.911095e+003,1.871564e-001
3.914953e+003,1.861915e-001
3.918810e+003,1.824283e-001
3.922667e+003,1.802854e-001
3.926524e+003,1.791884e-001
3.930381e+003,1.832651e-001
3.934238e+003,1.848394e-001
3.938095e+003,1.845019e-001
3.941952e+003,1.800283e-001
3.945809e+003,1.773202e-001
3.949667e+003,1.800887e-001
3.953523e+003,1.823075e-001
3.957381e+003,1.813364e-001
3.961238e+003,1.806556e-001
3.965095e+003,1.803916e-001
3.968952e+003,1.802845e-001
3.972809e+003,1.782433e-001
3.976666e+003,1.777728e-001
3.980523e+003,1.776358e-001
3.984380e+003,1.763176e-001
3.988237e+003,1.762915e-001
3.992094e+003,1.779329e-001
3.995952e+003,1.812661e-001
3.999809e+003,1.792314e-001
4.003666e+003,1.754894e-001
4.007523e+003,1.749346e-001
4.011380e+003,1.736062e-001
4.015237e+003,1.724114e-001
4.019094e+003,1.692597e-001
4.022951e+003,1.684569e-001
4.026808e+003,1.719868e-001
4.030666e+003,1.706728e-001
4.034522e+003,1.667589e-001
4.038380e+003,1.676495e-001
4.042237e+003,1.675459e-001
4.046094e+003,1.632912e-001
4.049951e+003,1.643097e-001
4.053808e+003,1.649810e-001
4.057665e+003,1.629612e-001
4.061522e+003,1.640707e-001
4.065379e+003,1.634263e-001
4.069236e+003,1.589953e-001
4.073094e+003,1.632032e-001
4.076951e+003,1.703438e-001
4.080808e+003,1.710141e-001
4.084665e+003,1.691850e-001
4.088522e+003,1.714142e-001
4.092379e+003,1.720819e-001
4.096236e+003,1.712901e-001
4.100093e+003,1.716435e-001
4.103950e+003,1.659443e-001
4.107808e+003,1.605163e-001
4.111665e+003,1.636375e-001
4.115521e+003,1.687804e-001
4.119379e+003,1.698941e-001
4.123236e+003,1.700770e-001
4.127093e+003,1.687676e-001
4.130950e+003,1.631222e-001
4.134807e+003,1.608035e-001
4.138664e+003,1.593444e-001
4.142521e+003,1.608204e-001
4.146378e+003,1.593975e-001
4.150235e+003,1.567284e-001
4.154093e+003,1.552110e-001
4.157950e+003,1.540979e-001
4.161807e+003,1.560044e-001
4.165664e+003,1.536992e-001
4.169521e+003,1.505131e-001
4.173378e+003,1.529562e-001
4.177235e+003,1.501573e-001
4.181092e+003,1.476968e-001
4.184949e+003,1.509929e-001
4.188807e+003,1.542170e-001
4.192664e+003,1.563196e-001
4.196521e+003,1.566480e-001
4.200378e+003,1.568778e-001
4.204235e+003,1.574302e-001
4.208092e+003,1.593123e-001
4.211949e+003,1.593205e-001
4.215806e+003,1.573640e-001
4.219663e+003,1.562873e-001
4.223521e+003,1.579402e-001
4.227377e+003,1.610317e-001
4.231234e+003,1.658234e-001
4.235092e+003,1.637607e-001
4.238949e+003,1.603837e-001
4.242806e+003,1.620515e-001
4.246663e+003,1.640207e-001
4.250520e+003,1.643974e-001
4.254377e+003,1.588316e-001
4.258234e+003,1.601897e-001
4.262091e+003,1.581608e-001
4.265948e+003,1.561377e-001
4.269806e+003,1.584885e-001
4.273663e+003,1.601903e-001
4.277520e+003,1.554628e-001
4.281377e+003,1.487971e-001
4.285234e+003,1.468691e-001
4.289091e+003,1.466761e-001
4.292948e+003,1.434267e-001
4.296805e+003,1.490508e-001
4.300662e+003,1.485285e-001
4.304520e+003,1.471803e-001
4.308376e+003,1.519282e-001
4.312233e+003,1.549581e-001
4.316091e+003,1.559611e-001
4.319948e+003,1.514383e-001
4.323805e+003,1.517701e-001
4.327662e+003,1.571463e-001
4.331519e+003,1.595201e-001
4.335376e+003,1.608388e-001
4.339233e+003,1.619856e-001
4.343090e+003,1.681505e-001
4.346947e+003,1.705797e-001
4.350805e+003,1.659972e-001
4.354662e+003,1.675619e-001
4.358519e+003,1.723905e-001
4.362376e+003,1.706027e-001
4.366233e+003,1.668069e-001
4.370090e+003,1.750026e-001
4.373947e+003,1.807032e-001
4.377804e+003,1.749429e-001
4.381661e+003,1.719317e-001
4.385519e+003,1.706070e-001
4.389375e+003,1.680925e-001
4.393232e+003,1.692445e-001
4.397090e+003,1.678281e-001
4.400947e+003,1.648784e-001
4.404804e+003,1.593942e-001
4.408661e+003,1.540098e-001
4.412518e+003,1.571764e-001
4.416375e+003,1.639488e-001
4.420232e+003,1.606552e-001
4.424089e+003,1.567765e-001
4.427946e+003,1.544356e-001
4.431804e+003,1.555393e-001
4.435661e+003,1.620200e-001
4.439518e+003,1.586702e-001
4.443375e+003,1.560969e-001
4.447232e+003,1.548137e-001
4.451089e+003,1.489415e-001
4.454946e+003,1.498736e-001
4.458803e+003,1.601290e-001
4.462660e+003,1.700009e-001
4.466518e+003,1.718673e-001
4.470375e+003,1.724340e-001
4.474231e+003,1.704192e-001
4.478089e+003,1.685729e-001
4.481946e+003,1.729413e-001
4.485803e+003,1.748134e-001
4.489660e+003,1.769046e-001
4.493517e+003,1.838693e-001
4.497375e+003,1.868774e-001
4.501231e+003,1.865195e-001
4.505088e+003,1.862026e-001
4.508946e+003,1.834325e-001
4.512803e+003,1.737251e-001
4.516660e+003,1.726477e-001
4.520517e+003,1.801063e-001
4.524374e+003,1.801351e-001
4.528231e+003,1.749019e-001
4.532088e+003,1.803249e-001
4.535945e+003,1.800414e-001
4.539802e+003,1.729131e-001
4.543660e+003,1.658168e-001
4.547517e+003,1.611534e-001
4.551374e+003,1.610375e-001
4.555231e+003,1.630014e-001
4.559088e+003,1.624346e-001
4.562945e+003,1.668437e-001
4.566802e+003,1.723498e-001
4.570659e+003,1.718907e-001
4.574516e+003,1.671992e-001
4.578374e+003,1.704084e-001
4.582230e+003,1.694218e-001
4.586087e+003,1.651461e-001
4.589945e+003,1.709897e-001
4.593802e+003,1.726622e-001
4.597659e+003,1.688237e-001
4.601516e+003,1.732309e-001
4.605373e+003,1.750227e-001
4.609230e+003,1.738456e-001
4.613087e+003,1.726195e-001
4.616944e+003,1.752858e-001
4.620801e+003,1.793730e-001
4.624659e+003,1.890209e-001
4.628516e+003,1.916602e-001
4.632373e+003,1.846639e-001
4.636230e+003,1.880980e-001
4.640087e+003,1.895182e-001
4.643944e+003,1.888591e-001
4.647801e+003,1.865872e-001
4.651658e+003,1.882340e-001
4.655515e+003,1.928613e-001
4.659373e+003,1.926776e-001
4.663229e+003,1.881555e-001
4.667086e+003,1.751581e-001
4.670944e+003,1.747739e-001
4.674801e+003,1.801123e-001
4.678658e+003,1.824319e-001
4.682515e+003,1.799248e-001
4.686372e+003,1.787910e-001
4.690229e+003,1.749337e-001
4.694086e+003,1.651622e-001
4.697943e+003,1.638892e-001
4.701800e+003,1.698812e-001
4.705658e+003,1.749310e-001
4.709515e+003,1.733087e-001
4.713372e+003,1.770807e-001
4.717229e+003,1.742863e-001
4.721086e+003,1.714524e-001
4.724943e+003,1.821937e-001
4.728800e+003,1.905054e-001
4.732657e+003,1.843392e-001
4.736514e+003,1.856350e-001
4.740372e+003,1.889109e-001
4.744229e+003,1.954204e-001
4.748085e+003,1.927926e-001
4.751943e+003,1.851425e-001
4.755800e+003,1.906579e-001
4.759657e+003,1.879339e-001
4.763514e+003,1.843429e-001
4.767371e+003,1.902282e-001
4.771228e+003,1.962520e-001
4.775085e+003,1.988594e-001
4.778942e+003,1.973193e-001
4.782799e+003,1.875853e-001
4.786657e+003,1.915494e-001
4.790514e+003,1.997180e-001
4.794371e+003,1.962547e-001
4.798228e+003,1.920795e-001
4.802085e+003,1.852012e-001
4.805942e+003,1.783372e-001
4.809799e+003,1.869228e-001
4.813656e+003,1.858628e-001
4.817513e+003,1.797959e-001
4.821371e+003,1.806626e-001
4.825228e+003,1.792894e-001
4.829084e+003,1.807051e-001
4.832942e+003,1.808785e-001
4.836799e+003,1.796256e-001
4.840656e+003,1.841773e-001
4.844513e+003,1.867508e-001
4.848370e+003,1.854646e-001
4.852227e+003,1.895399e-001
4.856084e+003,1.843936e-001
4.859941e+003,1.770811e-001
4.863798e+003,1.856325e-001
4.867656e+003,1.905066e-001
4.871513e+003,1.805699e-001
4.875370e+003,1.797087e-001
4.879227e+003,1.843036e-001
4.883084e+003,1.821897e-001
4.886941e+003,1.877466e-001
4.890798e+003,1.919789e-001
4.894655e+003,1.985822e-001
4.898512e+003,2.041281e-001
4.902370e+003,2.111934e-001
4.906227e+003,2.080172e-001
4.910083e+003,1.970520e-001
4.913941e+003,1.844694e-001
4.917798e+003,1.840744e-001
4.921655e+003,1.950267e-001
4.925512e+003,1.975533e-001
4.929369e+003,1.965308e-001
4.933226e+003,1.920233e-001
4.937083e+003,1.810532e-001
4.940940e+003,1.783082e-001
4.944797e+003,1.797095e-001
4.948655e+003,1.763307e-001
4.952512e+003,1.833297e-001
4.956369e+003,1.785650e-001
4.960226e+003,1.753668e-001
4.964083e+003,1.798401e-001
4.967940e+003,1.848990e-001
4.971797e+003,1.885556e-001
4.975654e+003,1.842968e-001
4.979511e+003,1.804111e-001
4.983369e+003,1.840606e-001
4.987226e+003,1.844770e-001
4.991083e+003,1.771234e-001
4.994940e+003,1.756922e-001
4.998797e+003,1.817078e-001
5.002654e+003,1.891216e-001
5.006511e+003,1.912754e-001
5.010368e+003,1.860465e-001
5.014225e+003,1.837762e-001
5.018083e+003,1.861986e-001
5.021939e+003,1.939650e-001
5.025796e+003,1.938061e-001
5.029654e+003,1.890086e-001
5.033511e+003,1.906265e-001
5.037368e+003,1.866683e-001
5.041225e+003,1.884364e-001
5.045082e+003,1.916876e-001
5.048939e+003,1.909208e-001
5.052796e+003,1.812573e-001
5.056653e+003,1.791596e-001
5.060510e+003,1.867123e-001
5.064368e+003,1.902224e-001
5.068225e+003,1.934189e-001
5.072082e+003,1.952181e-001
5.075939e+003,1.913257e-001
5.079796e+003,1.830458e-001
5.083653e+003,1.783718e-001
5.087510e+003,1.750971e-001
5.091367e+003,1.709195e-001
5.095224e+003,1.760508e-001
5.099082e+003,1.753965e-001
5.102938e+003,1.749414e-001
5.106795e+003,1.816935e-001
5.110653e+003,1.813549e-001
5.114510e+003,1.761363e-001
5.118367e+003,1.722031e-001
5.122224e+003,1.799670e-001
5.126081e+003,1.854124e-001
5.129938e+003,1.783375e-001
5.133795e+003,1.710341e-001
5.137652e+003,1.723014e-001
5.141509e+003,1.819815e-001
5.145367e+003,1.871838e-001
5.149224e+003,1.832797e-001
5.153081e+003,1.792399e-001
5.156938e+003,1.767384e-001
5.160795e+003,1.784721e-001
5.164652e+003,1.848572e-001
5.168509e+003,1.851928e-001
5.172366e+003,1.735977e-001
5.176223e+003,1.742631e-001
5.180081e+003,1.766253e-001
5.183938e+003,1.723192e-001
5.187794e+003,1.854599e-001
5.191652e+003,1.915446e-001
5.195509e+003,1.871957e-001
5.199366e+003,1.849842e-001
5.203223e+003,1.856692e-001
5.207080e+003,1.927262e-001
5.210937e+003,1.895661e-001
5.214794e+003,1.825580e-001
5.218651e+003,1.690984e-001
5.222508e+003,1.637503e-001
5.226366e+003,1.734326e-001
5.230223e+003,1.763317e-001
5.234080e+003,1.637263e-001
5.237937e+003,1.552363e-001
5.241794e+003,1.575453e-001
5.245651e+003,1.536765e-001
5.249508e+003,1.523330e-001
5.253365e+003,1.551484e-001
5.257222e+003,1.544538e-001
5.261080e+003,1.603863e-001
5.264937e+003,1.653738e-001
5.268793e+003,1.596051e-001
5.272651e+003,1.572343e-001
5.276508e+003,1.631514e-001
5.280365e+003,1.619717e-001
5.284222e+003,1.650217e-001
5.288079e+003,1.672982e-001
5.291936e+003,1.667652e-001
5.295793e+003,1.745106e-001
5.299650e+003,1.759657e-001
5.303507e+003,1.686814e-001
5.307365e+003,1.580502e-001
5.311222e+003,1.623153e-001
5.315079e+003,1.759712e-001
5.318936e+003,1.746654e-001
5.322793e+003,1.683270e-001
5.326650e+003,1.660033e-001
5.330507e+003,1.584443e-001
5.334364e+003,1.589515e-001
5.338221e+003,1.629370e-001
5.342079e+003,1.640505e-001
5.345936e+003,1.634495e-001
5.349792e+003,1.616023e-001
5.353650e+003,1.500913e-001
5.357507e+003,1.424435e-001
5.361364e+003,1.530242e-001
5.365221e+003,1.613804e-001
5.369078e+003,1.672149e-001
5.372935e+003,1.643784e-001
5.376792e+003,1.594918e-001
5.380649e+003,1.630879e-001
5.384506e+003,1.581688e-001
5.388364e+003,1.534146e-001
5.392221e+003,1.585137e-001
5.396078e+003,1.662934e-001
5.399935e+003,1.624868e-001
5.403792e+003,1.623486e-001
5.407649e+003,1.605111e-001
5.411506e+003,1.491893e-001
5.415363e+003,1.479662e-001
5.419220e+003,1.496319e-001
5.423078e+003,1.600398e-001
5.426935e+003,1.737870e-001
5.430792e+003,1.695253e-001
5.434649e+003,1.608475e-001
5.438506e+003,1.606888e-001
5.442363e+003,1.662693e-001
5.446220e+003,1.618266e-001
5.450077e+003,1.565759e-001
5.453934e+003,1.582700e-001
5.457792e+003,1.540631e-001
5.461648e+003,1.562383e-001
5.465505e+003,1.552031e-001
5.469363e+003,1.533543e-001
5.473220e+003,1.525016e-001
5.477077e+003,1.501976e-001
5.480934e+003,1.501111e-001
5.484791e+003,1.564040e-001
5.488648e+003,1.548020e-001
5.492505e+003,1.564321e-001
5.496362e+003,1.574201e-001
5.500219e+003,1.618610e-001
5.504077e+003,1.649151e-001
5.507934e+003,1.695477e-001
5.511791e+003,1.664684e-001
5.515648e+003,1.644986e-001
5.519505e+003,1.629224e-001
5.523362e+003,1.638134e-001
5.527219e+003,1.656922e-001
5.531076e+003,1.613855e-001
5.534933e+003,1.642514e-001
5.538791e+003,1.700632e-001
5.542647e+003,1.610684e-001
5.546504e+003,1.545622e-001
5.550362e+003,1.562194e-001
5.554219e+003,1.597478e-001
5.558076e+003,1.571737e-001
5.561933e+003,1.526575e-001
5.565790e+003,1.456324e-001
5.569647e+003,1.502876e-001
5.573504e+003,1.566667e-001
5.577361e+003,1.536828e-001
5.581218e+003,1.523296e-001
5.585076e+003,1.495965e-001
5.588933e+003,1.537066e-001
5.592790e+003,1.607223e-001
5.596647e+003,1.726572e-001
5.600504e+003,1.800710e-001
5.604361e+003,1.743510e-001
5.608218e+003,1.545518e-001
5.612075e+003,1.531952e-001
5.615932e+003,1.574156e-001
5.619790e+003,1.576041e-001
5.623646e+003,1.610279e-001
5.627503e+003,1.589370e-001
5.631361e+003,1.601335e-001
5.635218e+003,1.604242e-001
5.639075e+003,1.596873e-001
5.642932e+003,1.648179e-001
5.646789e+003,1.614813e-001
5.650646e+003,1.620280e-001
5.654503e+003,1.655146e-001
5.658360e+003,1.648748e-001
5.662217e+003,1.660562e-001
5.666075e+003,1.748489e-001
5.669932e+003,1.774822e-001
5.673789e+003,1.546302e-001
5.677646e+003,1.457558e-001
5.681503e+003,1.594833e-001
5.685360e+003,1.584021e-001
5.689217e+003,1.554994e-001
5.693074e+003,1.605950e-001
5.696931e+003,1.639296e-001
5.700789e+003,1.547447e-001
5.704646e+003,1.488555e-001
5.708502e+003,1.447796e-001
5.712360e+003,1.470155e-001
5.716217e+003,1.485197e-001
5.720074e+003,1.476841e-001
5.723931e+003,1.582025e-001
5.727788e+003,1.653372e-001
5.731645e+003,1.665228e-001
5.735502e+003,1.608273e-001
5.739359e+003,1.533810e-001
5.743216e+003,1.593902e-001
5.747074e+003,1.656555e-001
5.750931e+003,1.709687e-001
5.754788e+003,1.642618e-001
5.758645e+003,1.591306e-001
5.762502e+003,1.721084e-001
5.766359e+003,1.760719e-001
5.770216e+003,1.758805e-001
5.774073e+003,1.834075e-001
5.777930e+003,1.771199e-001
5.781788e+003,1.684704e-001
5.785645e+003,1.607876e-001
5.789501e+003,1.620258e-001
5.793359e+003,1.710676e-001
5.797216e+003,1.760083e-001
5.801073e+003,1.750812e-001
5.804930e+003,1.786013e-001
5.808787e+003,1.844441e-001
5.812644e+003,1.760691e-001
5.816501e+003,1.711901e-001
5.820358e+003,1.744233e-001
5.824215e+003,1.825393e-001
5.828073e+003,1.823079e-001
5.831930e+003,1.683940e-001
5.835787e+003,1.600262e-001
5.839644e+003,1.554294e-001
5.843501e+003,1.598582e-001
5.847358e+003,1.713940e-001
5.851215e+003,1.750940e-001
5.855072e+003,1.754778e-001
5.858929e+003,1.747056e-001
5.862787e+003,1.707861e-001
5.866644e+003,1.728140e-001
5.870500e+003,1.839879e-001
5.874358e+003,1.847477e-001
5.878215e+003,1.841448e-001
5.882072e+003,1.783110e-001
5.885929e+003,1.684346e-001
5.889786e+003,1.744942e-001
5.893643e+003,1.815167e-001
5.897500e+003,1.786310e-001
5.901357e+003,1.720712e-001
5.905214e+003,1.732065e-001
5.909072e+003,1.869931e-001
5.912929e+003,1.989160e-001
5.916786e+003,2.109166e-001
5.920643e+003,2.106169e-001
5.924500e+003,1.910284e-001
5.928357e+003,1.718280e-001
5.932214e+003,1.751751e-001
5.936071e+003,1.915631e-001
5.939928e+003,1.919145e-001
5.943786e+003,1.765540e-001
5.947643e+003,1.796852e-001
5.951500e+003,1.894767e-001
5.955357e+003,1.903551e-001
5.959214e+003,1.820803e-001
5.963071e+003,1.891772e-001
5.966928e+003,1.916637e-001
5.970785e+003,1.894616e-001
5.974642e+003,1.844498e-001
5.978500e+003,1.753645e-001
5.982356e+003,1.851007e-001
5.986213e+003,1.884314e-001
5.990071e+003,1.835658e-001
5.993928e+003,1.829180e-001
5.997785e+003,1.796933e-001
6.001642e+003,1.781253e-001
6.005499e+003,1.877724e-001
6.009356e+003,1.949410e-001
6.013213e+003,1.839633e-001
6.017070e+003,1.824697e-001
6.020927e+003,1.901140e-001
6.024785e+003,1.967950e-001
6.028642e+003,1.995606e-001
6.032499e+003,1.797343e-001
6.036356e+003,1.693278e-001
6.040213e+003,1.929500e-001
6.044070e+003,2.094808e-001
6.047927e+003,2.099641e-001
6.051784e+003,2.078488e-001
6.055641e+003,2.125087e-001
6.059499e+003,2.108644e-001
6.063355e+003,1.969920e-001
6.067212e+003,1.971887e-001
6.071070e+003,2.011046e-001
6.074927e+003,1.973910e-001
6.078784e+003,2.032153e-001
6.082641e+003,2.102036e-001
6.086498e+003,2.003282e-001
6.090355e+003,1.867525e-001
6.094212e+003,1.939771e-001
6.098069e+003,1.914386e-001
6.101926e+003,1.746647e-001
6.105784e+003,1.848682e-001
6.109641e+003,1.998116e-001
6.113498e+003,1.807845e-001
6.117355e+003,1.814752e-001
6.121212e+003,1.898048e-001
6.125069e+003,1.694415e-001
6.128926e+003,1.716642e-001
6.132783e+003,1.644430e-001
6.136640e+003,1.685821e-001
6.140498e+003,1.800867e-001
6.144354e+003,1.791369e-001
6.148211e+003,1.822407e-001
6.152069e+003,1.841345e-001
6.155926e+003,1.958042e-001
6.159783e+003,1.947052e-001
6.163640e+003,1.826439e-001
6.167497e+003,1.845469e-001
6.171354e+003,2.009054e-001
6.175211e+003,1.988149e-001
6.179068e+003,1.974857e-001
6.182925e+003,1.998797e-001
6.186783e+003,1.975435e-001
6.190640e+003,1.896173e-001
6.194497e+003,1.850054e-001
6.198354e+003,1.892733e-001
6.202211e+003,1.895069e-001
6.206068e+003,1.854029e-001
6.209925e+003,1.810577e-001
6.213782e+003,1.780360e-001
6.217639e+003,1.898652e-001
6.221497e+003,1.972466e-001
6.225354e+003,1.898506e-001
6.229210e+003,1.770988e-001
6.233068e+003,1.840853e-001
6.236925e+003,1.835828e-001
6.240782e+003,1.721962e-001
6.244639e+003,1.801485e-001
6.248496e+003,1.820298e-001
6.252353e+003,1.889277e-001
6.256210e+003,1.973384e-001
6.260067e+003,1.838364e-001
6.263924e+003,1.787983e-001
6.267782e+003,1.884547e-001
6.271639e+003,1.982495e-001
6.275496e+003,1.977333e-001
6.279353e+003,1.926703e-001
6.283210e+003,1.948305e-001
6.287067e+003,1.980693e-001
6.290924e+003,2.059280e-001
6.294781e+003,2.197010e-001
6.298638e+003,2.111092e-001
6.302496e+003,1.903897e-001
6.306353e+003,1.837372e-001
6.310209e+003,1.949204e-001
6.314067e+003,2.071409e-001
6.317924e+003,2.177083e-001
6.321781e+003,2.064154e-001
6.325638e+003,1.918796e-001
6.329495e+003,2.121841e-001
6.333352e+003,2.158829e-001
6.337209e+003,2.079882e-001
6.341066e+003,2.144981e-001
6.344923e+003,2.116343e-001
6.348780e+003,2.112752e-001
6.352638e+003,1.990102e-001
6.356495e+003,1.956914e-001
6.360352e+003,1.930314e-001
6.364209e+003,1.867692e-001
6.368066e+003,1.870345e-001
6.371923e+003,1.851103e-001
6.375780e+003,2.029110e-001
6.379637e+003,2.094499e-001
6.383494e+003,1.932075e-001
6.387352e+003,1.903968e-001
6.391208e+003,1.855879e-001
6.395065e+003,1.811828e-001
6.398923e+003,1.891841e-001
6.402780e+003,1.792401e-001
6.406637e+003,1.831622e-001
6.410494e+003,1.867639e-001
6.414351e+003,1.833286e-001
6.418208e+003,1.915860e-001
6.422065e+003,2.012479e-001
6.425922e+003,2.010865e-001
6.429779e+003,1.892442e-001
6.433637e+003,1.787000e-001
6.437494e+003,1.730019e-001
6.441351e+003,1.716759e-001
6.445208e+003,1.965226e-001
6.449065e+003,2.052313e-001
6.452922e+003,2.015679e-001
6.456779e+003,1.893925e-001
6.460636e+003,1.950630e-001
6.464493e+003,2.061380e-001
6.468351e+003,2.007936e-001
6.472208e+003,2.037377e-001
6.476064e+003,1.984708e-001
6.479922e+003,1.925838e-001
6.483779e+003,1.933200e-001
6.487636e+003,1.998378e-001
6.491493e+003,1.985445e-001
6.495350e+003,1.776814e-001
6.499207e+003,1.771992e-001
6.503064e+003,1.849822e-001
6.506921e+003,1.921785e-001
6.510778e+003,1.981592e-001
6.514636e+003,1.975302e-001
6.518493e+003,1.976530e-001
6.522350e+003,1.688194e-001
6.526207e+003,1.552535e-001
6.530064e+003,1.573063e-001
6.533921e+003,1.515508e-001
6.537778e+003,1.513610e-001
6.541635e+003,1.586903e-001
6.545492e+003,1.781540e-001
6.549350e+003,1.734337e-001
6.553207e+003,1.589202e-001
6.557063e+003,1.749319e-001
6.560921e+003,1.876167e-001
6.564778e+003,1.816092e-001
6.568635e+003,1.772152e-001
6.572492e+003,1.844246e-001
6.576349e+003,1.742243e-001
6.580206e+003,1.680371e-001
6.584063e+003,1.807702e-001
6.587920e+003,1.996171e-001
6.591777e+003,1.941317e-001
6.595635e+003,1.711222e-001
6.599492e+003,1.518130e-001
6.603349e+003,1.645894e-001
6.607206e+003,1.714621e-001
6.611063e+003,1.820332e-001
6.614920e+003,2.011107e-001
6.618777e+003,2.029693e-001
6.622634e+003,1.804584e-001
6.626491e+003,1.511582e-001
6.630349e+003,1.622132e-001
6.634206e+003,1.874933e-001
6.638063e+003,1.921377e-001
6.641920e+003,1.774981e-001
6.645777e+003,1.656107e-001
6.649634e+003,1.642984e-001
6.653491e+003,1.782767e-001
6.657348e+003,1.810701e-001
6.661205e+003,1.792115e-001
6.665063e+003,1.756140e-001
6.668919e+003,1.645844e-001
6.672776e+003,1.712345e-001
6.676634e+003,1.795595e-001
6.680491e+003,1.716744e-001
6.684348e+003,1.360211e-001
6.688205e+003,1.204803e-001
6.692062e+003,1.417473e-001
6.695919e+003,1.749045e-001
6.699776e+003,1.694089e-001
6.703633e+003,1.570828e-001
6.707490e+003,1.575414e-001
6.711348e+003,1.598728e-001
6.715205e+003,1.550159e-001
6.719062e+003,1.711272e-001
6.722919e+003,1.768251e-001
6.726776e+003,1.499894e-001
6.730633e+003,1.507607e-001
6.734490e+003,1.520039e-001
6.738347e+003,1.634488e-001
6.742204e+003,1.893657e-001
6.746062e+003,1.772631e-001
6.749918e+003,1.770322e-001
6.753775e+003,1.774021e-001
6.757633e+003,1.784863e-001
6.761490e+003,1.745323e-001
6.765347e+003,1.725487e-001
6.769204e+003,1.827397e-001
6.773061e+003,1.823463e-001
6.776918e+003,1.407213e-001
6.780775e+003,1.367706e-001
6.784632e+003,1.405873e-001
6.788489e+003,1.493711e-001
6.792347e+003,1.513841e-001
6.796204e+003,1.497223e-001
6.800061e+003,1.510708e-001
6.803918e+003,1.585565e-001
6.807775e+003,1.545350e-001
6.811632e+003,1.360621e-001
6.815489e+003,1.455685e-001
6.819346e+003,1.824058e-001
6.823203e+003,1.952378e-001
6.827061e+003,1.900409e-001
6.830917e+003,1.778451e-001
6.834774e+003,1.855001e-001
6.838632e+003,1.745632e-001
6.842489e+003,1.962704e-001
6.846346e+003,2.359127e-001
6.850203e+003,2.024690e-001
6.854060e+003,1.588649e-001
6.857917e+003,1.502340e-001
6.861774e+003,1.655112e-001
6.865631e+003,1.811465e-001
6.869488e+003,2.036243e-001
6.873346e+003,2.069880e-001
6.877203e+003,1.709169e-001
6.881060e+003,1.425066e-001
6.884917e+003,1.715209e-001
6.888774e+003,1.907872e-001
6.892631e+003,1.862724e-001
6.896488e+003,1.949795e-001
6.900345e+003,1.713912e-001
6.904202e+003,1.624413e-001
6.908060e+003,1.738203e-001
6.911917e+003,1.991502e-001
6.915773e+003,1.963608e-001
6.919631e+003,1.729084e-001
6.923488e+003,1.617427e-001
6.927345e+003,1.632450e-001
6.931202e+003,1.684225e-001
6.935059e+003,1.566921e-001
6.938916e+003,1.691624e-001
6.942773e+003,1.947212e-001
6.946630e+003,2.128788e-001
6.950487e+003,1.755165e-001
6.954345e+003,1.341488e-001
6.958202e+003,1.387662e-001
6.962059e+003,1.564868e-001
6.965916e+003,1.543544e-001
6.969773e+003,1.730354e-001
6.973630e+003,2.278031e-001
6.977487e+003,2.150361e-001
6.981344e+003,1.602113e-001
6.985201e+003,1.434411e-001
6.989059e+003,1.780757e-001
6.992916e+003,1.986133e-001
6.996772e+003,1.665637e-001
7.000630e+003,1.708838e-001
7.004487e+003,1.786634e-001
7.008344e+003,1.626974e-001
7.012201e+003,1.343106e-001
7.016058e+003,1.854542e-001
7.019915e+003,2.332835e-001
7.023772e+003,2.088980e-001
7.027629e+003,1.734238e-001
7.031486e+003,1.635322e-001
7.035344e+003,1.857644e-001
7.039201e+003,2.137852e-001
7.043058e+003,1.857999e-001
7.046915e+003,1.376234e-001
7.050772e+003,1.385202e-001
7.054629e+003,1.774953e-001
7.058486e+003,1.739610e-001
7.062343e+003,1.619380e-001
7.066200e+003,1.630113e-001
7.070058e+003,1.600369e-001
7.073915e+003,1.704315e-001
7.077771e+003,1.989011e-001
7.081629e+003,2.075359e-001
7.085486e+003,2.104642e-001
7.089343e+003,1.817120e-001
7.093200e+003,1.532593e-001
7.097057e+003,1.507683e-001
7.100914e+003,1.584655e-001
7.104771e+003,1.598223e-001
7.108628e+003,1.651274e-001
7.112485e+003,1.585145e-001
7.116343e+003,1.470685e-001
7.120200e+003,1.784388e-001
7.124057e+003,1.894840e-001
7.127914e+003,1.936653e-001
7.131771e+003,1.925837e-001
7.135628e+003,1.728110e-001
7.139485e+003,1.556147e-001
7.143342e+003,1.303886e-001
7.147199e+003,1.205061e-001
7.151057e+003,1.570249e-001
7.154914e+003,2.255685e-001
7.158771e+003,2.005776e-001
7.162628e+003,1.527076e-001
7.166485e+003,1.439716e-001
7.170342e+003,1.670008e-001
7.174199e+003,1.685330e-001
7.178056e+003,1.383786e-001
7.181913e+003,1.414654e-001
7.185771e+003,1.439514e-001
7.189627e+003,1.523207e-001
7.193484e+003,1.970803e-001
7.197342e+003,2.167151e-001
7.201199e+003,2.015561e-001
7.205056e+003,1.999967e-001
7.208913e+003,1.781200e-001
7.212770e+003,1.818009e-001
7.216627e+003,2.065834e-001
7.220484e+003,1.637445e-001
7.224341e+003,1.467562e-001
7.228198e+003,1.588942e-001
7.232056e+003,1.496839e-001
7.235913e+003,1.589459e-001
7.239770e+003,1.827987e-001
7.243627e+003,1.652442e-001
7.247484e+003,1.610742e-001
7.251341e+003,1.715965e-001
7.255198e+003,1.805397e-001
7.259055e+003,1.966535e-001
7.262912e+003,2.109061e-001
7.266770e+003,2.101001e-001
7.270626e+003,2.170859e-001
7.274483e+003,2.143948e-001
7.278341e+003,1.807578e-001
7.282198e+003,1.731850e-001
7.286055e+003,1.987191e-001
7.289912e+003,1.660453e-001
7.293769e+003,1.486041e-001
7.297626e+003,1.909267e-001
7.301483e+003,2.143290e-001
7.305340e+003,2.190963e-001
7.309197e+003,2.151355e-001
7.313055e+003,2.230571e-001
7.316912e+003,2.101587e-001
7.320769e+003,2.252900e-001
7.324626e+003,2.579880e-001
7.328483e+003,2.218935e-001
7.332340e+003,1.764188e-001
7.336197e+003,1.473276e-001
7.340054e+003,1.613169e-001
7.343911e+003,2.163068e-001
7.347769e+003,2.175280e-001
7.351625e+003,1.844961e-001
7.355482e+003,2.068157e-001
7.359340e+003,1.706735e-001
7.363197e+003,1.489028e-001
7.367054e+003,2.091770e-001
7.370911e+003,1.966571e-001
7.374768e+003,1.886038e-001
7.378625e+003,1.784567e-001
7.382482e+003,1.392057e-001
7.386339e+003,1.184163e-001
7.390196e+003,1.183520e-001
7.394054e+003,1.252837e-001
7.397911e+003,1.385766e-001
7.401768e+003,1.970787e-001
7.405625e+003,2.352759e-001
7.409482e+003,2.061391e-001
7.413339e+003,1.766267e-001
7.417196e+003,1.568158e-001
7.421053e+003,1.562550e-001
7.424910e+003,2.124544e-001
7.428768e+003,2.344831e-001
7.432625e+003,1.904629e-001
7.436481e+003,2.161510e-001
7.440339e+003,2.376754e-001
7.444196e+003,2.128201e-001
7.448053e+003,2.331306e-001
7.451910e+003,2.452669e-001
7.455767e+003,2.472546e-001
7.459624e+003,2.717367e-001
7.463481e+003,2.518617e-001
7.467338e+003,1.466040e-001
7.471195e+003,1.245685e-001
7.475053e+003,1.926184e-001
7.478910e+003,2.476162e-001
7.482767e+003,2.825612e-001
7.486624e+003,2.673205e-001
7.490481e+003,2.523728e-001
7.494338e+003,2.402418e-001
7.498195e+003,1.642704e-001
7.502052e+003,1.135524e-001
7.505909e+003,5.427222e-002
7.509767e+003,6.779899e-002
7.513624e+003,1.339526e-001
7.517480e+003,1.767084e-001
7.521338e+003,1.486185e-001
7.525195e+003,1.758172e-001
7.529052e+003,2.768141e-001
7.532909e+003,2.761449e-001
7.536766e+003,2.524937e-001
7.540623e+003,2.630532e-001
7.544480e+003,2.213830e-001
7.548337e+003,2.305833e-001
7.552194e+003,2.879599e-001
7.556052e+003,2.631136e-001
7.559909e+003,2.218860e-001
7.563766e+003,2.290276e-001
7.567623e+003,2.091919e-001
7.571480e+003,1.886720e-001
7.575337e+003,2.044781e-001
7.579194e+003,2.129697e-001
7.583051e+003,2.414744e-001
7.586908e+003,2.847462e-001
7.590766e+003,2.464038e-001
7.594623e+003,2.038617e-001
7.598479e+003,1.963916e-001
7.602337e+003,1.842123e-001
7.606194e+003,1.644534e-001
7.610051e+003,2.625417e-001
7.613908e+003,3.154960e-001
7.617765e+003,2.732830e-001
7.621622e+003,3.264687e-001
7.625479e+003,3.476805e-001
7.629336e+003,2.975213e-001
7.633193e+003,2.241887e-001
7.637051e+003,2.177609e-001
7.640908e+003,2.178318e-001
7.644765e+003,2.164463e-001
7.648622e+003,2.527340e-001
7.652479e+003,2.673965e-001
7.656336e+003,1.836115e-001
7.660193e+003,1.194128e-001
7.664050e+003,1.518654e-001
7.667907e+003,2.702665e-001
7.671765e+003,3.246583e-001
7.675622e+003,3.165428e-001
7.679479e+003,2.640657e-001
7.683336e+003,2.031374e-001
7.687193e+003,1.423568e-001
7.691050e+003,1.428014e-001
7.694907e+003,1.476269e-001
7.698764e+003,1.361495e-001
7.702621e+003,2.149585e-001
7.706479e+003,2.572282e-001
7.710335e+003,2.440480e-001
7.714192e+003,2.175921e-001
7.718050e+003,1.648834e-001
7.721907e+003,1.744660e-001
7.725764e+003,3.153216e-001
7.729621e+003,3.220963e-001
7.733478e+003,3.084361e-001
7.737335e+003,2.387544e-001
7.741192e+003,1.510162e-001
7.745049e+003,1.877057e-001
7.748906e+003,2.150780e-001
7.752764e+003,1.724937e-001
7.756621e+003,1.860178e-001
7.760478e+003,1.593610e-001
7.764335e+003,1.575215e-001
7.768192e+003,2.041028e-001
7.772049e+003,1.614895e-001
7.775906e+003,1.199002e-001
7.779763e+003,1.494729e-001
7.783620e+003,2.233920e-001
7.787478e+003,2.647943e-001
7.791334e+003,2.472734e-001
7.795191e+003,3.308201e-001
7.799049e+003,2.655402e-001
7.802906e+003,1.314978e-001
7.806763e+003,1.292153e-001
7.810620e+003,1.521600e-001
7.814477e+003,1.393792e-001
7.818334e+003,1.835035e-001
7.822191e+003,1.386079e-001
7.826048e+003,1.545623e-001
7.829905e+003,2.560804e-001
7.833763e+003,2.089354e-001
7.837620e+003,1.596703e-001
7.841477e+003,2.137589e-001
7.845334e+003,2.482982e-001
7.849191e+003,3.254431e-001
7.853048e+003,3.276300e-001
7.856905e+003,2.367783e-001
7.860762e+003,2.662308e-001
7.864619e+003,1.921988e-001
7.868477e+003,1.202509e-001
7.872333e+003,1.407968e-001
7.876190e+003,2.007258e-001
7.880048e+003,2.195939e-001
7.883905e+003,1.504888e-001
7.887762e+003,6.715628e-002
7.891619e+003,5.561813e-002
7.895476e+003,8.566133e-002
7.899333e+003,1.884116e-001
7.903190e+003,1.484612e-001
7.907047e+003,1.517812e-001
7.910904e+003,1.570037e-001
7.914762e+003,1.364850e-001
7.918619e+003,1.712034e-001
7.922476e+003,2.208395e-001
7.926333e+003,1.178036e-001
7.930190e+003,1.293886e-001
7.934047e+003,1.904630e-001
7.937904e+003,2.357462e-001
7.941761e+003,2.297484e-001
7.945618e+003,3.394453e-001
7.949476e+003,3.623479e-001
7.953333e+003,2.488366e-001
7.957189e+003,2.918017e-001
7.961047e+003,3.768955e-001
7.964904e+003,3.264072e-001
7.968761e+003,2.140452e-001
7.972618e+003,2.137249e-001
7.976475e+003,1.546736e-001
7.980332e+003,2.298367e-001
7.984189e+003,2.999948e-001
7.988046e+003,1.729511e-001
7.991903e+003,2.248832e-001
7.995761e+003,3.141362e-001
7.999618e+003,1.702704e-001
