4.011380e+002,6.000000e+000
4.049951e+002,6.000000e+000
4.088522e+002,-7.733036e-001
4.127093e+002,6.000000e+000
4.165664e+002,-8.220965e-001
4.204235e+002,2.640362e-001
4.242806e+002,6.000000e+000
4.281377e+002,6.000000e+000
4.319948e+002,5.552350e-001
4.358519e+002,4.016070e-001
4.397090e+002,-5.495701e-001
4.435661e+002,6.000000e+000
4.474232e+002,-2.593503e-001
4.512803e+002,9.002680e-001
4.551374e+002,6.000000e+000
4.589945e+002,-6.999493e-001
4.628516e+002,3.420317e-001
4.667087e+002,1.553360e+000
4.705658e+002,1.466298e-001
4.744229e+002,6.000000e+000
4.782800e+002,6.000000e+000
4.821371e+002,-1.844043e-001
4.859941e+002,-1.198612e-001
4.898513e+002,3.340020e-001
4.937083e+002,-3.125396e-002
4.975654e+002,9.513139e-001
5.014225e+002,7.858972e-001
5.052796e+002,7.702442e-001
5.091367e+002,2.769861e-001
5.129938e+002,4.097468e-001
5.168509e+002,6.000000e+000
5.207080e+002,6.000000e+000
5.245651e+002,-1.178132e-001
5.284222e+002,6.000000e+000
5.322793e+002,6.000000e+000
5.361364e+002,6.000000e+000
5.399935e+002,6.000000e+000
5.438506e+002,6.000000e+000
5.477077e+002,6.000000e+000
5.515648e+002,6.000000e+000
5.554219e+002,-5.823067e-001
5.592790e+002,6.710261e-001
5.631361e+002,6.000000e+000
5.669932e+002,-1.711649e+000
5.708503e+002,6.887399e-001
5.747074e+002,5.935161e-001
5.785645e+002,2.488919e-001
5.824216e+002,6.000000e+000
5.862787e+002,6.000000e+000
5.901357e+002,6.000000e+000
5.939929e+002,5.569219e-001
5.978499e+002,6.000000e+000
6.017070e+002,6.000000e+000
6.055641e+002,2.495032e-001
6.094212e+002,6.000000e+000
6.132783e+002,5.874080e-001
6.171354e+002,-2.872918e-002
6.209925e+002,-6.448838e-003
6.248496e+002,-1.291640e-001
6.287067e+002,6.000000e+000
6.325638e+002,-1.377103e-001
6.364209e+002,2.104757e-001
6.402780e+002,-1.474213e-001
6.441351e+002,6.000000e+000
6.479922e+002,6.000000e+000
6.518493e+002,6.000000e+000
6.557064e+002,1.635258e+000
6.595635e+002,6.000000e+000
6.634205e+002,6.000000e+000
6.672777e+002,6.000000e+000
6.711348e+002,4.940815e-001
6.749918e+002,6.000000e+000
6.788490e+002,6.000000e+000
6.827061e+002,8.406686e-001
6.865631e+002,6.000000e+000
6.904203e+002,6.000000e+000
6.942773e+002,1.902638e-002
6.981344e+002,6.000000e+000
7.019916e+002,5.174388e-001
7.058486e+002,2.378287e-002
7.097057e+002,6.000000e+000
7.135629e+002,6.000000e+000
7.174199e+002,-7.077903e-001
7.212770e+002,1.486244e+000
7.251342e+002,6.000000e+000
7.289912e+002,5.819503e-001
7.328483e+002,2.404078e-001
7.367054e+002,5.617258e-001
7.405625e+002,6.000000e+000
7.444196e+002,-8.447553e-001
7.482767e+002,-7.961914e-001
7.521338e+002,6.000000e+000
7.559908e+002,-1.176114e+000
7.598480e+002,6.000000e+000
7.637051e+002,-1.518144e-001
7.675621e+002,6.000000e+000
7.714193e+002,6.000000e+000
7.752764e+002,6.000000e+000
7.791334e+002,1.436272e+000
7.829905e+002,1.471222e-001
7.868477e+002,1.230461e+000
7.907047e+002,6.000000e+000
7.945618e+002,2.838722e-001
7.984189e+002,-1.004167e-001
8.022760e+002,5.335284e-001
8.061331e+002,-3.494515e-001
8.099902e+002,6.000000e+000
8.138473e+002,4.963110e-001
8.177044e+002,4.516707e-001
8.215615e+002,9.409690e-001
8.254186e+002,2.299706e+000
8.292757e+002,1.858999e+000
8.331328e+002,5.660983e-001
8.369899e+002,4.947793e-001
8.408470e+002,6.918160e-001
8.447041e+002,7.130713e-001
8.485612e+002,9.906499e-001
8.524183e+002,8.576334e-001
8.562754e+002,9.427055e-001
8.601324e+002,1.115725e+000
8.639896e+002,1.322352e+000
8.678467e+002,1.806916e+000
8.717037e+002,1.632110e+000
8.755609e+002,2.003417e+000
8.794180e+002,1.891768e+000
8.832750e+002,1.458782e+000
8.871321e+002,1.310052e+000
8.909893e+002,1.289131e+000
8.948463e+002,6.000000e+000
8.987034e+002,6.000000e+000
9.025605e+002,1.606955e+000
9.064176e+002,1.548631e+000
9.102747e+002,2.031065e+000
9.141318e+002,6.000000e+000
9.179889e+002,6.000000e+000
9.218461e+002,6.000000e+000
9.257031e+002,2.284258e+000
9.295602e+002,1.700045e+000
9.334174e+002,1.521320e+000
9.372744e+002,1.797021e+000
9.411315e+002,2.042599e+000
9.449886e+002,1.771998e+000
9.488457e+002,2.091415e+000
9.527028e+002,6.000000e+000
9.565599e+002,6.000000e+000
9.604170e+002,6.000000e+000
9.642740e+002,6.000000e+000
9.681312e+002,6.000000e+000
9.719883e+002,6.000000e+000
9.758453e+002,2.201341e+000
9.797025e+002,2.272624e+000
9.835596e+002,3.056771e+000
9.874166e+002,2.823997e+000
9.912738e+002,2.618776e+000
9.951309e+002,6.000000e+000
9.989879e+002,6.000000e+000
1.002845e+003,2.445753e+000
1.006702e+003,2.459666e+000
1.010559e+003,6.000000e+000
1.014416e+003,6.000000e+000
1.018273e+003,2.357937e+000
1.022130e+003,1.733821e+000
1.025988e+003,1.746366e+000
1.029845e+003,2.083009e+000
1.033702e+003,2.943638e+000
1.037559e+003,6.000000e+000
1.041416e+003,2.435212e+000
1.045273e+003,1.847685e+000
1.049130e+003,1.814935e+000
1.052987e+003,1.917312e+000
1.056844e+003,2.041596e+000
1.060702e+003,1.924845e+000
1.064559e+003,1.708591e+000
1.068416e+003,1.647947e+000
1.072273e+003,1.857331e+000
1.076130e+003,2.090186e+000
1.079987e+003,1.975241e+000
1.083844e+003,1.744217e+000
1.087701e+003,1.670002e+000
1.091558e+003,1.630058e+000
1.095415e+003,1.587361e+000
1.099272e+003,1.633576e+000
1.103130e+003,1.810832e+000
1.106987e+003,1.785086e+000
1.110844e+003,1.624711e+000
1.114701e+003,1.580980e+000
1.118558e+003,1.531335e+000
1.122415e+003,1.500282e+000
1.126272e+003,1.602589e+000
1.130129e+003,1.598428e+000
1.133986e+003,1.534240e+000
1.137843e+003,1.471521e+000
1.141701e+003,1.430418e+000
1.145558e+003,1.469319e+000
1.149415e+003,1.526995e+000
1.153272e+003,1.524417e+000
1.157129e+003,1.422724e+000
1.160986e+003,1.371583e+000
1.164843e+003,1.443000e+000
1.168700e+003,1.491617e+000
1.172557e+003,1.428992e+000
1.176414e+003,1.370228e+000
1.180271e+003,1.354270e+000
1.184129e+003,1.357341e+000
1.187986e+003,1.356738e+000
1.191843e+003,1.343522e+000
1.195700e+003,1.342731e+000
1.199557e+003,1.345479e+000
1.203414e+003,1.328152e+000
1.207271e+003,1.296457e+000
1.211128e+003,1.297723e+000
1.214985e+003,1.293075e+000
1.218842e+003,1.246905e+000
1.222699e+003,1.204986e+000
1.226557e+003,1.146482e+000
1.230414e+003,1.096865e+000
1.234271e+003,1.050970e+000
1.238128e+003,1.008411e+000
1.241985e+003,9.863587e-001
1.245842e+003,9.520233e-001
1.249699e+003,9.188706e-001
1.253556e+003,8.830860e-001
1.257413e+003,8.462503e-001
1.261271e+003,8.252737e-001
1.265128e+003,8.015643e-001
1.268985e+003,7.784502e-001
1.272842e+003,7.567266e-001
1.276699e+003,7.345877e-001
1.280556e+003,7.262058e-001
1.284413e+003,7.200639e-001
1.288270e+003,7.027158e-001
1.292127e+003,6.878921e-001
1.295984e+003,6.764627e-001
1.299841e+003,6.708983e-001
1.303698e+003,6.647990e-001
1.307556e+003,6.604773e-001
1.311413e+003,6.621431e-001
1.315270e+003,6.590076e-001
1.319127e+003,6.492665e-001
1.322984e+003,6.417113e-001
1.326841e+003,6.360670e-001
1.330698e+003,6.336591e-001
1.334555e+003,6.340041e-001
1.338412e+003,6.329579e-001
1.342270e+003,6.236454e-001
1.346127e+003,6.198241e-001
1.349984e+003,6.257563e-001
1.353841e+003,6.262727e-001
1.357698e+003,6.262977e-001
1.361555e+003,6.325896e-001
1.365412e+003,6.456801e-001
1.369269e+003,6.470901e-001
1.373126e+003,6.468260e-001
1.376983e+003,6.579869e-001
1.380840e+003,6.699095e-001
1.384698e+003,6.876638e-001
1.388555e+003,7.096126e-001
1.392412e+003,7.261866e-001
1.396269e+003,7.402492e-001
1.400126e+003,7.535406e-001
1.403983e+003,7.730322e-001
1.407840e+003,7.914847e-001
1.411697e+003,8.063270e-001
1.415554e+003,8.218428e-001
1.419411e+003,8.432360e-001
1.423269e+003,8.559780e-001
1.427126e+003,8.613092e-001
1.430983e+003,8.730741e-001
1.434840e+003,8.770333e-001
1.438697e+003,8.760542e-001
1.442554e+003,8.692169e-001
1.446411e+003,8.646916e-001
1.450268e+003,8.578969e-001
1.454125e+003,8.391534e-001
1.457982e+003,8.268393e-001
1.461839e+003,8.280090e-001
1.465697e+003,8.251224e-001
1.469554e+003,8.210008e-001
1.473411e+003,8.193848e-001
1.477268e+003,8.231568e-001
1.481125e+003,8.411765e-001
1.484982e+003,8.584837e-001
1.488839e+003,8.663789e-001
1.492696e+003,8.603019e-001
1.496553e+003,8.608868e-001
1.500411e+003,8.670270e-001
1.504268e+003,8.764093e-001
1.508125e+003,8.841730e-001
1.511982e+003,8.765768e-001
1.515839e+003,8.709643e-001
1.519696e+003,8.716551e-001
1.523553e+003,8.621609e-001
1.527410e+003,8.453217e-001
1.531267e+003,8.252869e-001
1.535124e+003,8.111963e-001
1.538981e+003,8.053803e-001
1.542839e+003,7.922943e-001
1.546696e+003,7.788936e-001
1.550553e+003,7.658631e-001
1.554410e+003,7.579554e-001
1.558267e+003,7.491438e-001
1.562124e+003,7.425519e-001
1.565981e+003,7.363837e-001
1.569838e+003,7.353838e-001
1.573695e+003,7.268872e-001
1.577552e+003,7.174701e-001
1.581410e+003,7.141002e-001
1.585267e+003,7.161098e-001
1.589124e+003,7.207667e-001
1.592981e+003,7.248866e-001
1.596838e+003,7.355294e-001
1.600695e+003,7.496148e-001
1.604552e+003,7.704256e-001
1.608409e+003,7.897446e-001
1.612266e+003,8.145422e-001
1.616123e+003,8.368456e-001
1.619980e+003,8.701661e-001
1.623838e+003,8.946807e-001
1.627695e+003,9.110536e-001
1.631552e+003,9.266449e-001
1.635409e+003,9.345923e-001
1.639266e+003,9.383486e-001
1.643123e+003,9.391690e-001
1.646980e+003,9.311504e-001
1.650837e+003,9.153375e-001
1.654694e+003,9.103384e-001
1.658551e+003,8.947256e-001
1.662409e+003,8.684546e-001
1.666266e+003,8.509760e-001
1.670123e+003,8.281348e-001
1.673980e+003,7.985635e-001
1.677837e+003,7.753405e-001
1.681694e+003,7.553210e-001
1.685551e+003,7.350117e-001
1.689408e+003,7.190723e-001
1.693265e+003,7.088460e-001
1.697122e+003,7.000765e-001
1.700979e+003,6.842671e-001
1.704837e+003,6.716096e-001
1.708694e+003,6.616594e-001
1.712551e+003,6.553747e-001
1.716408e+003,6.481463e-001
1.720265e+003,6.446912e-001
1.724122e+003,6.367248e-001
1.727979e+003,6.279125e-001
1.731836e+003,6.301342e-001
1.735693e+003,6.248077e-001
1.739550e+003,6.155615e-001
1.743408e+003,6.155849e-001
1.747265e+003,6.202852e-001
1.751122e+003,6.185097e-001
1.754979e+003,6.116847e-001
1.758836e+003,6.113402e-001
1.762693e+003,6.137463e-001
1.766550e+003,6.118482e-001
1.770407e+003,6.064815e-001
1.774264e+003,6.043379e-001
1.778121e+003,6.051667e-001
1.781979e+003,6.068748e-001
1.785836e+003,6.021688e-001
1.789693e+003,5.976142e-001
1.793550e+003,5.976744e-001
1.797407e+003,5.964531e-001
1.801264e+003,5.923036e-001
1.805121e+003,5.927379e-001
1.808978e+003,5.937726e-001
1.812835e+003,5.938231e-001
1.816692e+003,5.941815e-001
1.820549e+003,5.934227e-001
1.824407e+003,5.926238e-001
1.828264e+003,5.930428e-001
1.832121e+003,5.948959e-001
1.835978e+003,5.948762e-001
1.839835e+003,5.931752e-001
1.843692e+003,5.858591e-001
1.847549e+003,5.828075e-001
1.851406e+003,5.846374e-001
1.855263e+003,5.794520e-001
1.859120e+003,5.697500e-001
1.862978e+003,5.672693e-001
1.866835e+003,5.684185e-001
1.870692e+003,5.695882e-001
1.874549e+003,5.709914e-001
1.878406e+003,5.690721e-001
1.882263e+003,5.680563e-001
1.886120e+003,5.678057e-001
1.889977e+003,5.671543e-001
1.893834e+003,5.676979e-001
1.897691e+003,5.650252e-001
1.901548e+003,5.631155e-001
1.905406e+003,5.643609e-001
1.909263e+003,5.661108e-001
1.913120e+003,5.654634e-001
1.916977e+003,5.623052e-001
1.920834e+003,5.613552e-001
1.924691e+003,5.579510e-001
1.928548e+003,5.541593e-001
1.932405e+003,5.533404e-001
1.936262e+003,5.473740e-001
1.940119e+003,5.457036e-001
1.943977e+003,5.467551e-001
1.947834e+003,5.454766e-001
1.951691e+003,5.436705e-001
1.955548e+003,5.414049e-001
1.959405e+003,5.442845e-001
1.963262e+003,5.428979e-001
1.967119e+003,5.380857e-001
1.970976e+003,5.355761e-001
1.974833e+003,5.347514e-001
1.978690e+003,5.344266e-001
1.982547e+003,5.377229e-001
1.986405e+003,5.390691e-001
1.990262e+003,5.368289e-001
1.994119e+003,5.352194e-001
1.997976e+003,5.363665e-001
2.001833e+003,5.356951e-001
2.005690e+003,5.338536e-001
2.009547e+003,5.319608e-001
2.013404e+003,5.314010e-001
2.017261e+003,5.267138e-001
2.021118e+003,5.242859e-001
2.024976e+003,5.253731e-001
2.028833e+003,5.298753e-001
2.032690e+003,5.293282e-001
2.036547e+003,5.231751e-001
2.040404e+003,5.199721e-001
2.044261e+003,5.208432e-001
2.048118e+003,5.191960e-001
2.051975e+003,5.171257e-001
2.055832e+003,5.143942e-001
2.059689e+003,5.167600e-001
2.063546e+003,5.162296e-001
2.067404e+003,5.128591e-001
2.071261e+003,5.124490e-001
2.075118e+003,5.119015e-001
2.078975e+003,5.129177e-001
2.082832e+003,5.111791e-001
2.086689e+003,5.066561e-001
2.090546e+003,5.058501e-001
2.094403e+003,5.062533e-001
2.098260e+003,5.086232e-001
2.102117e+003,5.128549e-001
2.105975e+003,5.122936e-001
2.109832e+003,5.086163e-001
2.113689e+003,5.088987e-001
2.117546e+003,5.074273e-001
2.121403e+003,5.076979e-001
2.125260e+003,5.073772e-001
2.129117e+003,5.057790e-001
2.132974e+003,5.060093e-001
2.136831e+003,5.071940e-001
2.140688e+003,5.077171e-001
2.144545e+003,5.063971e-001
2.148403e+003,5.073606e-001
2.152260e+003,5.104380e-001
2.156117e+003,5.095048e-001
2.159974e+003,5.091065e-001
2.163831e+003,5.086043e-001
2.167688e+003,5.083762e-001
2.171545e+003,5.098339e-001
2.175402e+003,5.092384e-001
2.179259e+003,5.069041e-001
2.183116e+003,5.078350e-001
2.186974e+003,5.089554e-001
2.190831e+003,5.098425e-001
2.194688e+003,5.107009e-001
2.198545e+003,5.122812e-001
2.202402e+003,5.152850e-001
2.206259e+003,5.177333e-001
2.210116e+003,5.148305e-001
2.213973e+003,5.105748e-001
2.217830e+003,5.113721e-001
2.221688e+003,5.150522e-001
2.225544e+003,5.192721e-001
2.229402e+003,5.191120e-001
2.233259e+003,5.202004e-001
2.237116e+003,5.222981e-001
2.240973e+003,5.206649e-001
2.244830e+003,5.157875e-001
2.248687e+003,5.158848e-001
2.252544e+003,5.167454e-001
2.256401e+003,5.150373e-001
2.260258e+003,5.170122e-001
2.264115e+003,5.192378e-001
2.267973e+003,5.194013e-001
2.271830e+003,5.202981e-001
2.275687e+003,5.190327e-001
2.279544e+003,5.214413e-001
2.283401e+003,5.215932e-001
2.287258e+003,5.175920e-001
2.291115e+003,5.178306e-001
2.294972e+003,5.207638e-001
2.298829e+003,5.218265e-001
2.302687e+003,5.253133e-001
2.306543e+003,5.231467e-001
2.310401e+003,5.207171e-001
2.314258e+003,5.220843e-001
2.318115e+003,5.244200e-001
2.321972e+003,5.257649e-001
2.325829e+003,5.228274e-001
2.329686e+003,5.179157e-001
2.333543e+003,5.178323e-001
2.337400e+003,5.231313e-001
2.341257e+003,5.264528e-001
2.345115e+003,5.260944e-001
2.348972e+003,5.281687e-001
2.352829e+003,5.265163e-001
2.356686e+003,5.253190e-001
2.360543e+003,5.246910e-001
2.364400e+003,5.198741e-001
2.368257e+003,5.207635e-001
2.372114e+003,5.280718e-001
2.375971e+003,5.287596e-001
2.379828e+003,5.299125e-001
2.383686e+003,5.299546e-001
2.387542e+003,5.240406e-001
2.391400e+003,5.202501e-001
2.395257e+003,5.226553e-001
2.399114e+003,5.231507e-001
2.402971e+003,5.221843e-001
2.406828e+003,5.224396e-001
2.410685e+003,5.235822e-001
2.414542e+003,5.204682e-001
2.418399e+003,5.196795e-001
2.422256e+003,5.194177e-001
2.426114e+003,5.153182e-001
2.429971e+003,5.128126e-001
2.433828e+003,5.166175e-001
2.437685e+003,5.180360e-001
2.441542e+003,5.167175e-001
2.445399e+003,5.184982e-001
2.449256e+003,5.180744e-001
2.453113e+003,5.140529e-001
2.456970e+003,5.128233e-001
2.460827e+003,5.169091e-001
2.464684e+003,5.168505e-001
2.468542e+003,5.124670e-001
2.472399e+003,5.104424e-001
2.476256e+003,5.107478e-001
2.480113e+003,5.104672e-001
2.483970e+003,5.093760e-001
2.487827e+003,5.121883e-001
2.491684e+003,5.109340e-001
2.495541e+003,5.090881e-001
2.499398e+003,5.087369e-001
2.503255e+003,5.083176e-001
2.507113e+003,5.106507e-001
2.510969e+003,5.107624e-001
2.514827e+003,5.095647e-001
2.518684e+003,5.120501e-001
2.522541e+003,5.134696e-001
2.526398e+003,5.082749e-001
2.530255e+003,5.075385e-001
2.534112e+003,5.130566e-001
2.537969e+003,5.148072e-001
2.541826e+003,5.149118e-001
2.545683e+003,5.176092e-001
2.549541e+003,5.197899e-001
2.553398e+003,5.158001e-001
2.557255e+003,5.130494e-001
2.561112e+003,5.146207e-001
2.564969e+003,5.198045e-001
2.568826e+003,5.193490e-001
2.572683e+003,5.180889e-001
2.576540e+003,5.217066e-001
2.580397e+003,5.236293e-001
2.584254e+003,5.229663e-001
2.588112e+003,5.233591e-001
2.591969e+003,5.270089e-001
2.595826e+003,5.298412e-001
2.599683e+003,5.305381e-001
2.603540e+003,5.341419e-001
2.607397e+003,5.385392e-001
2.611254e+003,5.389907e-001
2.615111e+003,5.382514e-001
2.618968e+003,5.392954e-001
2.622825e+003,5.408205e-001
2.626682e+003,5.386620e-001
2.630540e+003,5.397838e-001
2.634397e+003,5.444255e-001
2.638254e+003,5.480758e-001
2.642111e+003,5.480183e-001
2.645968e+003,5.479723e-001
2.649825e+003,5.504739e-001
2.653682e+003,5.542798e-001
2.657539e+003,5.602466e-001
2.661396e+003,5.631880e-001
2.665253e+003,5.615318e-001
2.669111e+003,5.625179e-001
2.672968e+003,5.685140e-001
2.676825e+003,5.690975e-001
2.680682e+003,5.725546e-001
2.684539e+003,5.800412e-001
2.688396e+003,5.832802e-001
2.692253e+003,5.821450e-001
2.696110e+003,5.854222e-001
2.699967e+003,5.901130e-001
2.703824e+003,5.891924e-001
2.707681e+003,5.878347e-001
2.711539e+003,5.882941e-001
2.715396e+003,5.903326e-001
2.719253e+003,5.971428e-001
2.723110e+003,5.987214e-001
2.726967e+003,6.031724e-001
2.730824e+003,6.118253e-001
2.734681e+003,6.126882e-001
2.738538e+003,6.082658e-001
2.742395e+003,6.088492e-001
2.746252e+003,6.122499e-001
2.750110e+003,6.162742e-001
2.753967e+003,6.241112e-001
2.757824e+003,6.297216e-001
2.761681e+003,6.373985e-001
2.765538e+003,6.443884e-001
2.769395e+003,6.449205e-001
2.773252e+003,6.457829e-001
2.777109e+003,6.459439e-001
2.780966e+003,6.485233e-001
2.784823e+003,6.536318e-001
2.788680e+003,6.579385e-001
2.792538e+003,6.619636e-001
2.796395e+003,6.635766e-001
2.800252e+003,6.673350e-001
2.804109e+003,6.677333e-001
2.807966e+003,6.732765e-001
2.811823e+003,6.823633e-001
2.815680e+003,6.849090e-001
2.819537e+003,6.875942e-001
2.823394e+003,6.918744e-001
2.827251e+003,6.907141e-001
2.831109e+003,6.920488e-001
2.834966e+003,6.979510e-001
2.838823e+003,7.061473e-001
2.842680e+003,7.110784e-001
2.846537e+003,7.213073e-001
2.850394e+003,7.273538e-001
2.854251e+003,7.276146e-001
2.858108e+003,7.278031e-001
2.861965e+003,7.290832e-001
2.865823e+003,7.290699e-001
2.869679e+003,7.328843e-001
2.873537e+003,7.374622e-001
2.877394e+003,7.390792e-001
2.881251e+003,7.423788e-001
2.885108e+003,7.485468e-001
2.888965e+003,7.531909e-001
2.892822e+003,7.619137e-001
2.896679e+003,7.669366e-001
2.900536e+003,7.689552e-001
2.904393e+003,7.712057e-001
2.908250e+003,7.725363e-001
2.912108e+003,7.785607e-001
2.915965e+003,7.817689e-001
2.919822e+003,7.862524e-001
2.923679e+003,7.932980e-001
2.927536e+003,8.023378e-001
2.931393e+003,8.093016e-001
2.935250e+003,8.131279e-001
2.939107e+003,8.217695e-001
2.942964e+003,8.277709e-001
2.946822e+003,8.239926e-001
2.950678e+003,8.240551e-001
2.954536e+003,8.340513e-001
2.958393e+003,8.368573e-001
2.962250e+003,8.356386e-001
2.966107e+003,8.405955e-001
2.969964e+003,8.446163e-001
2.973821e+003,8.460608e-001
2.977678e+003,8.555576e-001
2.981535e+003,8.676994e-001
2.985392e+003,8.678651e-001
2.989250e+003,8.727856e-001
2.993107e+003,8.780079e-001
2.996964e+003,8.780402e-001
3.000821e+003,8.842090e-001
3.004678e+003,8.920186e-001
3.008535e+003,8.993109e-001
3.012392e+003,9.066017e-001
3.016249e+003,9.155498e-001
3.020106e+003,9.140189e-001
3.023963e+003,9.175110e-001
3.027821e+003,9.225784e-001
3.031677e+003,9.201965e-001
3.035535e+003,9.251326e-001
3.039392e+003,9.411037e-001
3.043249e+003,9.492999e-001
3.047106e+003,9.491895e-001
3.050963e+003,9.492287e-001
3.054820e+003,9.552013e-001
3.058677e+003,9.559652e-001
3.062534e+003,9.554877e-001
3.066391e+003,9.758267e-001
3.070249e+003,9.822119e-001
3.074106e+003,9.750457e-001
3.077963e+003,9.833382e-001
3.081820e+003,9.885502e-001
3.085677e+003,9.925460e-001
3.089534e+003,1.005974e+000
3.093391e+003,1.017629e+000
3.097248e+003,1.013158e+000
3.101105e+003,1.013911e+000
3.104962e+003,1.016804e+000
3.108820e+003,1.024513e+000
3.112677e+003,1.032032e+000
3.116534e+003,1.034595e+000
3.120391e+003,1.045626e+000
3.124248e+003,1.055946e+000
3.128105e+003,1.055408e+000
3.131962e+003,1.055866e+000
3.135819e+003,1.061623e+000
3.139676e+003,1.053711e+000
3.143533e+003,1.047359e+000
3.147390e+003,1.066780e+000
3.151248e+003,1.090721e+000
3.155105e+003,1.095118e+000
3.158962e+003,1.093442e+000
3.162819e+003,1.097986e+000
3.166676e+003,1.103729e+000
3.170533e+003,1.113706e+000
3.174390e+003,1.113960e+000
3.178247e+003,1.118718e+000
3.182104e+003,1.125489e+000
3.185961e+003,1.126725e+000
3.189819e+003,1.138588e+000
3.193676e+003,1.143128e+000
3.197533e+003,1.141891e+000
3.201390e+003,1.141198e+000
3.205247e+003,1.140410e+000
3.209104e+003,1.135525e+000
3.212961e+003,1.137348e+000
3.216818e+003,1.147698e+000
3.220675e+003,1.166086e+000
3.224532e+003,1.179069e+000
3.228389e+003,1.185664e+000
3.232247e+003,1.200078e+000
3.236104e+003,1.191173e+000
3.239961e+003,1.191574e+000
3.243818e+003,1.202421e+000
3.247675e+003,1.182445e+000
3.251532e+003,1.199788e+000
3.255389e+003,1.219289e+000
3.259246e+003,1.210713e+000
3.263103e+003,1.199402e+000
3.266960e+003,1.201647e+000
3.270818e+003,1.199288e+000
3.274675e+003,1.192357e+000
3.278532e+003,1.211578e+000
3.282389e+003,1.232845e+000
3.286246e+003,1.223349e+000
3.290103e+003,1.213016e+000
3.293960e+003,1.214297e+000
3.297817e+003,1.225362e+000
3.301674e+003,1.247058e+000
3.305531e+003,1.248032e+000
3.309388e+003,1.237467e+000
3.313246e+003,1.247155e+000
3.317103e+003,1.246307e+000
3.320960e+003,1.258413e+000
3.324817e+003,1.264720e+000
3.328674e+003,1.254566e+000
3.332531e+003,1.255749e+000
3.336388e+003,1.251336e+000
3.340245e+003,1.246475e+000
3.344102e+003,1.269060e+000
3.347959e+003,1.274363e+000
3.351817e+003,1.272749e+000
3.355674e+003,1.279928e+000
3.359531e+003,1.272375e+000
3.363388e+003,1.269541e+000
3.367245e+003,1.287972e+000
3.371102e+003,1.289761e+000
3.374959e+003,1.312958e+000
3.378816e+003,1.330082e+000
3.382673e+003,1.316496e+000
3.386530e+003,1.285947e+000
3.390387e+003,1.261629e+000
3.394245e+003,1.268129e+000
3.398102e+003,1.306231e+000
3.401959e+003,1.321310e+000
3.405816e+003,1.315809e+000
3.409673e+003,1.289980e+000
3.413530e+003,1.284130e+000
3.417387e+003,1.298345e+000
3.421244e+003,1.312175e+000
3.425101e+003,1.307698e+000
3.428958e+003,1.319687e+000
3.432815e+003,1.325790e+000
3.436673e+003,1.303753e+000
3.440530e+003,1.286978e+000
3.444387e+003,1.312601e+000
3.448244e+003,1.330829e+000
3.452101e+003,1.337236e+000
3.455958e+003,1.310145e+000
3.459815e+003,1.286408e+000
3.463672e+003,1.303658e+000
3.467529e+003,1.325655e+000
3.471386e+003,1.339715e+000
3.475244e+003,1.329990e+000
3.479101e+003,1.306847e+000
3.482958e+003,1.293670e+000
3.486815e+003,1.313263e+000
3.490672e+003,1.336228e+000
3.494529e+003,1.341449e+000
3.498386e+003,1.351599e+000
3.502243e+003,1.363982e+000
3.506100e+003,1.339952e+000
3.509958e+003,1.301443e+000
3.513814e+003,1.317706e+000
3.517672e+003,1.342665e+000
3.521529e+003,1.338221e+000
3.525386e+003,1.315940e+000
3.529243e+003,1.324626e+000
3.533100e+003,1.343746e+000
3.536957e+003,1.330551e+000
3.540814e+003,1.333353e+000
3.544671e+003,1.329494e+000
3.548528e+003,1.318365e+000
3.552385e+003,1.314273e+000
3.556243e+003,1.327377e+000
3.560100e+003,1.332184e+000
3.563957e+003,1.322441e+000
3.567814e+003,1.295860e+000
3.571671e+003,1.300015e+000
3.575528e+003,1.293917e+000
3.579385e+003,1.268156e+000
3.583242e+003,1.255351e+000
3.587099e+003,1.241790e+000
3.590957e+003,1.234453e+000
3.594813e+003,1.230367e+000
3.598671e+003,1.222368e+000
3.602528e+003,1.211370e+000
3.606385e+003,1.177915e+000
3.610242e+003,1.154982e+000
3.614099e+003,1.137899e+000
3.617956e+003,1.105431e+000
3.621813e+003,1.067752e+000
3.625670e+003,1.021210e+000
3.629527e+003,9.783407e-001
3.633385e+003,9.398372e-001
3.637242e+003,9.002116e-001
3.641099e+003,8.554331e-001
3.644956e+003,8.042237e-001
3.648813e+003,7.507889e-001
3.652670e+003,7.072817e-001
3.656527e+003,6.675296e-001
3.660384e+003,6.231834e-001
3.664241e+003,5.870841e-001
3.668098e+003,5.526049e-001
3.671956e+003,5.256181e-001
3.675813e+003,4.995304e-001
3.679670e+003,4.731663e-001
3.683527e+003,4.532899e-001
3.687384e+003,4.385126e-001
3.691241e+003,4.208799e-001
3.695098e+003,4.072150e-001
3.698955e+003,3.966791e-001
3.702812e+003,3.855480e-001
3.706669e+003,3.776941e-001
3.710526e+003,3.729861e-001
3.714384e+003,3.647245e-001
3.718241e+003,3.565697e-001
3.722098e+003,3.542321e-001
3.725955e+003,3.499809e-001
3.729812e+003,3.444662e-001
3.733669e+003,3.410619e-001
3.737526e+003,3.407664e-001
3.741383e+003,3.382832e-001
3.745240e+003,3.326404e-001
3.749097e+003,3.289133e-001
3.752955e+003,3.257583e-001
3.756812e+003,3.262886e-001
3.760669e+003,3.248008e-001
3.764526e+003,3.241174e-001
3.768383e+003,3.225686e-001
3.772240e+003,3.207184e-001
3.776097e+003,3.197192e-001
3.779954e+003,3.186933e-001
3.783811e+003,3.198591e-001
3.787668e+003,3.192745e-001
3.791525e+003,3.188537e-001
3.795383e+003,3.225548e-001
3.799240e+003,3.213202e-001
3.803097e+003,3.160714e-001
3.806954e+003,3.151737e-001
3.810811e+003,3.157221e-001
3.814668e+003,3.148092e-001
3.818525e+003,3.150860e-001
3.822382e+003,3.138556e-001
3.826239e+003,3.147349e-001
3.830096e+003,3.129813e-001
3.833954e+003,3.117188e-001
3.837811e+003,3.130832e-001
3.841668e+003,3.142958e-001
3.845525e+003,3.120420e-001
3.849382e+003,3.122889e-001
3.853239e+003,3.139956e-001
3.857096e+003,3.135781e-001
3.860953e+003,3.117002e-001
3.864810e+003,3.118187e-001
3.868667e+003,3.118870e-001
3.872524e+003,3.121111e-001
3.876382e+003,3.125558e-001
3.880239e+003,3.077501e-001
3.884096e+003,3.082883e-001
3.887953e+003,3.094442e-001
3.891810e+003,3.067167e-001
3.895667e+003,3.044237e-001
3.899524e+003,3.065640e-001
3.903381e+003,3.077461e-001
3.907238e+003,3.102224e-001
3.911095e+003,3.098395e-001
3.914953e+003,3.090199e-001
3.918810e+003,3.099962e-001
3.922667e+003,3.117708e-001
3.926524e+003,3.132426e-001
3.930381e+003,3.113770e-001
3.934238e+003,3.064981e-001
3.938095e+003,3.080066e-001
3.941952e+003,3.097143e-001
3.945809e+003,3.087450e-001
3.949667e+003,3.069191e-001
3.953523e+003,3.084305e-001
3.957381e+003,3.093697e-001
3.961238e+003,3.087429e-001
3.965095e+003,3.060230e-001
3.968952e+003,3.029273e-001
3.972809e+003,3.010754e-001
3.976666e+003,3.007613e-001
3.980523e+003,3.013710e-001
3.984380e+003,3.040073e-001
3.988237e+003,3.037060e-001
3.992094e+003,3.026668e-001
3.995952e+003,3.017969e-001
3.999809e+003,3.009312e-001
4.003666e+003,3.036040e-001
4.007523e+003,3.055589e-001
4.011380e+003,3.076589e-001
4.015237e+003,3.081639e-001
4.019094e+003,3.057943e-001
4.022951e+003,3.039113e-001
4.026808e+003,3.028866e-001
4.030666e+003,3.009134e-001
4.034522e+003,2.995527e-001
4.038380e+003,3.003048e-001
4.042237e+003,3.010599e-001
4.046094e+003,3.001186e-001
4.049951e+003,3.006454e-001
4.053808e+003,3.037508e-001
4.057665e+003,3.043365e-001
4.061522e+003,3.026448e-001
4.065379e+003,3.025705e-001
4.069236e+003,3.017860e-001
4.073094e+003,3.015793e-001
4.076951e+003,3.015094e-001
4.080808e+003,2.997412e-001
4.084665e+003,3.000512e-001
4.088522e+003,2.981846e-001
4.092379e+003,2.957096e-001
4.096236e+003,2.978743e-001
4.100093e+003,2.962476e-001
4.103950e+003,2.935525e-001
4.107808e+003,2.951505e-001
4.111665e+003,2.994517e-001
4.115521e+003,2.989440e-001
4.119379e+003,2.963666e-001
4.123236e+003,2.945036e-001
4.127093e+003,2.960733e-001
4.130950e+003,2.972080e-001
4.134807e+003,2.980138e-001
4.138664e+003,2.953981e-001
4.142521e+003,2.904892e-001
4.146378e+003,2.918420e-001
4.150235e+003,2.967400e-001
4.154093e+003,3.001633e-001
4.157950e+003,2.956542e-001
4.161807e+003,2.923355e-001
4.165664e+003,2.942835e-001
4.169521e+003,2.967211e-001
4.173378e+003,2.978279e-001
4.177235e+003,2.955934e-001
4.181092e+003,2.935559e-001
4.184949e+003,2.932571e-001
4.188807e+003,2.931246e-001
4.192664e+003,2.943481e-001
4.196521e+003,2.952177e-001
4.200378e+003,2.947970e-001
4.204235e+003,2.936176e-001
4.208092e+003,2.924798e-001
4.211949e+003,2.934152e-001
4.215806e+003,2.950032e-001
4.219663e+003,2.961840e-001
4.223521e+003,2.955679e-001
4.227377e+003,2.973025e-001
4.231234e+003,2.954842e-001
4.235092e+003,2.960691e-001
4.238949e+003,2.977628e-001
4.242806e+003,2.982376e-001
4.246663e+003,2.986757e-001
4.250520e+003,2.987357e-001
4.254377e+003,2.942598e-001
4.258234e+003,2.913583e-001
4.262091e+003,2.950123e-001
4.265948e+003,2.932407e-001
4.269806e+003,2.914548e-001
4.273663e+003,2.899171e-001
4.277520e+003,2.881440e-001
4.281377e+003,2.900811e-001
4.285234e+003,2.913181e-001
4.289091e+003,2.900273e-001
4.292948e+003,2.917472e-001
4.296805e+003,2.933038e-001
4.300662e+003,2.910910e-001
4.304520e+003,2.887102e-001
4.308376e+003,2.909788e-001
4.312233e+003,2.941156e-001
4.316091e+003,2.953334e-001
4.319948e+003,2.928662e-001
4.323805e+003,2.920648e-001
4.327662e+003,2.932166e-001
4.331519e+003,2.961236e-001
4.335376e+003,2.997784e-001
4.339233e+003,2.985445e-001
4.343090e+003,2.926746e-001
4.346947e+003,2.941648e-001
4.350805e+003,2.952885e-001
4.354662e+003,2.974198e-001
4.358519e+003,2.963800e-001
4.362376e+003,2.945789e-001
4.366233e+003,2.974581e-001
4.370090e+003,2.982602e-001
4.373947e+003,2.987053e-001
4.377804e+003,3.017645e-001
4.381661e+003,2.993999e-001
4.385519e+003,2.977297e-001
4.389375e+003,2.989740e-001
4.393232e+003,2.970895e-001
4.397090e+003,2.966262e-001
4.400947e+003,3.011771e-001
4.404804e+003,3.030938e-001
4.408661e+003,2.996215e-001
4.412518e+003,2.948490e-001
4.416375e+003,2.942469e-001
4.420232e+003,3.012128e-001
4.424089e+003,3.064727e-001
4.427946e+003,3.052755e-001
4.431804e+003,3.030254e-001
4.435661e+003,3.022963e-001
4.439518e+003,3.034178e-001
4.443375e+003,3.041289e-001
4.447232e+003,3.052341e-001
4.451089e+003,3.060740e-001
4.454946e+003,3.056886e-001
4.458803e+003,3.024731e-001
4.462660e+003,3.006317e-001
4.466518e+003,2.978215e-001
4.470375e+003,2.969640e-001
4.474231e+003,2.983690e-001
4.478089e+003,3.004462e-001
4.481946e+003,3.009524e-001
4.485803e+003,3.033769e-001
4.489660e+003,3.060187e-001
4.493517e+003,3.095564e-001
4.497375e+003,3.142329e-001
4.501231e+003,3.052453e-001
4.505088e+003,3.014641e-001
4.508946e+003,3.060470e-001
4.512803e+003,3.065483e-001
4.516660e+003,3.050418e-001
4.520517e+003,3.049818e-001
4.524374e+003,3.060276e-001
4.528231e+003,3.027591e-001
4.532088e+003,3.071959e-001
4.535945e+003,3.099570e-001
4.539802e+003,3.084844e-001
4.543660e+003,3.056193e-001
4.547517e+003,3.063880e-001
4.551374e+003,3.058364e-001
4.555231e+003,3.044802e-001
4.559088e+003,3.045254e-001
4.562945e+003,3.043150e-001
4.566802e+003,3.077769e-001
4.570659e+003,3.039902e-001
4.574516e+003,2.995434e-001
4.578374e+003,3.040813e-001
4.582230e+003,3.075122e-001
4.586087e+003,3.034071e-001
4.589945e+003,3.049164e-001
4.593802e+003,3.091083e-001
4.597659e+003,3.039023e-001
4.601516e+003,2.997380e-001
4.605373e+003,2.974408e-001
4.609230e+003,3.024183e-001
4.613087e+003,3.046239e-001
4.616944e+003,3.053443e-001
4.620801e+003,3.047094e-001
4.624659e+003,3.017124e-001
4.628516e+003,3.040085e-001
4.632373e+003,3.043276e-001
4.636230e+003,2.967119e-001
4.640087e+003,2.974195e-001
4.643944e+003,3.060623e-001
4.647801e+003,3.090330e-001
4.651658e+003,3.090268e-001
4.655515e+003,3.090917e-001
4.659373e+003,3.078003e-001
4.663229e+003,3.030265e-001
4.667086e+003,3.032173e-001
4.670944e+003,3.114248e-001
4.674801e+003,3.123033e-001
4.678658e+003,3.048891e-001
4.682515e+003,3.036318e-001
4.686372e+003,3.095853e-001
4.690229e+003,3.163212e-001
4.694086e+003,3.153706e-001
4.697943e+003,3.132669e-001
4.701800e+003,3.136992e-001
4.705658e+003,3.115283e-001
4.709515e+003,3.048039e-001
4.713372e+003,3.038467e-001
4.717229e+003,3.140543e-001
4.721086e+003,3.161120e-001
4.724943e+003,3.122891e-001
4.728800e+003,3.103984e-001
4.732657e+003,3.084923e-001
4.736514e+003,3.046728e-001
4.740372e+003,3.044959e-001
4.744229e+003,3.077655e-001
4.748085e+003,3.058607e-001
4.751943e+003,3.053591e-001
4.755800e+003,3.068962e-001
4.759657e+003,3.104121e-001
4.763514e+003,3.200846e-001
4.767371e+003,3.243249e-001
4.771228e+003,3.191811e-001
4.775085e+003,3.148464e-001
4.778942e+003,3.123560e-001
4.782799e+003,3.102270e-001
4.786657e+003,3.144301e-001
4.790514e+003,3.147932e-001
4.794371e+003,3.114169e-001
4.798228e+003,3.112435e-001
4.802085e+003,3.121673e-001
4.805942e+003,3.183683e-001
4.809799e+003,3.147890e-001
4.813656e+003,3.108806e-001
4.817513e+003,3.094584e-001
4.821371e+003,3.080116e-001
4.825228e+003,3.119658e-001
4.829084e+003,3.118978e-001
4.832942e+003,3.115416e-001
4.836799e+003,3.177883e-001
4.840656e+003,3.217919e-001
4.844513e+003,3.238670e-001
4.848370e+003,3.243942e-001
4.852227e+003,3.241094e-001
4.856084e+003,3.200958e-001
4.859941e+003,3.158353e-001
4.863798e+003,3.127958e-001
4.867656e+003,3.156352e-001
4.871513e+003,3.167289e-001
4.875370e+003,3.142287e-001
4.879227e+003,3.159248e-001
4.883084e+003,3.152978e-001
4.886941e+003,3.157872e-001
4.890798e+003,3.161638e-001
4.894655e+003,3.193409e-001
4.898512e+003,3.276010e-001
4.902370e+003,3.287675e-001
4.906227e+003,3.233722e-001
4.910083e+003,3.235481e-001
4.913941e+003,3.283529e-001
4.917798e+003,3.294178e-001
4.921655e+003,3.278559e-001
4.925512e+003,3.275094e-001
4.929369e+003,3.264571e-001
4.933226e+003,3.254649e-001
4.937083e+003,3.293670e-001
4.940940e+003,3.300666e-001
4.944797e+003,3.263064e-001
4.948655e+003,3.223770e-001
4.952512e+003,3.206276e-001
4.956369e+003,3.180094e-001
4.960226e+003,3.233499e-001
4.964083e+003,3.256719e-001
4.967940e+003,3.202096e-001
4.971797e+003,3.232139e-001
4.975654e+003,3.296348e-001
4.979511e+003,3.291816e-001
4.983369e+003,3.297158e-001
4.987226e+003,3.286894e-001
4.991083e+003,3.247169e-001
4.994940e+003,3.295254e-001
4.998797e+003,3.301086e-001
5.002654e+003,3.215579e-001
5.006511e+003,3.233061e-001
5.010368e+003,3.294818e-001
5.014225e+003,3.331827e-001
5.018083e+003,3.385123e-001
5.021939e+003,3.423052e-001
5.025796e+003,3.412310e-001
5.029654e+003,3.392235e-001
5.033511e+003,3.389772e-001
5.037368e+003,3.345780e-001
5.041225e+003,3.319032e-001
5.045082e+003,3.309606e-001
5.048939e+003,3.321723e-001
5.052796e+003,3.364624e-001
5.056653e+003,3.365284e-001
5.060510e+003,3.325127e-001
5.064368e+003,3.256538e-001
5.068225e+003,3.239074e-001
5.072082e+003,3.334475e-001
5.075939e+003,3.441614e-001
5.079796e+003,3.403257e-001
5.083653e+003,3.366750e-001
5.087510e+003,3.388411e-001
5.091367e+003,3.374678e-001
5.095224e+003,3.346608e-001
5.099082e+003,3.434812e-001
5.102938e+003,3.511874e-001
5.106795e+003,3.432748e-001
5.110653e+003,3.360722e-001
5.114510e+003,3.427249e-001
5.118367e+003,3.467369e-001
5.122224e+003,3.433492e-001
5.126081e+003,3.452845e-001
5.129938e+003,3.384049e-001
5.133795e+003,3.292091e-001
5.137652e+003,3.261524e-001
5.141509e+003,3.263078e-001
5.145367e+003,3.350708e-001
5.149224e+003,3.426863e-001
5.153081e+003,3.446712e-001
5.156938e+003,3.465586e-001
5.160795e+003,3.438194e-001
5.164652e+003,3.436263e-001
5.168509e+003,3.478207e-001
5.172366e+003,3.523538e-001
5.176223e+003,3.526890e-001
5.180081e+003,3.486764e-001
5.183938e+003,3.468485e-001
5.187794e+003,3.501069e-001
5.191652e+003,3.562750e-001
5.195509e+003,3.569839e-001
5.199366e+003,3.453680e-001
5.203223e+003,3.422851e-001
5.207080e+003,3.471722e-001
5.210937e+003,3.468077e-001
5.214794e+003,3.451961e-001
5.218651e+003,3.429597e-001
5.222508e+003,3.460408e-001
5.226366e+003,3.476211e-001
5.230223e+003,3.468783e-001
5.234080e+003,3.456981e-001
5.237937e+003,3.485858e-001
5.241794e+003,3.442437e-001
5.245651e+003,3.348822e-001
5.249508e+003,3.360443e-001
5.253365e+003,3.419220e-001
5.257222e+003,3.451220e-001
5.261080e+003,3.462795e-001
5.264937e+003,3.448180e-001
5.268793e+003,3.447445e-001
5.272651e+003,3.475595e-001
5.276508e+003,3.438456e-001
5.280365e+003,3.419803e-001
5.284222e+003,3.459511e-001
5.288079e+003,3.460914e-001
5.291936e+003,3.434484e-001
5.295793e+003,3.411332e-001
5.299650e+003,3.404122e-001
5.303507e+003,3.285030e-001
5.307365e+003,3.297505e-001
5.311222e+003,3.434187e-001
5.315079e+003,3.489268e-001
5.318936e+003,3.418974e-001
5.322793e+003,3.357457e-001
5.326650e+003,3.412871e-001
5.330507e+003,3.440163e-001
5.334364e+003,3.420047e-001
5.338221e+003,3.433417e-001
5.342079e+003,3.507301e-001
5.345936e+003,3.561561e-001
5.349792e+003,3.568899e-001
5.353650e+003,3.541053e-001
5.357507e+003,3.507050e-001
5.361364e+003,3.428025e-001
5.365221e+003,3.413779e-001
5.369078e+003,3.416069e-001
5.372935e+003,3.467106e-001
5.376792e+003,3.503895e-001
5.380649e+003,3.453610e-001
5.384506e+003,3.423137e-001
5.388364e+003,3.456842e-001
5.392221e+003,3.465140e-001
5.396078e+003,3.400722e-001
5.399935e+003,3.330496e-001
5.403792e+003,3.367653e-001
5.407649e+003,3.415784e-001
5.411506e+003,3.421076e-001
5.415363e+003,3.516236e-001
5.419220e+003,3.525904e-001
5.423078e+003,3.504293e-001
5.426935e+003,3.475130e-001
5.430792e+003,3.450606e-001
5.434649e+003,3.462193e-001
5.438506e+003,3.441851e-001
5.442363e+003,3.433789e-001
5.446220e+003,3.489906e-001
5.450077e+003,3.501691e-001
5.453934e+003,3.457566e-001
5.457792e+003,3.405169e-001
5.461648e+003,3.414734e-001
5.465505e+003,3.461303e-001
5.469363e+003,3.439960e-001
5.473220e+003,3.445142e-001
5.477077e+003,3.429995e-001
5.480934e+003,3.378820e-001
5.484791e+003,3.350544e-001
5.488648e+003,3.366900e-001
5.492505e+003,3.399847e-001
5.496362e+003,3.442375e-001
5.500219e+003,3.535621e-001
5.504077e+003,3.549793e-001
5.507934e+003,3.471994e-001
5.511791e+003,3.506045e-001
5.515648e+003,3.523936e-001
5.519505e+003,3.507537e-001
5.523362e+003,3.517088e-001
5.527219e+003,3.458586e-001
5.531076e+003,3.443561e-001
5.534933e+003,3.547051e-001
5.538791e+003,3.568044e-001
5.542647e+003,3.452322e-001
5.546504e+003,3.398142e-001
5.550362e+003,3.452172e-001
5.554219e+003,3.440110e-001
5.558076e+003,3.440928e-001
5.561933e+003,3.434199e-001
5.565790e+003,3.418788e-001
5.569647e+003,3.406508e-001
5.573504e+003,3.358326e-001
5.577361e+003,3.380472e-001
5.581218e+003,3.465218e-001
5.585076e+003,3.539684e-001
5.588933e+003,3.592724e-001
5.592790e+003,3.599673e-001
5.596647e+003,3.453566e-001
5.600504e+003,3.469712e-001
5.604361e+003,3.588810e-001
5.608218e+003,3.525420e-001
5.612075e+003,3.477859e-001
5.615932e+003,3.535352e-001
5.619790e+003,3.544805e-001
5.623646e+003,3.442175e-001
5.627503e+003,3.373169e-001
5.631361e+003,3.381716e-001
5.635218e+003,3.373960e-001
5.639075e+003,3.412567e-001
5.642932e+003,3.411579e-001
5.646789e+003,3.385088e-001
5.650646e+003,3.337360e-001
5.654503e+003,3.365822e-001
5.658360e+003,3.479745e-001
5.662217e+003,3.432686e-001
5.666075e+003,3.424248e-001
5.669932e+003,3.411682e-001
5.673789e+003,3.481825e-001
5.677646e+003,3.533946e-001
5.681503e+003,3.544010e-001
5.685360e+003,3.584824e-001
5.689217e+003,3.546205e-001
5.693074e+003,3.472601e-001
5.696931e+003,3.452670e-001
5.700789e+003,3.460792e-001
5.704646e+003,3.455180e-001
5.708502e+003,3.410442e-001
5.712360e+003,3.398390e-001
5.716217e+003,3.459923e-001
5.720074e+003,3.480664e-001
5.723931e+003,3.482345e-001
5.727788e+003,3.413449e-001
5.731645e+003,3.426625e-001
5.735502e+003,3.446346e-001
5.739359e+003,3.425713e-001
5.743216e+003,3.389765e-001
5.747074e+003,3.478332e-001
5.750931e+003,3.562980e-001
5.754788e+003,3.473195e-001
5.758645e+003,3.477511e-001
5.762502e+003,3.528130e-001
5.766359e+003,3.545591e-001
5.770216e+003,3.557470e-001
5.774073e+003,3.532501e-001
5.777930e+003,3.575660e-001
5.781788e+003,3.618758e-001
5.785645e+003,3.538615e-001
5.789501e+003,3.476388e-001
5.793359e+003,3.395190e-001
5.797216e+003,3.389123e-001
5.801073e+003,3.402598e-001
5.804930e+003,3.377947e-001
5.808787e+003,3.355532e-001
5.812644e+003,3.432614e-001
5.816501e+003,3.562613e-001
5.820358e+003,3.592487e-001
5.824215e+003,3.475057e-001
5.828073e+003,3.403283e-001
5.831930e+003,3.464257e-001
5.835787e+003,3.452677e-001
5.839644e+003,3.481627e-001
5.843501e+003,3.458400e-001
5.847358e+003,3.469831e-001
5.851215e+003,3.569399e-001
5.855072e+003,3.602192e-001
5.858929e+003,3.499494e-001
5.862787e+003,3.418051e-001
5.866644e+003,3.415420e-001
5.870500e+003,3.379190e-001
5.874358e+003,3.434967e-001
5.878215e+003,3.482986e-001
5.882072e+003,3.498693e-001
5.885929e+003,3.520731e-001
5.889786e+003,3.478111e-001
5.893643e+003,3.451958e-001
5.897500e+003,3.408404e-001
5.901357e+003,3.339891e-001
5.905214e+003,3.366052e-001
5.909072e+003,3.497333e-001
5.912929e+003,3.438102e-001
5.916786e+003,3.302133e-001
5.920643e+003,3.318896e-001
5.924500e+003,3.511366e-001
5.928357e+003,3.609430e-001
5.932214e+003,3.492555e-001
5.936071e+003,3.424360e-001
5.939928e+003,3.452352e-001
5.943786e+003,3.424471e-001
5.947643e+003,3.362724e-001
5.951500e+003,3.371668e-001
5.955357e+003,3.472438e-001
5.959214e+003,3.424400e-001
5.963071e+003,3.278632e-001
5.966928e+003,3.291252e-001
5.970785e+003,3.383319e-001
5.974642e+003,3.404208e-001
5.978500e+003,3.344997e-001
5.982356e+003,3.335932e-001
5.986213e+003,3.360180e-001
5.990071e+003,3.390037e-001
5.993928e+003,3.436628e-001
5.997785e+003,3.386620e-001
6.001642e+003,3.424874e-001
6.005499e+003,3.353190e-001
6.009356e+003,3.382916e-001
6.013213e+003,3.443974e-001
6.017070e+003,3.461862e-001
6.020927e+003,3.466894e-001
6.024785e+003,3.428464e-001
6.028642e+003,3.435929e-001
6.032499e+003,3.556575e-001
6.036356e+003,3.567514e-001
6.040213e+003,3.430142e-001
6.044070e+003,3.296241e-001
6.047927e+003,3.339090e-001
6.051784e+003,3.370719e-001
6.055641e+003,3.356685e-001
6.059499e+003,3.399845e-001
6.063355e+003,3.440020e-001
6.067212e+003,3.328278e-001
6.071070e+003,3.281663e-001
6.074927e+003,3.455873e-001
6.078784e+003,3.539691e-001
6.082641e+003,3.445147e-001
6.086498e+003,3.420409e-001
6.090355e+003,3.479376e-001
6.094212e+003,3.493772e-001
6.098069e+003,3.510796e-001
6.101926e+003,3.460700e-001
6.105784e+003,3.319634e-001
6.109641e+003,3.341441e-001
6.113498e+003,3.446492e-001
6.117355e+003,3.484065e-001
6.121212e+003,3.540609e-001
6.125069e+003,3.488109e-001
6.128926e+003,3.287351e-001
6.132783e+003,3.256635e-001
6.136640e+003,3.310641e-001
6.140498e+003,3.394645e-001
6.144354e+003,3.431221e-001
6.148211e+003,3.334890e-001
6.152069e+003,3.297389e-001
6.155926e+003,3.395723e-001
6.159783e+003,3.394767e-001
6.163640e+003,3.390857e-001
6.167497e+003,3.338754e-001
6.171354e+003,3.278312e-001
6.175211e+003,3.259369e-001
6.179068e+003,3.222815e-001
6.182925e+003,3.272795e-001
6.186783e+003,3.194907e-001
6.190640e+003,3.185580e-001
6.194497e+003,3.286784e-001
6.198354e+003,3.234986e-001
6.202211e+003,3.249427e-001
6.206068e+003,3.353262e-001
6.209925e+003,3.323555e-001
6.213782e+003,3.252896e-001
6.217639e+003,3.330545e-001
6.221497e+003,3.254423e-001
6.225354e+003,3.191750e-001
6.229210e+003,3.329922e-001
6.233068e+003,3.353560e-001
6.236925e+003,3.359101e-001
6.240782e+003,3.324112e-001
6.244639e+003,3.371360e-001
6.248496e+003,3.420673e-001
6.252353e+003,3.438909e-001
6.256210e+003,3.449014e-001
6.260067e+003,3.445341e-001
6.263924e+003,3.451746e-001
6.267782e+003,3.336853e-001
6.271639e+003,3.283936e-001
6.275496e+003,3.220344e-001
6.279353e+003,3.269400e-001
6.283210e+003,3.333333e-001
6.287067e+003,3.311211e-001
6.290924e+003,3.241482e-001
6.294781e+003,3.171472e-001
6.298638e+003,3.283955e-001
6.302496e+003,3.386385e-001
6.306353e+003,3.361531e-001
6.310209e+003,3.318680e-001
6.314067e+003,3.418375e-001
6.317924e+003,3.372083e-001
6.321781e+003,3.365594e-001
6.325638e+003,3.329901e-001
6.329495e+003,3.243310e-001
6.333352e+003,3.218463e-001
6.337209e+003,3.298630e-001
6.341066e+003,3.348172e-001
6.344923e+003,3.338798e-001
6.348780e+003,3.377866e-001
6.352638e+003,3.329162e-001
6.356495e+003,3.317948e-001
6.360352e+003,3.382578e-001
6.364209e+003,3.378669e-001
6.368066e+003,3.253548e-001
6.371923e+003,3.194515e-001
6.375780e+003,3.092182e-001
6.379637e+003,2.997493e-001
6.383494e+003,3.043114e-001
6.387352e+003,3.199376e-001
6.391208e+003,3.267736e-001
6.395065e+003,3.167433e-001
6.398923e+003,3.137373e-001
6.402780e+003,3.195726e-001
6.406637e+003,3.225140e-001
6.410494e+003,3.241897e-001
6.414351e+003,3.151623e-001
6.418208e+003,3.123052e-001
6.422065e+003,3.230256e-001
6.425922e+003,3.334210e-001
6.429779e+003,3.303944e-001
6.433637e+003,3.286408e-001
6.437494e+003,3.268948e-001
6.441351e+003,3.168997e-001
6.445208e+003,3.118811e-001
6.449065e+003,3.138222e-001
6.452922e+003,3.264348e-001
6.456779e+003,3.344229e-001
6.460636e+003,3.270042e-001
6.464493e+003,3.130850e-001
6.468351e+003,3.190824e-001
6.472208e+003,3.322952e-001
6.476064e+003,3.377671e-001
6.479922e+003,3.330573e-001
6.483779e+003,3.108773e-001
6.487636e+003,2.984275e-001
6.491493e+003,3.108777e-001
6.495350e+003,3.158239e-001
6.499207e+003,3.176837e-001
6.503064e+003,3.105643e-001
6.506921e+003,3.126740e-001
6.510778e+003,3.162104e-001
6.514636e+003,3.069890e-001
6.518493e+003,2.955866e-001
6.522350e+003,3.070400e-001
6.526207e+003,3.243045e-001
6.530064e+003,3.271976e-001
6.533921e+003,3.263431e-001
6.537778e+003,3.289839e-001
6.541635e+003,3.223867e-001
6.545492e+003,3.200907e-001
6.549350e+003,3.205032e-001
6.553207e+003,3.189995e-001
6.557063e+003,3.218997e-001
6.560921e+003,3.179723e-001
6.564778e+003,3.148330e-001
6.568635e+003,3.133119e-001
6.572492e+003,3.145796e-001
6.576349e+003,3.091900e-001
6.580206e+003,3.081581e-001
6.584063e+003,3.031023e-001
6.587920e+003,3.114579e-001
6.591777e+003,3.164622e-001
6.595635e+003,3.224741e-001
6.599492e+003,3.326891e-001
6.603349e+003,3.343688e-001
6.607206e+003,3.162101e-001
6.611063e+003,3.039963e-001
6.614920e+003,3.073642e-001
6.618777e+003,3.114083e-001
6.622634e+003,3.071975e-001
6.626491e+003,3.214639e-001
6.630349e+003,3.127513e-001
6.634206e+003,3.007072e-001
6.638063e+003,3.055143e-001
6.641920e+003,3.041303e-001
6.645777e+003,3.128952e-001
6.649634e+003,3.133524e-001
6.653491e+003,3.139829e-001
6.657348e+003,3.276777e-001
6.661205e+003,3.265729e-001
6.665063e+003,3.153008e-001
6.668919e+003,3.063090e-001
6.672776e+003,3.009049e-001
6.676634e+003,3.001780e-001
6.680491e+003,3.105517e-001
6.684348e+003,3.183980e-001
6.688205e+003,3.253952e-001
6.692062e+003,3.304183e-001
6.695919e+003,3.235900e-001
6.699776e+003,3.238060e-001
6.703633e+003,3.281924e-001
6.707490e+003,3.223791e-001
6.711348e+003,3.225592e-001
6.715205e+003,3.229854e-001
6.719062e+003,3.217124e-001
6.722919e+003,3.231799e-001
6.726776e+003,3.041049e-001
6.730633e+003,2.776428e-001
6.734490e+003,2.750591e-001
6.738347e+003,2.853197e-001
6.742204e+003,2.876361e-001
6.746062e+003,2.900740e-001
6.749918e+003,3.111599e-001
6.753775e+003,3.183120e-001
6.757633e+003,2.997684e-001
6.761490e+003,3.125814e-001
6.765347e+003,3.307352e-001
6.769204e+003,3.225054e-001
6.773061e+003,2.998121e-001
6.776918e+003,3.027939e-001
6.780775e+003,3.026533e-001
6.784632e+003,2.987570e-001
6.788489e+003,3.005791e-001
6.792347e+003,3.125822e-001
6.796204e+003,3.166112e-001
6.800061e+003,3.082310e-001
6.803918e+003,2.960778e-001
6.807775e+003,2.910971e-001
6.811632e+003,3.012135e-001
6.815489e+003,3.012398e-001
6.819346e+003,3.023244e-001
6.823203e+003,3.063740e-001
6.827061e+003,3.045093e-001
6.830917e+003,2.998403e-001
6.834774e+003,3.052073e-001
6.838632e+003,2.975009e-001
6.842489e+003,3.000036e-001
6.846346e+003,3.022605e-001
6.850203e+003,3.109039e-001
6.854060e+003,3.264339e-001
6.857917e+003,3.222608e-001
6.861774e+003,3.021719e-001
6.865631e+003,2.966980e-001
6.869488e+003,3.231852e-001
6.873346e+003,3.249688e-001
6.877203e+003,3.125218e-001
6.881060e+003,2.978502e-001
6.884917e+003,2.867070e-001
6.888774e+003,2.923012e-001
6.892631e+003,2.997448e-001
6.896488e+003,2.930324e-001
6.900345e+003,2.926494e-001
6.904202e+003,3.031060e-001
6.908060e+003,2.979883e-001
6.911917e+003,3.074402e-001
6.915773e+003,3.228921e-001
6.919631e+003,3.060650e-001
6.923488e+003,3.062726e-001
6.927345e+003,3.063964e-001
6.931202e+003,2.971936e-001
6.935059e+003,3.023400e-001
6.938916e+003,2.930166e-001
6.942773e+003,2.929716e-001
6.946630e+003,3.086072e-001
6.950487e+003,3.162918e-001
6.954345e+003,3.159043e-001
6.958202e+003,3.169398e-001
6.962059e+003,3.141102e-001
6.965916e+003,2.978587e-001
6.969773e+003,2.837945e-001
6.973630e+003,2.901748e-001
6.977487e+003,2.963611e-001
6.981344e+003,2.874767e-001
6.985201e+003,3.016711e-001
6.989059e+003,3.007912e-001
6.992916e+003,2.921684e-001
6.996772e+003,2.938186e-001
7.000630e+003,2.990771e-001
7.004487e+003,3.285630e-001
7.008344e+003,3.368480e-001
7.012201e+003,3.081196e-001
7.016058e+003,3.088500e-001
7.019915e+003,3.168771e-001
7.023772e+003,3.447226e-001
7.027629e+003,3.621494e-001
7.031486e+003,3.515576e-001
7.035344e+003,2.964414e-001
7.039201e+003,2.594528e-001
7.043058e+003,2.781437e-001
7.046915e+003,3.203430e-001
7.050772e+003,3.395171e-001
7.054629e+003,3.170704e-001
7.058486e+003,2.869808e-001
7.062343e+003,2.908227e-001
7.066200e+003,2.974916e-001
7.070058e+003,3.157507e-001
7.073915e+003,3.128764e-001
7.077771e+003,3.209702e-001
7.081629e+003,3.194827e-001
7.085486e+003,3.047755e-001
7.089343e+003,3.125460e-001
7.093200e+003,3.234864e-001
7.097057e+003,3.101510e-001
7.100914e+003,3.185097e-001
7.104771e+003,3.174004e-001
7.108628e+003,3.009737e-001
7.112485e+003,3.083313e-001
7.116343e+003,3.226367e-001
7.120200e+003,3.091072e-001
7.124057e+003,2.888336e-001
7.127914e+003,2.719709e-001
7.131771e+003,2.696733e-001
7.135628e+003,2.794580e-001
7.139485e+003,2.675978e-001
7.143342e+003,2.672859e-001
7.147199e+003,2.767433e-001
7.151057e+003,2.584626e-001
7.154914e+003,2.723943e-001
7.158771e+003,3.082417e-001
7.162628e+003,3.197167e-001
7.166485e+003,3.147712e-001
7.170342e+003,3.065629e-001
7.174199e+003,3.167518e-001
7.178056e+003,3.300801e-001
7.181913e+003,3.464556e-001
7.185771e+003,3.383423e-001
7.189627e+003,2.943237e-001
7.193484e+003,2.667479e-001
7.197342e+003,2.991500e-001
7.201199e+003,3.370356e-001
7.205056e+003,3.351962e-001
7.208913e+003,3.165055e-001
7.212770e+003,3.098818e-001
7.216627e+003,3.271683e-001
7.220484e+003,3.412114e-001
7.224341e+003,3.235351e-001
7.228198e+003,2.981216e-001
7.232056e+003,2.867342e-001
7.235913e+003,2.902511e-001
7.239770e+003,3.007013e-001
7.243627e+003,2.854646e-001
7.247484e+003,2.711969e-001
7.251341e+003,2.697408e-001
7.255198e+003,2.704757e-001
7.259055e+003,2.883754e-001
7.262912e+003,2.968346e-001
7.266770e+003,3.073652e-001
7.270626e+003,3.015652e-001
7.274483e+003,3.035493e-001
7.278341e+003,2.894741e-001
7.282198e+003,2.905268e-001
7.286055e+003,3.117894e-001
7.289912e+003,3.051285e-001
7.293769e+003,2.811469e-001
7.297626e+003,2.730800e-001
7.301483e+003,2.820408e-001
7.305340e+003,2.783252e-001
7.309197e+003,2.573458e-001
7.313055e+003,2.516873e-001
7.316912e+003,2.700897e-001
7.320769e+003,2.813002e-001
7.324626e+003,3.018128e-001
7.328483e+003,3.201773e-001
7.332340e+003,3.277017e-001
7.336197e+003,3.166487e-001
7.340054e+003,3.291143e-001
7.343911e+003,3.013104e-001
7.347769e+003,2.920575e-001
7.351625e+003,3.117060e-001
7.355482e+003,3.282028e-001
7.359340e+003,3.129345e-001
7.363197e+003,2.955759e-001
7.367054e+003,2.881515e-001
7.370911e+003,2.934208e-001
7.374768e+003,2.671405e-001
7.378625e+003,2.770774e-001
7.382482e+003,2.682523e-001
7.386339e+003,2.416827e-001
7.390196e+003,2.663295e-001
7.394054e+003,2.943599e-001
7.397911e+003,2.880413e-001
7.401768e+003,2.499455e-001
7.405625e+003,2.529699e-001
7.409482e+003,2.879972e-001
7.413339e+003,3.037958e-001
7.417196e+003,2.670428e-001
7.421053e+003,2.632179e-001
7.424910e+003,2.951549e-001
7.428768e+003,3.251816e-001
7.432625e+003,3.102049e-001
7.436481e+003,2.728989e-001
7.440339e+003,2.862165e-001
7.444196e+003,3.106505e-001
7.448053e+003,2.945018e-001
7.451910e+003,2.977305e-001
7.455767e+003,3.038392e-001
7.459624e+003,3.429700e-001
7.463481e+003,3.761846e-001
7.467338e+003,3.621070e-001
7.471195e+003,2.821810e-001
7.475053e+003,2.478714e-001
7.478910e+003,2.547369e-001
7.482767e+003,2.610996e-001
7.486624e+003,2.714255e-001
7.490481e+003,2.880186e-001
7.494338e+003,3.245004e-001
7.498195e+003,3.567596e-001
7.502052e+003,3.202729e-001
7.505909e+003,2.965603e-001
7.509767e+003,2.820802e-001
7.513624e+003,2.802427e-001
7.517480e+003,2.923269e-001
7.521338e+003,2.815993e-001
7.525195e+003,2.676410e-001
7.529052e+003,2.838570e-001
7.532909e+003,2.900021e-001
7.536766e+003,2.683711e-001
7.540623e+003,2.274510e-001
7.544480e+003,2.535182e-001
7.548337e+003,2.696930e-001
7.552194e+003,2.521092e-001
7.556052e+003,2.815448e-001
7.559909e+003,3.284470e-001
7.563766e+003,3.208789e-001
7.567623e+003,2.909860e-001
7.571480e+003,3.074478e-001
7.575337e+003,3.102379e-001
7.579194e+003,2.700427e-001
7.583051e+003,2.314037e-001
7.586908e+003,2.595293e-001
7.590766e+003,2.950934e-001
7.594623e+003,3.124608e-001
7.598479e+003,3.297153e-001
7.602337e+003,3.234060e-001
7.606194e+003,2.732472e-001
7.610051e+003,2.273694e-001
7.613908e+003,2.214562e-001
7.617765e+003,2.290816e-001
7.621622e+003,2.364580e-001
7.625479e+003,2.052142e-001
7.629336e+003,2.408178e-001
7.633193e+003,2.551777e-001
7.637051e+003,2.330266e-001
7.640908e+003,2.788476e-001
7.644765e+003,2.975135e-001
7.648622e+003,3.128926e-001
7.652479e+003,3.257407e-001
7.656336e+003,2.682403e-001
7.660193e+003,2.179735e-001
7.664050e+003,1.977617e-001
7.667907e+003,2.116056e-001
7.671765e+003,2.402379e-001
7.675622e+003,2.991546e-001
7.679479e+003,3.483782e-001
7.683336e+003,2.752512e-001
7.687193e+003,2.561424e-001
7.691050e+003,2.547942e-001
7.694907e+003,2.561583e-001
7.698764e+003,2.207118e-001
7.702621e+003,2.271291e-001
7.706479e+003,2.619186e-001
7.710335e+003,2.584984e-001
7.714192e+003,3.223779e-001
7.718050e+003,3.711913e-001
7.721907e+003,2.948005e-001
7.725764e+003,2.098881e-001
7.729621e+003,2.388875e-001
7.733478e+003,3.193252e-001
7.737335e+003,2.438634e-001
7.741192e+003,1.986288e-001
7.745049e+003,2.385237e-001
7.748906e+003,2.804913e-001
7.752764e+003,3.269638e-001
7.756621e+003,3.080007e-001
7.760478e+003,2.830191e-001
7.764335e+003,2.860726e-001
7.768192e+003,2.810013e-001
7.772049e+003,3.046911e-001
7.775906e+003,2.505260e-001
7.779763e+003,2.310641e-001
7.783620e+003,3.098479e-001
7.787478e+003,3.123719e-001
7.791334e+003,2.310646e-001
7.795191e+003,1.597947e-001
7.799049e+003,1.409775e-001
7.802906e+003,1.450651e-001
7.806763e+003,1.663780e-001
7.810620e+003,2.234242e-001
7.814477e+003,2.706231e-001
7.818334e+003,2.632010e-001
7.822191e+003,2.669103e-001
7.826048e+003,2.683844e-001
7.829905e+003,2.779686e-001
7.833763e+003,2.669009e-001
7.837620e+003,2.933242e-001
7.841477e+003,3.295138e-001
7.845334e+003,2.870004e-001
7.849191e+003,2.675159e-001
7.853048e+003,2.690782e-001
7.856905e+003,3.490875e-001
7.860762e+003,4.579374e-001
7.864619e+003,3.546374e-001
7.868477e+003,2.852357e-001
7.872333e+003,2.618485e-001
7.876190e+003,2.367575e-001
7.880048e+003,2.991462e-001
7.883905e+003,3.467728e-001
7.887762e+003,2.807018e-001
7.891619e+003,2.274678e-001
7.895476e+003,2.160107e-001
7.899333e+003,2.519317e-001
7.903190e+003,3.646861e-001
7.907047e+003,3.853629e-001
7.910904e+003,3.777809e-001
7.914762e+003,3.605827e-001
7.918619e+003,3.869936e-001
7.922476e+003,4.282550e-001
7.926333e+003,3.738635e-001
7.930190e+003,2.966239e-001
7.934047e+003,2.302030e-001
7.937904e+003,2.235106e-001
7.941761e+003,2.654915e-001
7.945618e+003,3.419799e-001
7.949476e+003,3.562427e-001
7.953333e+003,3.002894e-001
7.957189e+003,2.928042e-001
7.961047e+003,3.324168e-001
7.964904e+003,4.083565e-001
7.968761e+003,3.750608e-001
7.972618e+003,3.543162e-001
7.976475e+003,4.005022e-001
7.980332e+003,3.637701e-001
7.984189e+003,3.161819e-001
7.988046e+003,3.930964e-001
7.991903e+003,3.971269e-001
7.995761e+003,3.311948e-001
7.999618e+003,3.663852e-001
