4.011380e+002,6.000000e+000
4.049951e+002,6.000000e+000
4.088522e+002,6.000000e+000
4.127093e+002,6.000000e+000
4.165664e+002,-4.595301e-001
4.204235e+002,6.000000e+000
4.242806e+002,6.000000e+000
4.281377e+002,6.000000e+000
4.319948e+002,-1.333408e-002
4.358519e+002,2.866716e-001
4.397090e+002,6.000000e+000
4.435661e+002,6.000000e+000
4.474232e+002,-1.300534e-001
4.512803e+002,6.000000e+000
4.551374e+002,6.000000e+000
4.589945e+002,8.197112e-001
4.628516e+002,9.847850e-001
4.667087e+002,2.752380e+000
4.705658e+002,4.059619e-001
4.744229e+002,6.000000e+000
4.782800e+002,-4.714377e-002
4.821371e+002,-2.598222e-001
4.859941e+002,6.000000e+000
4.898513e+002,6.000000e+000
4.937083e+002,5.781345e-001
4.975654e+002,9.091163e-001
5.014225e+002,-4.836186e-001
5.052796e+002,6.000000e+000
5.091367e+002,6.000000e+000
5.129938e+002,6.000000e+000
5.168509e+002,6.000000e+000
5.207080e+002,6.000000e+000
5.245651e+002,2.030310e+000
5.284222e+002,3.625827e-002
5.322793e+002,2.106512e-001
5.361364e+002,6.000000e+000
5.399935e+002,6.000000e+000
5.438506e+002,6.307629e-001
5.477077e+002,-5.914870e-002
5.515648e+002,6.000000e+000
5.554219e+002,3.611660e-001
5.592790e+002,-4.596038e-001
5.631361e+002,6.000000e+000
5.669932e+002,7.645814e-002
5.708503e+002,6.836303e-002
5.747074e+002,6.000000e+000
5.785645e+002,6.000000e+000
5.824216e+002,6.000000e+000
5.862787e+002,1.112793e+000
5.901357e+002,2.006758e-001
5.939929e+002,6.000000e+000
5.978499e+002,6.000000e+000
6.017070e+002,6.000000e+000
6.055641e+002,6.000000e+000
6.094212e+002,6.000000e+000
6.132783e+002,6.000000e+000
6.171354e+002,6.000000e+000
6.209925e+002,6.000000e+000
6.248496e+002,2.608629e-001
6.287067e+002,-6.873254e-001
6.325638e+002,6.000000e+000
6.364209e+002,6.000000e+000
6.402780e+002,8.929183e-002
6.441351e+002,-5.242201e-002
6.479922e+002,9.572405e-001
6.518493e+002,6.000000e+000
6.557064e+002,-6.436729e-001
6.595635e+002,6.000000e+000
6.634205e+002,6.000000e+000
6.672777e+002,-1.275126e+000
6.711348e+002,2.497612e-001
6.749918e+002,6.000000e+000
6.788490e+002,6.000000e+000
6.827061e+002,-5.170505e-001
6.865631e+002,6.000000e+000
6.904203e+002,1.220428e+000
6.942773e+002,-3.725073e-002
6.981344e+002,6.000000e+000
7.019916e+002,6.000000e+000
7.058486e+002,6.000000e+000
7.097057e+002,6.000000e+000
7.135629e+002,-6.710988e-001
7.174199e+002,-3.007841e-001
7.212770e+002,9.321879e-002
7.251342e+002,2.754215e-001
7.289912e+002,6.000000e+000
7.328483e+002,9.373930e-002
7.367054e+002,6.000000e+000
7.405625e+002,6.000000e+000
7.444196e+002,6.000000e+000
7.482767e+002,6.000000e+000
7.521338e+002,6.000000e+000
7.559908e+002,1.236301e+000
7.598480e+002,6.000000e+000
7.637051e+002,1.244835e+000
7.675621e+002,6.000000e+000
7.714193e+002,3.098396e-001
7.752764e+002,6.000000e+000
7.791334e+002,2.657179e-001
7.829905e+002,1.379681e+000
7.868477e+002,-6.353744e-001
7.907047e+002,6.000000e+000
7.945618e+002,6.000000e+000
7.984189e+002,2.186871e-001
8.022760e+002,6.000000e+000
8.061331e+002,8.399528e-001
8.099902e+002,-7.519139e-002
8.138473e+002,-3.819798e-001
8.177044e+002,-3.652118e-002
8.215615e+002,-1.394742e-001
8.254186e+002,2.059684e-001
8.292757e+002,6.000000e+000
8.331328e+002,6.000000e+000
8.369899e+002,6.000000e+000
8.408470e+002,1.751041e+000
8.447041e+002,8.896767e-001
8.485612e+002,8.890413e-001
8.524183e+002,1.569688e+000
8.562754e+002,1.875481e+000
8.601324e+002,6.000000e+000
8.639896e+002,6.000000e+000
8.678467e+002,1.347018e+000
8.717037e+002,9.605120e-001
8.755609e+002,8.733446e-001
8.794180e+002,1.045566e+000
8.832750e+002,6.000000e+000
8.871321e+002,6.000000e+000
8.909893e+002,6.000000e+000
8.948463e+002,1.512258e+000
8.987034e+002,1.286376e+000
9.025605e+002,1.935719e+000
9.064176e+002,1.966476e+000
9.102747e+002,1.202779e+000
9.141318e+002,1.201572e+000
9.179889e+002,1.871688e+000
9.218461e+002,6.000000e+000
9.257031e+002,1.928286e+000
9.295602e+002,2.662440e+000
9.334174e+002,1.948518e+000
9.372744e+002,1.362667e+000
9.411315e+002,1.347674e+000
9.449886e+002,1.532360e+000
9.488457e+002,6.000000e+000
9.527028e+002,6.000000e+000
9.565599e+002,6.000000e+000
9.604170e+002,2.434396e+000
9.642740e+002,6.000000e+000
9.681312e+002,2.574263e+000
9.719883e+002,1.667340e+000
9.758453e+002,1.419532e+000
9.797025e+002,1.662382e+000
9.835596e+002,2.112828e+000
9.874166e+002,1.788174e+000
9.912738e+002,2.005159e+000
9.951309e+002,2.037629e+000
9.989879e+002,1.948221e+000
1.002845e+003,1.756435e+000
1.006702e+003,1.440437e+000
1.010559e+003,1.669151e+000
1.014416e+003,2.765487e+000
1.018273e+003,1.881897e+000
1.022130e+003,1.611651e+000
1.025988e+003,1.574351e+000
1.029845e+003,1.629856e+000
1.033702e+003,1.626610e+000
1.037559e+003,1.651986e+000
1.041416e+003,1.654251e+000
1.045273e+003,1.572402e+000
1.049130e+003,1.559005e+000
1.052987e+003,1.651309e+000
1.056844e+003,1.712509e+000
1.060702e+003,1.695975e+000
1.064559e+003,1.530488e+000
1.068416e+003,1.463033e+000
1.072273e+003,1.445269e+000
1.076130e+003,1.449177e+000
1.079987e+003,1.537507e+000
1.083844e+003,1.612014e+000
1.087701e+003,1.497639e+000
1.091558e+003,1.439348e+000
1.095415e+003,1.376365e+000
1.099272e+003,1.383229e+000
1.103130e+003,1.492694e+000
1.106987e+003,1.530854e+000
1.110844e+003,1.494589e+000
1.114701e+003,1.466701e+000
1.118558e+003,1.365265e+000
1.122415e+003,1.345421e+000
1.126272e+003,1.346620e+000
1.130129e+003,1.331063e+000
1.133986e+003,1.324817e+000
1.137843e+003,1.331571e+000
1.141701e+003,1.354851e+000
1.145558e+003,1.305269e+000
1.149415e+003,1.279754e+000
1.153272e+003,1.264015e+000
1.157129e+003,1.229110e+000
1.160986e+003,1.223188e+000
1.164843e+003,1.259148e+000
1.168700e+003,1.314777e+000
1.172557e+003,1.303601e+000
1.176414e+003,1.263167e+000
1.180271e+003,1.228719e+000
1.184129e+003,1.204160e+000
1.187986e+003,1.205514e+000
1.191843e+003,1.225449e+000
1.195700e+003,1.220037e+000
1.199557e+003,1.183041e+000
1.203414e+003,1.129174e+000
1.207271e+003,1.072983e+000
1.211128e+003,9.826673e-001
1.214985e+003,9.220250e-001
1.218842e+003,8.708493e-001
1.222699e+003,8.199223e-001
1.226557e+003,7.764423e-001
1.230414e+003,7.186465e-001
1.234271e+003,6.687147e-001
1.238128e+003,6.335977e-001
1.241985e+003,6.057521e-001
1.245842e+003,5.755374e-001
1.249699e+003,5.444811e-001
1.253556e+003,5.161263e-001
1.257413e+003,4.909998e-001
1.261271e+003,4.779390e-001
1.265128e+003,4.636344e-001
1.268985e+003,4.478444e-001
1.272842e+003,4.363990e-001
1.276699e+003,4.294185e-001
1.280556e+003,4.196173e-001
1.284413e+003,4.101520e-001
1.288270e+003,3.969891e-001
1.292127e+003,3.830085e-001
1.295984e+003,3.764403e-001
1.299841e+003,3.721271e-001
1.303698e+003,3.607567e-001
1.307556e+003,3.516864e-001
1.311413e+003,3.442516e-001
1.315270e+003,3.329214e-001
1.319127e+003,3.269445e-001
1.322984e+003,3.257736e-001
1.326841e+003,3.214698e-001
1.330698e+003,3.154826e-001
1.334555e+003,3.118659e-001
1.338412e+003,3.110077e-001
1.342270e+003,3.083581e-001
1.346127e+003,3.036866e-001
1.349984e+003,3.029753e-001
1.353841e+003,3.045392e-001
1.357698e+003,3.073434e-001
1.361555e+003,3.085764e-001
1.365412e+003,3.108084e-001
1.369269e+003,3.159946e-001
1.373126e+003,3.212466e-001
1.376983e+003,3.274966e-001
1.380840e+003,3.381157e-001
1.384698e+003,3.460163e-001
1.388555e+003,3.500360e-001
1.392412e+003,3.593135e-001
1.396269e+003,3.714906e-001
1.400126e+003,3.859144e-001
1.403983e+003,4.020970e-001
1.407840e+003,4.144918e-001
1.411697e+003,4.226234e-001
1.415554e+003,4.339301e-001
1.419411e+003,4.453930e-001
1.423269e+003,4.569377e-001
1.427126e+003,4.630984e-001
1.430983e+003,4.635743e-001
1.434840e+003,4.638653e-001
1.438697e+003,4.653612e-001
1.442554e+003,4.628870e-001
1.446411e+003,4.546539e-001
1.450268e+003,4.467556e-001
1.454125e+003,4.383416e-001
1.457982e+003,4.348021e-001
1.461839e+003,4.286234e-001
1.465697e+003,4.174984e-001
1.469554e+003,4.120844e-001
1.473411e+003,4.192708e-001
1.477268e+003,4.264641e-001
1.481125e+003,4.253157e-001
1.484982e+003,4.294651e-001
1.488839e+003,4.399300e-001
1.492696e+003,4.465183e-001
1.496553e+003,4.537868e-001
1.500411e+003,4.640158e-001
1.504268e+003,4.750493e-001
1.508125e+003,4.786452e-001
1.511982e+003,4.787648e-001
1.515839e+003,4.716625e-001
1.519696e+003,4.645661e-001
1.523553e+003,4.613979e-001
1.527410e+003,4.526942e-001
1.531267e+003,4.380391e-001
1.535124e+003,4.293595e-001
1.538981e+003,4.196685e-001
1.542839e+003,4.113052e-001
1.546696e+003,4.030326e-001
1.550553e+003,3.881855e-001
1.554410e+003,3.769554e-001
1.558267e+003,3.683815e-001
1.562124e+003,3.602750e-001
1.565981e+003,3.518794e-001
1.569838e+003,3.447400e-001
1.573695e+003,3.406761e-001
1.577552e+003,3.382381e-001
1.581410e+003,3.347640e-001
1.585267e+003,3.363136e-001
1.589124e+003,3.379706e-001
1.592981e+003,3.407808e-001
1.596838e+003,3.478674e-001
1.600695e+003,3.554702e-001
1.604552e+003,3.662798e-001
1.608409e+003,3.832094e-001
1.612266e+003,4.038841e-001
1.616123e+003,4.246300e-001
1.619980e+003,4.429294e-001
1.623838e+003,4.589305e-001
1.627695e+003,4.739256e-001
1.631552e+003,4.881747e-001
1.635409e+003,5.008686e-001
1.639266e+003,5.018030e-001
1.643123e+003,4.953372e-001
1.646980e+003,4.861583e-001
1.650837e+003,4.736143e-001
1.654694e+003,4.606009e-001
1.658551e+003,4.460957e-001
1.662409e+003,4.317575e-001
1.666266e+003,4.163300e-001
1.670123e+003,3.986557e-001
1.673980e+003,3.813203e-001
1.677837e+003,3.677456e-001
1.681694e+003,3.523314e-001
1.685551e+003,3.368893e-001
1.689408e+003,3.234950e-001
1.693265e+003,3.116835e-001
1.697122e+003,3.046935e-001
1.700979e+003,2.997202e-001
1.704837e+003,2.950615e-001
1.708694e+003,2.877107e-001
1.712551e+003,2.819243e-001
1.716408e+003,2.781783e-001
1.720265e+003,2.746930e-001
1.724122e+003,2.717489e-001
1.727979e+003,2.718309e-001
1.731836e+003,2.704664e-001
1.735693e+003,2.667490e-001
1.739550e+003,2.662743e-001
1.743408e+003,2.675755e-001
1.747265e+003,2.679820e-001
1.751122e+003,2.672664e-001
1.754979e+003,2.677048e-001
1.758836e+003,2.697255e-001
1.762693e+003,2.689443e-001
1.766550e+003,2.669256e-001
1.770407e+003,2.658491e-001
1.774264e+003,2.645698e-001
1.778121e+003,2.614495e-001
1.781979e+003,2.568031e-001
1.785836e+003,2.546402e-001
1.789693e+003,2.543254e-001
1.793550e+003,2.515938e-001
1.797407e+003,2.488355e-001
1.801264e+003,2.468152e-001
1.805121e+003,2.437163e-001
1.808978e+003,2.417902e-001
1.812835e+003,2.405717e-001
1.816692e+003,2.404845e-001
1.820549e+003,2.403719e-001
1.824407e+003,2.406586e-001
1.828264e+003,2.388934e-001
1.832121e+003,2.374654e-001
1.835978e+003,2.402568e-001
1.839835e+003,2.409552e-001
1.843692e+003,2.414050e-001
1.847549e+003,2.408488e-001
1.851406e+003,2.406437e-001
1.855263e+003,2.404933e-001
1.859120e+003,2.412131e-001
1.862978e+003,2.396853e-001
1.866835e+003,2.378782e-001
1.870692e+003,2.380627e-001
1.874549e+003,2.362959e-001
1.878406e+003,2.350831e-001
1.882263e+003,2.318217e-001
1.886120e+003,2.306529e-001
1.889977e+003,2.318590e-001
1.893834e+003,2.311367e-001
1.897691e+003,2.285307e-001
1.901548e+003,2.257469e-001
1.905406e+003,2.257585e-001
1.909263e+003,2.242411e-001
1.913120e+003,2.212823e-001
1.916977e+003,2.209983e-001
1.920834e+003,2.205971e-001
1.924691e+003,2.182316e-001
1.928548e+003,2.165031e-001
1.932405e+003,2.159770e-001
1.936262e+003,2.146506e-001
1.940119e+003,2.154688e-001
1.943977e+003,2.176224e-001
1.947834e+003,2.171767e-001
1.951691e+003,2.156096e-001
1.955548e+003,2.164409e-001
1.959405e+003,2.168431e-001
1.963262e+003,2.160263e-001
1.967119e+003,2.163412e-001
1.970976e+003,2.171627e-001
1.974833e+003,2.181620e-001
1.978690e+003,2.177587e-001
1.982547e+003,2.156842e-001
1.986405e+003,2.130075e-001
1.990262e+003,2.139160e-001
1.994119e+003,2.157235e-001
1.997976e+003,2.134411e-001
2.001833e+003,2.120252e-001
2.005690e+003,2.104378e-001
2.009547e+003,2.089811e-001
2.013404e+003,2.090931e-001
2.017261e+003,2.064120e-001
2.021118e+003,2.030000e-001
2.024976e+003,2.028812e-001
2.028833e+003,2.029837e-001
2.032690e+003,2.008145e-001
2.036547e+003,1.991427e-001
2.040404e+003,2.005236e-001
2.044261e+003,2.017984e-001
2.048118e+003,2.009005e-001
2.051975e+003,1.998465e-001
2.055832e+003,1.979756e-001
2.059689e+003,1.963981e-001
2.063546e+003,1.979508e-001
2.067404e+003,1.997664e-001
2.071261e+003,2.014716e-001
2.075118e+003,2.008355e-001
2.078975e+003,2.000585e-001
2.082832e+003,2.005002e-001
2.086689e+003,2.028580e-001
2.090546e+003,2.051557e-001
2.094403e+003,2.047377e-001
2.098260e+003,2.027183e-001
2.102117e+003,2.023682e-001
2.105975e+003,2.024253e-001
2.109832e+003,1.998850e-001
2.113689e+003,1.971285e-001
2.117546e+003,1.957472e-001
2.121403e+003,1.957735e-001
2.125260e+003,1.969031e-001
2.129117e+003,1.975006e-001
2.132974e+003,1.955839e-001
2.136831e+003,1.951107e-001
2.140688e+003,1.956955e-001
2.144545e+003,1.911010e-001
2.148403e+003,1.894984e-001
2.152260e+003,1.920909e-001
2.156117e+003,1.931220e-001
2.159974e+003,1.929391e-001
2.163831e+003,1.924176e-001
2.167688e+003,1.937714e-001
2.171545e+003,1.951753e-001
2.175402e+003,1.979411e-001
2.179259e+003,2.001211e-001
2.183116e+003,1.987626e-001
2.186974e+003,1.991054e-001
2.190831e+003,1.995293e-001
2.194688e+003,2.008096e-001
2.198545e+003,2.048506e-001
2.202402e+003,2.066633e-001
2.206259e+003,2.061494e-001
2.210116e+003,2.085885e-001
2.213973e+003,2.103107e-001
2.217830e+003,2.092202e-001
2.221688e+003,2.087754e-001
2.225544e+003,2.070889e-001
2.229402e+003,2.082034e-001
2.233259e+003,2.085066e-001
2.237116e+003,2.076886e-001
2.240973e+003,2.082993e-001
2.244830e+003,2.078014e-001
2.248687e+003,2.064312e-001
2.252544e+003,2.044281e-001
2.256401e+003,2.009881e-001
2.260258e+003,2.028193e-001
2.264115e+003,2.033337e-001
2.267973e+003,2.023879e-001
2.271830e+003,2.047230e-001
2.275687e+003,2.056777e-001
2.279544e+003,2.064823e-001
2.283401e+003,2.074954e-001
2.287258e+003,2.081719e-001
2.291115e+003,2.086726e-001
2.294972e+003,2.105521e-001
2.298829e+003,2.139560e-001
2.302687e+003,2.144907e-001
2.306543e+003,2.141834e-001
2.310401e+003,2.154318e-001
2.314258e+003,2.159727e-001
2.318115e+003,2.135922e-001
2.321972e+003,2.125211e-001
2.325829e+003,2.133275e-001
2.329686e+003,2.137150e-001
2.333543e+003,2.187823e-001
2.337400e+003,2.188513e-001
2.341257e+003,2.163984e-001
2.345115e+003,2.182578e-001
2.348972e+003,2.184320e-001
2.352829e+003,2.154187e-001
2.356686e+003,2.135800e-001
2.360543e+003,2.107831e-001
2.364400e+003,2.085147e-001
2.368257e+003,2.122127e-001
2.372114e+003,2.122026e-001
2.375971e+003,2.126843e-001
2.379828e+003,2.131819e-001
2.383686e+003,2.124242e-001
2.387542e+003,2.143992e-001
2.391400e+003,2.145196e-001
2.395257e+003,2.128937e-001
2.399114e+003,2.122218e-001
2.402971e+003,2.124409e-001
2.406828e+003,2.142274e-001
2.410685e+003,2.143766e-001
2.414542e+003,2.143380e-001
2.418399e+003,2.135604e-001
2.422256e+003,2.144739e-001
2.426114e+003,2.142448e-001
2.429971e+003,2.137206e-001
2.433828e+003,2.149192e-001
2.437685e+003,2.174438e-001
2.441542e+003,2.165503e-001
2.445399e+003,2.175667e-001
2.449256e+003,2.165115e-001
2.453113e+003,2.148564e-001
2.456970e+003,2.168187e-001
2.460827e+003,2.144423e-001
2.464684e+003,2.120924e-001
2.468542e+003,2.137380e-001
2.472399e+003,2.151919e-001
2.476256e+003,2.125942e-001
2.480113e+003,2.088781e-001
2.483970e+003,2.103311e-001
2.487827e+003,2.110671e-001
2.491684e+003,2.086200e-001
2.495541e+003,2.058605e-001
2.499398e+003,2.078719e-001
2.503255e+003,2.098844e-001
2.507113e+003,2.100584e-001
2.510969e+003,2.089617e-001
2.514827e+003,2.069571e-001
2.518684e+003,2.065564e-001
2.522541e+003,2.072071e-001
2.526398e+003,2.093556e-001
2.530255e+003,2.100792e-001
2.534112e+003,2.103750e-001
2.537969e+003,2.135575e-001
2.541826e+003,2.163683e-001
2.545683e+003,2.172422e-001
2.549541e+003,2.200593e-001
2.553398e+003,2.221743e-001
2.557255e+003,2.237220e-001
2.561112e+003,2.247243e-001
2.564969e+003,2.253045e-001
2.568826e+003,2.257458e-001
2.572683e+003,2.268406e-001
2.576540e+003,2.279768e-001
2.580397e+003,2.272870e-001
2.584254e+003,2.259085e-001
2.588112e+003,2.275572e-001
2.591969e+003,2.285082e-001
2.595826e+003,2.293087e-001
2.599683e+003,2.305781e-001
2.603540e+003,2.300669e-001
2.607397e+003,2.299807e-001
2.611254e+003,2.326737e-001
2.615111e+003,2.342451e-001
2.618968e+003,2.357379e-001
2.622825e+003,2.395514e-001
2.626682e+003,2.404542e-001
2.630540e+003,2.409717e-001
2.634397e+003,2.429270e-001
2.638254e+003,2.435450e-001
2.642111e+003,2.449007e-001
2.645968e+003,2.465459e-001
2.649825e+003,2.495754e-001
2.653682e+003,2.536729e-001
2.657539e+003,2.570233e-001
2.661396e+003,2.598378e-001
2.665253e+003,2.634331e-001
2.669111e+003,2.644791e-001
2.672968e+003,2.647032e-001
2.676825e+003,2.672670e-001
2.680682e+003,2.706159e-001
2.684539e+003,2.749369e-001
2.688396e+003,2.776912e-001
2.692253e+003,2.798402e-001
2.696110e+003,2.834056e-001
2.699967e+003,2.841420e-001
2.703824e+003,2.854853e-001
2.707681e+003,2.864640e-001
2.711539e+003,2.872200e-001
2.715396e+003,2.892924e-001
2.719253e+003,2.901339e-001
2.723110e+003,2.917805e-001
2.726967e+003,2.958033e-001
2.730824e+003,2.989221e-001
2.734681e+003,2.968369e-001
2.738538e+003,2.972389e-001
2.742395e+003,3.034547e-001
2.746252e+003,3.092322e-001
2.750110e+003,3.109081e-001
2.753967e+003,3.120515e-001
2.757824e+003,3.138005e-001
2.761681e+003,3.159738e-001
2.765538e+003,3.179863e-001
2.769395e+003,3.237864e-001
2.773252e+003,3.307465e-001
2.777109e+003,3.368770e-001
2.780966e+003,3.402233e-001
2.784823e+003,3.391070e-001
2.788680e+003,3.397096e-001
2.792538e+003,3.425371e-001
2.796395e+003,3.477071e-001
2.800252e+003,3.562392e-001
2.804109e+003,3.594147e-001
2.807966e+003,3.590082e-001
2.811823e+003,3.608563e-001
2.815680e+003,3.641738e-001
2.819537e+003,3.674392e-001
2.823394e+003,3.692846e-001
2.827251e+003,3.703588e-001
2.831109e+003,3.706516e-001
2.834966e+003,3.778091e-001
2.838823e+003,3.818585e-001
2.842680e+003,3.817127e-001
2.846537e+003,3.833168e-001
2.850394e+003,3.872999e-001
2.854251e+003,3.902128e-001
2.858108e+003,3.928684e-001
2.861965e+003,3.958206e-001
2.865823e+003,4.018289e-001
2.869679e+003,4.079822e-001
2.873537e+003,4.103638e-001
2.877394e+003,4.118059e-001
2.881251e+003,4.168588e-001
2.885108e+003,4.214315e-001
2.888965e+003,4.234015e-001
2.892822e+003,4.296835e-001
2.896679e+003,4.337657e-001
2.900536e+003,4.373361e-001
2.904393e+003,4.465654e-001
2.908250e+003,4.521130e-001
2.912108e+003,4.556152e-001
2.915965e+003,4.601979e-001
2.919822e+003,4.626608e-001
2.923679e+003,4.669248e-001
2.927536e+003,4.696681e-001
2.931393e+003,4.699676e-001
2.935250e+003,4.729744e-001
2.939107e+003,4.737923e-001
2.942964e+003,4.765440e-001
2.946822e+003,4.838325e-001
2.950678e+003,4.872135e-001
2.954536e+003,4.899511e-001
2.958393e+003,4.949832e-001
2.962250e+003,5.035365e-001
2.966107e+003,5.080451e-001
2.969964e+003,5.109839e-001
2.973821e+003,5.118845e-001
2.977678e+003,5.122018e-001
2.981535e+003,5.156265e-001
2.985392e+003,5.222493e-001
2.989250e+003,5.273880e-001
2.993107e+003,5.325581e-001
2.996964e+003,5.387509e-001
3.000821e+003,5.414748e-001
3.004678e+003,5.461608e-001
3.008535e+003,5.459114e-001
3.012392e+003,5.504090e-001
3.016249e+003,5.614606e-001
3.020106e+003,5.690589e-001
3.023963e+003,5.704286e-001
3.027821e+003,5.698688e-001
3.031677e+003,5.702304e-001
3.035535e+003,5.768061e-001
3.039392e+003,5.851932e-001
3.043249e+003,5.932663e-001
3.047106e+003,5.953558e-001
3.050963e+003,5.956964e-001
3.054820e+003,6.011524e-001
3.058677e+003,6.075544e-001
3.062534e+003,6.126617e-001
3.066391e+003,6.190178e-001
3.070249e+003,6.214832e-001
3.074106e+003,6.229034e-001
3.077963e+003,6.297131e-001
3.081820e+003,6.375352e-001
3.085677e+003,6.456610e-001
3.089534e+003,6.498295e-001
3.093391e+003,6.522382e-001
3.097248e+003,6.540900e-001
3.101105e+003,6.580974e-001
3.104962e+003,6.618588e-001
3.108820e+003,6.683137e-001
3.112677e+003,6.753879e-001
3.116534e+003,6.875590e-001
3.120391e+003,6.909658e-001
3.124248e+003,6.914641e-001
3.128105e+003,6.998473e-001
3.131962e+003,7.062834e-001
3.135819e+003,7.077208e-001
3.139676e+003,7.082934e-001
3.143533e+003,7.220028e-001
3.147390e+003,7.318910e-001
3.151248e+003,7.371631e-001
3.155105e+003,7.413406e-001
3.158962e+003,7.419729e-001
3.162819e+003,7.389082e-001
3.166676e+003,7.530598e-001
3.170533e+003,7.615514e-001
3.174390e+003,7.701945e-001
3.178247e+003,7.803910e-001
3.182104e+003,7.779844e-001
3.185961e+003,7.776051e-001
3.189819e+003,7.847884e-001
3.193676e+003,7.932364e-001
3.197533e+003,8.008092e-001
3.201390e+003,8.068250e-001
3.205247e+003,8.079257e-001
3.209104e+003,8.075858e-001
3.212961e+003,8.077673e-001
3.216818e+003,8.176689e-001
3.220675e+003,8.321905e-001
3.224532e+003,8.299920e-001
3.228389e+003,8.243768e-001
3.232247e+003,8.316493e-001
3.236104e+003,8.483832e-001
3.239961e+003,8.495846e-001
3.243818e+003,8.556280e-001
3.247675e+003,8.614499e-001
3.251532e+003,8.632702e-001
3.255389e+003,8.685506e-001
3.259246e+003,8.833544e-001
3.263103e+003,8.854603e-001
3.266960e+003,8.776656e-001
3.270818e+003,8.702395e-001
3.274675e+003,8.735203e-001
3.278532e+003,8.854681e-001
3.282389e+003,8.949225e-001
3.286246e+003,8.947855e-001
3.290103e+003,8.890845e-001
3.293960e+003,9.007012e-001
3.297817e+003,9.065228e-001
3.301674e+003,9.199275e-001
3.305531e+003,9.241238e-001
3.309388e+003,9.186799e-001
3.313246e+003,9.264305e-001
3.317103e+003,9.242804e-001
3.320960e+003,9.304641e-001
3.324817e+003,9.359511e-001
3.328674e+003,9.387586e-001
3.332531e+003,9.618837e-001
3.336388e+003,9.765978e-001
3.340245e+003,9.719275e-001
3.344102e+003,9.824289e-001
3.347959e+003,9.807166e-001
3.351817e+003,9.747149e-001
3.355674e+003,9.773170e-001
3.359531e+003,9.896684e-001
3.363388e+003,9.912158e-001
3.367245e+003,9.915570e-001
3.371102e+003,1.016127e+000
3.374959e+003,1.009940e+000
3.378816e+003,9.941835e-001
3.382673e+003,1.002748e+000
3.386530e+003,1.008802e+000
3.390387e+003,1.013601e+000
3.394245e+003,1.010568e+000
3.398102e+003,1.010799e+000
3.401959e+003,1.014040e+000
3.405816e+003,1.026404e+000
3.409673e+003,1.034021e+000
3.413530e+003,1.046725e+000
3.417387e+003,1.046243e+000
3.421244e+003,1.038584e+000
3.425101e+003,1.040499e+000
3.428958e+003,1.052013e+000
3.432815e+003,1.069938e+000
3.436673e+003,1.078439e+000
3.440530e+003,1.074916e+000
3.444387e+003,1.063901e+000
3.448244e+003,1.054680e+000
3.452101e+003,1.053309e+000
3.455958e+003,1.052501e+000
3.459815e+003,1.045746e+000
3.463672e+003,1.059059e+000
3.467529e+003,1.070629e+000
3.471386e+003,1.061305e+000
3.475244e+003,1.053279e+000
3.479101e+003,1.064858e+000
3.482958e+003,1.056461e+000
3.486815e+003,1.044002e+000
3.490672e+003,1.054763e+000
3.494529e+003,1.060831e+000
3.498386e+003,1.063952e+000
3.502243e+003,1.070312e+000
3.506100e+003,1.065763e+000
3.509958e+003,1.054571e+000
3.513814e+003,1.057991e+000
3.517672e+003,1.079235e+000
3.521529e+003,1.079760e+000
3.525386e+003,1.067883e+000
3.529243e+003,1.072045e+000
3.533100e+003,1.086442e+000
3.536957e+003,1.084178e+000
3.540814e+003,1.067542e+000
3.544671e+003,1.074382e+000
3.548528e+003,1.082779e+000
3.552385e+003,1.065528e+000
3.556243e+003,1.042861e+000
3.560100e+003,1.036335e+000
3.563957e+003,1.039527e+000
3.567814e+003,1.034481e+000
3.571671e+003,1.028253e+000
3.575528e+003,1.021847e+000
3.579385e+003,1.008947e+000
3.583242e+003,9.951853e-001
3.587099e+003,9.667057e-001
3.590957e+003,9.515606e-001
3.594813e+003,9.276205e-001
3.598671e+003,8.924792e-001
3.602528e+003,8.602639e-001
3.606385e+003,8.362330e-001
3.610242e+003,8.119680e-001
3.614099e+003,7.886895e-001
3.617956e+003,7.492787e-001
3.621813e+003,7.055959e-001
3.625670e+003,6.671069e-001
3.629527e+003,6.306856e-001
3.633385e+003,5.914386e-001
3.637242e+003,5.478487e-001
3.641099e+003,5.117320e-001
3.644956e+003,4.795193e-001
3.648813e+003,4.437684e-001
3.652670e+003,4.081384e-001
3.656527e+003,3.755321e-001
3.660384e+003,3.481164e-001
3.664241e+003,3.189214e-001
3.668098e+003,2.904726e-001
3.671956e+003,2.712097e-001
3.675813e+003,2.542698e-001
3.679670e+003,2.367182e-001
3.683527e+003,2.237777e-001
3.687384e+003,2.138282e-001
3.691241e+003,2.049075e-001
3.695098e+003,1.971969e-001
3.698955e+003,1.926149e-001
3.702812e+003,1.855567e-001
3.706669e+003,1.783365e-001
3.710526e+003,1.735157e-001
3.714384e+003,1.722667e-001
3.718241e+003,1.683842e-001
3.722098e+003,1.641745e-001
3.725955e+003,1.607035e-001
3.729812e+003,1.580323e-001
3.733669e+003,1.548054e-001
3.737526e+003,1.517290e-001
3.741383e+003,1.453303e-001
3.745240e+003,1.417552e-001
3.749097e+003,1.408607e-001
3.752955e+003,1.382459e-001
3.756812e+003,1.382197e-001
3.760669e+003,1.377512e-001
3.764526e+003,1.366860e-001
3.768383e+003,1.342218e-001
3.772240e+003,1.316143e-001
3.776097e+003,1.313098e-001
3.779954e+003,1.329469e-001
3.783811e+003,1.332077e-001
3.787668e+003,1.334635e-001
3.791525e+003,1.341616e-001
3.795383e+003,1.356070e-001
3.799240e+003,1.365134e-001
3.803097e+003,1.376795e-001
3.806954e+003,1.417312e-001
3.810811e+003,1.415632e-001
3.814668e+003,1.416156e-001
3.818525e+003,1.439275e-001
3.822382e+003,1.437988e-001
3.826239e+003,1.413976e-001
3.830096e+003,1.393196e-001
3.833954e+003,1.379005e-001
3.837811e+003,1.412663e-001
3.841668e+003,1.414543e-001
3.845525e+003,1.394256e-001
3.849382e+003,1.386781e-001
3.853239e+003,1.362740e-001
3.857096e+003,1.363895e-001
3.860953e+003,1.366653e-001
3.864810e+003,1.340281e-001
3.868667e+003,1.310569e-001
3.872524e+003,1.310211e-001
3.876382e+003,1.314741e-001
3.880239e+003,1.325996e-001
3.884096e+003,1.320809e-001
3.887953e+003,1.306496e-001
3.891810e+003,1.280008e-001
3.895667e+003,1.284038e-001
3.899524e+003,1.278886e-001
3.903381e+003,1.283267e-001
3.907238e+003,1.325370e-001
3.911095e+003,1.364412e-001
3.914953e+003,1.351185e-001
3.918810e+003,1.341116e-001
3.922667e+003,1.357889e-001
3.926524e+003,1.377751e-001
3.930381e+003,1.394874e-001
3.934238e+003,1.384604e-001
3.938095e+003,1.393446e-001
3.941952e+003,1.417445e-001
3.945809e+003,1.427448e-001
3.949667e+003,1.406292e-001
3.953523e+003,1.379735e-001
3.957381e+003,1.364519e-001
3.961238e+003,1.379486e-001
3.965095e+003,1.379317e-001
3.968952e+003,1.362793e-001
3.972809e+003,1.331648e-001
3.976666e+003,1.319623e-001
3.980523e+003,1.330252e-001
3.984380e+003,1.308919e-001
3.988237e+003,1.281175e-001
3.992094e+003,1.228315e-001
3.995952e+003,1.223459e-001
3.999809e+003,1.272535e-001
4.003666e+003,1.257680e-001
4.007523e+003,1.228722e-001
4.011380e+003,1.252686e-001
4.015237e+003,1.269649e-001
4.019094e+003,1.280218e-001
4.022951e+003,1.288220e-001
4.026808e+003,1.277780e-001
4.030666e+003,1.273140e-001
4.034522e+003,1.304393e-001
4.038380e+003,1.338086e-001
4.042237e+003,1.374150e-001
4.046094e+003,1.391613e-001
4.049951e+003,1.370201e-001
4.053808e+003,1.375505e-001
4.057665e+003,1.389668e-001
4.061522e+003,1.379387e-001
4.065379e+003,1.376454e-001
4.069236e+003,1.388851e-001
4.073094e+003,1.385789e-001
4.076951e+003,1.402244e-001
4.080808e+003,1.393042e-001
4.084665e+003,1.379425e-001
4.088522e+003,1.352187e-001
4.092379e+003,1.331768e-001
4.096236e+003,1.329445e-001
4.100093e+003,1.284244e-001
4.103950e+003,1.271728e-001
4.107808e+003,1.285165e-001
4.111665e+003,1.283597e-001
4.115521e+003,1.276793e-001
4.119379e+003,1.271521e-001
4.123236e+003,1.238578e-001
4.127093e+003,1.252887e-001
4.130950e+003,1.263358e-001
4.134807e+003,1.258048e-001
4.138664e+003,1.238293e-001
4.142521e+003,1.222871e-001
4.146378e+003,1.222366e-001
4.150235e+003,1.263494e-001
4.154093e+003,1.320577e-001
4.157950e+003,1.312043e-001
4.161807e+003,1.278258e-001
4.165664e+003,1.279903e-001
4.169521e+003,1.296698e-001
4.173378e+003,1.320748e-001
4.177235e+003,1.352760e-001
4.181092e+003,1.319114e-001
4.184949e+003,1.304868e-001
4.188807e+003,1.345362e-001
4.192664e+003,1.371892e-001
4.196521e+003,1.337176e-001
4.200378e+003,1.320815e-001
4.204235e+003,1.338704e-001
4.208092e+003,1.346252e-001
4.211949e+003,1.336176e-001
4.215806e+003,1.302021e-001
4.219663e+003,1.252161e-001
4.223521e+003,1.238862e-001
4.227377e+003,1.222993e-001
4.231234e+003,1.194873e-001
4.235092e+003,1.224854e-001
4.238949e+003,1.235760e-001
4.242806e+003,1.192925e-001
4.246663e+003,1.163120e-001
4.250520e+003,1.190541e-001
4.254377e+003,1.231541e-001
4.258234e+003,1.259993e-001
4.262091e+003,1.273496e-001
4.265948e+003,1.277717e-001
4.269806e+003,1.266891e-001
4.273663e+003,1.283030e-001
4.277520e+003,1.305059e-001
4.281377e+003,1.332683e-001
4.285234e+003,1.354549e-001
4.289091e+003,1.350209e-001
4.292948e+003,1.347611e-001
4.296805e+003,1.354812e-001
4.300662e+003,1.401620e-001
4.304520e+003,1.419850e-001
4.308376e+003,1.386703e-001
4.312233e+003,1.371254e-001
4.316091e+003,1.354877e-001
4.319948e+003,1.335744e-001
4.323805e+003,1.353740e-001
4.327662e+003,1.370665e-001
4.331519e+003,1.330598e-001
4.335376e+003,1.305837e-001
4.339233e+003,1.297901e-001
4.343090e+003,1.324232e-001
4.346947e+003,1.320875e-001
4.350805e+003,1.254248e-001
4.354662e+003,1.288444e-001
4.358519e+003,1.287037e-001
4.362376e+003,1.248173e-001
4.366233e+003,1.256605e-001
4.370090e+003,1.290426e-001
4.373947e+003,1.295377e-001
4.377804e+003,1.248469e-001
4.381661e+003,1.256644e-001
4.385519e+003,1.288953e-001
4.389375e+003,1.294171e-001
4.393232e+003,1.261086e-001
4.397090e+003,1.248847e-001
4.400947e+003,1.283833e-001
4.404804e+003,1.371639e-001
4.408661e+003,1.381903e-001
4.412518e+003,1.352436e-001
4.416375e+003,1.387796e-001
4.420232e+003,1.454469e-001
4.424089e+003,1.445085e-001
4.427946e+003,1.415272e-001
4.431804e+003,1.418147e-001
4.435661e+003,1.426754e-001
4.439518e+003,1.452301e-001
4.443375e+003,1.437661e-001
4.447232e+003,1.399682e-001
4.451089e+003,1.357964e-001
4.454946e+003,1.346861e-001
4.458803e+003,1.361786e-001
4.462660e+003,1.378423e-001
4.466518e+003,1.367583e-001
4.470375e+003,1.355397e-001
4.474231e+003,1.343052e-001
4.478089e+003,1.326527e-001
4.481946e+003,1.341984e-001
4.485803e+003,1.380442e-001
4.489660e+003,1.329499e-001
4.493517e+003,1.299293e-001
4.497375e+003,1.267148e-001
4.501231e+003,1.258789e-001
4.505088e+003,1.287578e-001
4.508946e+003,1.319679e-001
4.512803e+003,1.320702e-001
4.516660e+003,1.308500e-001
4.520517e+003,1.281413e-001
4.524374e+003,1.264886e-001
4.528231e+003,1.293984e-001
4.532088e+003,1.324130e-001
4.535945e+003,1.369506e-001
4.539802e+003,1.394482e-001
4.543660e+003,1.382908e-001
4.547517e+003,1.398483e-001
4.551374e+003,1.441785e-001
4.555231e+003,1.466272e-001
4.559088e+003,1.399270e-001
4.562945e+003,1.362887e-001
4.566802e+003,1.367127e-001
4.570659e+003,1.361214e-001
4.574516e+003,1.372206e-001
4.578374e+003,1.387573e-001
4.582230e+003,1.412756e-001
4.586087e+003,1.396456e-001
4.589945e+003,1.347177e-001
4.593802e+003,1.292145e-001
4.597659e+003,1.272362e-001
4.601516e+003,1.303991e-001
4.605373e+003,1.300160e-001
4.609230e+003,1.223913e-001
4.613087e+003,1.210615e-001
4.616944e+003,1.242193e-001
4.620801e+003,1.280063e-001
4.624659e+003,1.284698e-001
4.628516e+003,1.289783e-001
4.632373e+003,1.279826e-001
4.636230e+003,1.301425e-001
4.640087e+003,1.343632e-001
4.643944e+003,1.328826e-001
4.647801e+003,1.307173e-001
4.651658e+003,1.324814e-001
4.655515e+003,1.367794e-001
4.659373e+003,1.366423e-001
4.663229e+003,1.351297e-001
4.667086e+003,1.378874e-001
4.670944e+003,1.400364e-001
4.674801e+003,1.388885e-001
4.678658e+003,1.366610e-001
4.682515e+003,1.408558e-001
4.686372e+003,1.438103e-001
4.690229e+003,1.388361e-001
4.694086e+003,1.355210e-001
4.697943e+003,1.351548e-001
4.701800e+003,1.327361e-001
4.705658e+003,1.325599e-001
4.709515e+003,1.298644e-001
4.713372e+003,1.300667e-001
4.717229e+003,1.348733e-001
4.721086e+003,1.316710e-001
4.724943e+003,1.272749e-001
4.728800e+003,1.287207e-001
4.732657e+003,1.305837e-001
4.736514e+003,1.281630e-001
4.740372e+003,1.296778e-001
4.744229e+003,1.312549e-001
4.748085e+003,1.314765e-001
4.751943e+003,1.361146e-001
4.755800e+003,1.374075e-001
4.759657e+003,1.363886e-001
4.763514e+003,1.376238e-001
4.767371e+003,1.371644e-001
4.771228e+003,1.334136e-001
4.775085e+003,1.361482e-001
4.778942e+003,1.365115e-001
4.782799e+003,1.368946e-001
4.786657e+003,1.391629e-001
4.790514e+003,1.422058e-001
4.794371e+003,1.452204e-001
4.798228e+003,1.478254e-001
4.802085e+003,1.479881e-001
4.805942e+003,1.482936e-001
4.809799e+003,1.418637e-001
4.813656e+003,1.377843e-001
4.817513e+003,1.376718e-001
4.821371e+003,1.373300e-001
4.825228e+003,1.399003e-001
4.829084e+003,1.447988e-001
4.832942e+003,1.412212e-001
4.836799e+003,1.303223e-001
4.840656e+003,1.259319e-001
4.844513e+003,1.271099e-001
4.848370e+003,1.311868e-001
4.852227e+003,1.351213e-001
4.856084e+003,1.373682e-001
4.859941e+003,1.363101e-001
4.863798e+003,1.350696e-001
4.867656e+003,1.309748e-001
4.871513e+003,1.271904e-001
4.875370e+003,1.292109e-001
4.879227e+003,1.303072e-001
4.883084e+003,1.333002e-001
4.886941e+003,1.363994e-001
4.890798e+003,1.379934e-001
4.894655e+003,1.398553e-001
4.898512e+003,1.368235e-001
4.902370e+003,1.350566e-001
4.906227e+003,1.416876e-001
4.910083e+003,1.472229e-001
4.913941e+003,1.449946e-001
4.917798e+003,1.457424e-001
4.921655e+003,1.416720e-001
4.925512e+003,1.420285e-001
4.929369e+003,1.490096e-001
4.933226e+003,1.511821e-001
4.937083e+003,1.443434e-001
4.940940e+003,1.399462e-001
4.944797e+003,1.416290e-001
4.948655e+003,1.462695e-001
4.952512e+003,1.460577e-001
4.956369e+003,1.466726e-001
4.960226e+003,1.454279e-001
4.964083e+003,1.375537e-001
4.967940e+003,1.314055e-001
4.971797e+003,1.319564e-001
4.975654e+003,1.374801e-001
4.979511e+003,1.363530e-001
4.983369e+003,1.347642e-001
4.987226e+003,1.369338e-001
4.991083e+003,1.368576e-001
4.994940e+003,1.384517e-001
4.998797e+003,1.435014e-001
5.002654e+003,1.460607e-001
5.006511e+003,1.426397e-001
5.010368e+003,1.376116e-001
5.014225e+003,1.340565e-001
5.018083e+003,1.350188e-001
5.021939e+003,1.450015e-001
5.025796e+003,1.526128e-001
5.029654e+003,1.441680e-001
5.033511e+003,1.422490e-001
5.037368e+003,1.480071e-001
5.041225e+003,1.483874e-001
5.045082e+003,1.421939e-001
5.048939e+003,1.358788e-001
5.052796e+003,1.397477e-001
5.056653e+003,1.456133e-001
5.060510e+003,1.479439e-001
5.064368e+003,1.454532e-001
5.068225e+003,1.429302e-001
5.072082e+003,1.425668e-001
5.075939e+003,1.484840e-001
5.079796e+003,1.489304e-001
5.083653e+003,1.418933e-001
5.087510e+003,1.416522e-001
5.091367e+003,1.385829e-001
5.095224e+003,1.345204e-001
5.099082e+003,1.374180e-001
5.102938e+003,1.400284e-001
5.106795e+003,1.407469e-001
5.110653e+003,1.429661e-001
5.114510e+003,1.426600e-001
5.118367e+003,1.431577e-001
5.122224e+003,1.473004e-001
5.126081e+003,1.515068e-001
5.129938e+003,1.530330e-001
5.133795e+003,1.512225e-001
5.137652e+003,1.496556e-001
5.141509e+003,1.439454e-001
5.145367e+003,1.410806e-001
5.149224e+003,1.466560e-001
5.153081e+003,1.541100e-001
5.156938e+003,1.557114e-001
5.160795e+003,1.563701e-001
5.164652e+003,1.583485e-001
5.168509e+003,1.583917e-001
5.172366e+003,1.548491e-001
5.176223e+003,1.541312e-001
5.180081e+003,1.582982e-001
5.183938e+003,1.595846e-001
5.187794e+003,1.540162e-001
5.191652e+003,1.515098e-001
5.195509e+003,1.489924e-001
5.199366e+003,1.457079e-001
5.203223e+003,1.433294e-001
5.207080e+003,1.461052e-001
5.210937e+003,1.447549e-001
5.214794e+003,1.462944e-001
5.218651e+003,1.494899e-001
5.222508e+003,1.507019e-001
5.226366e+003,1.444746e-001
5.230223e+003,1.374438e-001
5.234080e+003,1.340771e-001
5.237937e+003,1.347439e-001
5.241794e+003,1.385183e-001
5.245651e+003,1.414882e-001
5.249508e+003,1.409616e-001
5.253365e+003,1.398839e-001
5.257222e+003,1.423228e-001
5.261080e+003,1.442439e-001
5.264937e+003,1.449042e-001
5.268793e+003,1.455166e-001
5.272651e+003,1.417219e-001
5.276508e+003,1.465855e-001
5.280365e+003,1.506570e-001
5.284222e+003,1.450888e-001
5.288079e+003,1.430929e-001
5.291936e+003,1.453116e-001
5.295793e+003,1.495009e-001
5.299650e+003,1.505875e-001
5.303507e+003,1.477482e-001
5.307365e+003,1.504305e-001
5.311222e+003,1.505988e-001
5.315079e+003,1.503973e-001
5.318936e+003,1.522097e-001
5.322793e+003,1.515987e-001
5.326650e+003,1.537773e-001
5.330507e+003,1.489854e-001
5.334364e+003,1.384506e-001
5.338221e+003,1.339152e-001
5.342079e+003,1.368030e-001
5.345936e+003,1.382456e-001
5.349792e+003,1.433980e-001
5.353650e+003,1.424067e-001
5.357507e+003,1.361537e-001
5.361364e+003,1.379043e-001
5.365221e+003,1.377981e-001
5.369078e+003,1.373752e-001
5.372935e+003,1.403282e-001
5.376792e+003,1.453555e-001
5.380649e+003,1.510521e-001
5.384506e+003,1.526171e-001
5.388364e+003,1.518280e-001
5.392221e+003,1.465648e-001
5.396078e+003,1.471702e-001
5.399935e+003,1.494060e-001
5.403792e+003,1.483315e-001
5.407649e+003,1.494606e-001
5.411506e+003,1.483169e-001
5.415363e+003,1.398546e-001
5.419220e+003,1.402846e-001
5.423078e+003,1.527829e-001
5.426935e+003,1.542170e-001
5.430792e+003,1.457987e-001
5.434649e+003,1.436607e-001
5.438506e+003,1.499709e-001
5.442363e+003,1.441606e-001
5.446220e+003,1.390512e-001
5.450077e+003,1.415666e-001
5.453934e+003,1.391344e-001
5.457792e+003,1.382154e-001
5.461648e+003,1.396451e-001
5.465505e+003,1.390145e-001
5.469363e+003,1.395928e-001
5.473220e+003,1.329964e-001
5.477077e+003,1.302093e-001
5.480934e+003,1.341546e-001
5.484791e+003,1.376766e-001
5.488648e+003,1.409681e-001
5.492505e+003,1.393198e-001
5.496362e+003,1.397682e-001
5.500219e+003,1.420388e-001
5.504077e+003,1.411434e-001
5.507934e+003,1.407070e-001
5.511791e+003,1.472649e-001
5.515648e+003,1.494507e-001
5.519505e+003,1.486337e-001
5.523362e+003,1.467764e-001
5.527219e+003,1.482746e-001
5.531076e+003,1.478610e-001
5.534933e+003,1.509767e-001
5.538791e+003,1.526054e-001
5.542647e+003,1.355386e-001
5.546504e+003,1.324773e-001
5.550362e+003,1.468539e-001
5.554219e+003,1.522940e-001
5.558076e+003,1.400646e-001
5.561933e+003,1.436498e-001
5.565790e+003,1.502381e-001
5.569647e+003,1.436373e-001
5.573504e+003,1.347755e-001
5.577361e+003,1.379046e-001
5.581218e+003,1.460389e-001
5.585076e+003,1.552797e-001
5.588933e+003,1.483207e-001
5.592790e+003,1.384350e-001
5.596647e+003,1.352574e-001
5.600504e+003,1.332814e-001
5.604361e+003,1.362451e-001
5.608218e+003,1.387406e-001
5.612075e+003,1.415518e-001
5.615932e+003,1.411580e-001
5.619790e+003,1.400075e-001
5.623646e+003,1.350692e-001
5.627503e+003,1.331490e-001
5.631361e+003,1.396316e-001
5.635218e+003,1.473564e-001
5.639075e+003,1.463454e-001
5.642932e+003,1.468974e-001
5.646789e+003,1.492495e-001
5.650646e+003,1.488551e-001
5.654503e+003,1.517812e-001
5.658360e+003,1.546091e-001
5.662217e+003,1.541145e-001
5.666075e+003,1.541943e-001
5.669932e+003,1.510976e-001
5.673789e+003,1.520474e-001
5.677646e+003,1.503545e-001
5.681503e+003,1.500966e-001
5.685360e+003,1.532234e-001
5.689217e+003,1.535872e-001
5.693074e+003,1.483047e-001
5.696931e+003,1.411933e-001
5.700789e+003,1.424119e-001
5.704646e+003,1.515298e-001
5.708502e+003,1.504295e-001
5.712360e+003,1.438711e-001
5.716217e+003,1.397222e-001
5.720074e+003,1.386750e-001
5.723931e+003,1.338633e-001
5.727788e+003,1.304122e-001
5.731645e+003,1.329696e-001
5.735502e+003,1.306125e-001
5.739359e+003,1.371947e-001
5.743216e+003,1.423281e-001
5.747074e+003,1.402242e-001
5.750931e+003,1.493403e-001
5.754788e+003,1.484890e-001
5.758645e+003,1.442449e-001
5.762502e+003,1.420116e-001
5.766359e+003,1.421265e-001
5.770216e+003,1.432333e-001
5.774073e+003,1.379520e-001
5.777930e+003,1.430155e-001
5.781788e+003,1.425032e-001
5.785645e+003,1.422877e-001
5.789501e+003,1.499774e-001
5.793359e+003,1.494526e-001
5.797216e+003,1.487544e-001
5.801073e+003,1.445793e-001
5.804930e+003,1.419740e-001
5.808787e+003,1.384252e-001
5.812644e+003,1.366991e-001
5.816501e+003,1.390548e-001
5.820358e+003,1.488443e-001
5.824215e+003,1.446685e-001
5.828073e+003,1.290762e-001
5.831930e+003,1.349064e-001
5.835787e+003,1.416673e-001
5.839644e+003,1.403716e-001
5.843501e+003,1.430236e-001
5.847358e+003,1.501798e-001
5.851215e+003,1.477368e-001
5.855072e+003,1.358880e-001
5.858929e+003,1.382258e-001
5.862787e+003,1.498293e-001
5.866644e+003,1.536353e-001
5.870500e+003,1.490104e-001
5.874358e+003,1.516614e-001
5.878215e+003,1.519511e-001
5.882072e+003,1.508092e-001
5.885929e+003,1.457004e-001
5.889786e+003,1.465372e-001
5.893643e+003,1.441370e-001
5.897500e+003,1.403342e-001
5.901357e+003,1.360790e-001
5.905214e+003,1.418833e-001
5.909072e+003,1.471759e-001
5.912929e+003,1.538719e-001
5.916786e+003,1.519732e-001
5.920643e+003,1.511793e-001
5.924500e+003,1.446616e-001
5.928357e+003,1.429488e-001
5.932214e+003,1.476560e-001
5.936071e+003,1.468289e-001
5.939928e+003,1.408996e-001
5.943786e+003,1.414364e-001
5.947643e+003,1.441999e-001
5.951500e+003,1.435166e-001
5.955357e+003,1.344498e-001
5.959214e+003,1.309168e-001
5.963071e+003,1.410937e-001
5.966928e+003,1.461693e-001
5.970785e+003,1.383804e-001
5.974642e+003,1.319844e-001
5.978500e+003,1.362702e-001
5.982356e+003,1.417765e-001
5.986213e+003,1.371210e-001
5.990071e+003,1.429018e-001
5.993928e+003,1.551524e-001
5.997785e+003,1.480251e-001
6.001642e+003,1.383250e-001
6.005499e+003,1.381660e-001
6.009356e+003,1.436518e-001
6.013213e+003,1.453630e-001
6.017070e+003,1.464510e-001
6.020927e+003,1.504499e-001
6.024785e+003,1.533333e-001
6.028642e+003,1.509016e-001
6.032499e+003,1.512633e-001
6.036356e+003,1.447076e-001
6.040213e+003,1.419894e-001
6.044070e+003,1.455911e-001
6.047927e+003,1.479475e-001
6.051784e+003,1.485502e-001
6.055641e+003,1.509478e-001
6.059499e+003,1.500055e-001
6.063355e+003,1.459480e-001
6.067212e+003,1.383605e-001
6.071070e+003,1.416271e-001
6.074927e+003,1.466851e-001
6.078784e+003,1.490683e-001
6.082641e+003,1.516643e-001
6.086498e+003,1.408276e-001
6.090355e+003,1.335168e-001
6.094212e+003,1.314730e-001
6.098069e+003,1.380005e-001
6.101926e+003,1.451101e-001
6.105784e+003,1.443707e-001
6.109641e+003,1.385757e-001
6.113498e+003,1.346944e-001
6.117355e+003,1.341026e-001
6.121212e+003,1.283271e-001
6.125069e+003,1.261148e-001
6.128926e+003,1.359608e-001
6.132783e+003,1.491997e-001
6.136640e+003,1.474422e-001
6.140498e+003,1.445689e-001
6.144354e+003,1.483329e-001
6.148211e+003,1.499115e-001
6.152069e+003,1.455359e-001
6.155926e+003,1.413395e-001
6.159783e+003,1.327115e-001
6.163640e+003,1.315674e-001
6.167497e+003,1.400528e-001
6.171354e+003,1.433852e-001
6.175211e+003,1.459208e-001
6.179068e+003,1.414951e-001
6.182925e+003,1.348759e-001
6.186783e+003,1.450793e-001
6.190640e+003,1.504928e-001
6.194497e+003,1.413581e-001
6.198354e+003,1.417242e-001
6.202211e+003,1.451381e-001
6.206068e+003,1.374613e-001
6.209925e+003,1.240105e-001
6.213782e+003,1.269240e-001
6.217639e+003,1.373842e-001
6.221497e+003,1.407068e-001
6.225354e+003,1.449699e-001
6.229210e+003,1.490580e-001
6.233068e+003,1.431090e-001
6.236925e+003,1.347177e-001
6.240782e+003,1.449095e-001
6.244639e+003,1.572794e-001
6.248496e+003,1.586473e-001
6.252353e+003,1.527262e-001
6.256210e+003,1.463856e-001
6.260067e+003,1.384288e-001
6.263924e+003,1.322860e-001
6.267782e+003,1.408028e-001
6.271639e+003,1.505206e-001
6.275496e+003,1.475034e-001
6.279353e+003,1.471626e-001
6.283210e+003,1.516388e-001
6.287067e+003,1.598805e-001
6.290924e+003,1.522199e-001
6.294781e+003,1.423098e-001
6.298638e+003,1.416202e-001
6.302496e+003,1.367300e-001
6.306353e+003,1.388760e-001
6.310209e+003,1.495317e-001
6.314067e+003,1.495133e-001
6.317924e+003,1.456814e-001
6.321781e+003,1.407989e-001
6.325638e+003,1.390513e-001
6.329495e+003,1.510962e-001
6.333352e+003,1.552814e-001
6.337209e+003,1.622149e-001
6.341066e+003,1.517160e-001
6.344923e+003,1.414142e-001
6.348780e+003,1.368704e-001
6.352638e+003,1.302680e-001
6.356495e+003,1.352337e-001
6.360352e+003,1.444822e-001
6.364209e+003,1.444967e-001
6.368066e+003,1.382920e-001
6.371923e+003,1.424734e-001
6.375780e+003,1.430487e-001
6.379637e+003,1.513964e-001
6.383494e+003,1.453156e-001
6.387352e+003,1.441316e-001
6.391208e+003,1.402528e-001
6.395065e+003,1.480148e-001
6.398923e+003,1.450665e-001
6.402780e+003,1.354297e-001
6.406637e+003,1.614598e-001
6.410494e+003,1.650545e-001
6.414351e+003,1.394049e-001
6.418208e+003,1.451158e-001
6.422065e+003,1.504589e-001
6.425922e+003,1.528240e-001
6.429779e+003,1.530838e-001
6.433637e+003,1.458379e-001
6.437494e+003,1.426963e-001
6.441351e+003,1.531083e-001
6.445208e+003,1.534258e-001
6.449065e+003,1.411698e-001
6.452922e+003,1.397883e-001
6.456779e+003,1.433155e-001
6.460636e+003,1.565473e-001
6.464493e+003,1.598390e-001
6.468351e+003,1.444289e-001
6.472208e+003,1.346485e-001
6.476064e+003,1.348869e-001
6.479922e+003,1.415204e-001
6.483779e+003,1.485157e-001
6.487636e+003,1.521906e-001
6.491493e+003,1.495411e-001
6.495350e+003,1.454229e-001
6.499207e+003,1.552585e-001
6.503064e+003,1.509003e-001
6.506921e+003,1.504085e-001
6.510778e+003,1.500695e-001
6.514636e+003,1.471185e-001
6.518493e+003,1.455205e-001
6.522350e+003,1.362872e-001
6.526207e+003,1.337927e-001
6.530064e+003,1.556784e-001
6.533921e+003,1.626144e-001
6.537778e+003,1.466165e-001
6.541635e+003,1.413537e-001
6.545492e+003,1.371174e-001
6.549350e+003,1.477702e-001
6.553207e+003,1.593379e-001
6.557063e+003,1.459144e-001
6.560921e+003,1.325544e-001
6.564778e+003,1.394138e-001
6.568635e+003,1.475176e-001
6.572492e+003,1.489899e-001
6.576349e+003,1.483058e-001
6.580206e+003,1.462793e-001
6.584063e+003,1.373175e-001
6.587920e+003,1.327898e-001
6.591777e+003,1.299282e-001
6.595635e+003,1.323788e-001
6.599492e+003,1.347951e-001
6.603349e+003,1.425291e-001
6.607206e+003,1.475727e-001
6.611063e+003,1.480029e-001
6.614920e+003,1.593976e-001
6.618777e+003,1.583592e-001
6.622634e+003,1.489593e-001
6.626491e+003,1.400507e-001
6.630349e+003,1.400229e-001
6.634206e+003,1.409248e-001
6.638063e+003,1.445861e-001
6.641920e+003,1.476204e-001
6.645777e+003,1.446974e-001
6.649634e+003,1.521905e-001
6.653491e+003,1.587472e-001
6.657348e+003,1.521050e-001
6.661205e+003,1.357024e-001
6.665063e+003,1.306418e-001
6.668919e+003,1.341394e-001
6.672776e+003,1.468934e-001
6.676634e+003,1.635435e-001
6.680491e+003,1.597221e-001
6.684348e+003,1.519151e-001
6.688205e+003,1.415962e-001
6.692062e+003,1.317027e-001
6.695919e+003,1.303359e-001
6.699776e+003,1.474378e-001
6.703633e+003,1.639886e-001
6.707490e+003,1.525140e-001
6.711348e+003,1.394114e-001
6.715205e+003,1.465034e-001
6.719062e+003,1.371788e-001
6.722919e+003,1.357301e-001
6.726776e+003,1.383099e-001
6.730633e+003,1.384221e-001
6.734490e+003,1.488670e-001
6.738347e+003,1.530789e-001
6.742204e+003,1.420148e-001
6.746062e+003,1.409548e-001
6.749918e+003,1.533730e-001
6.753775e+003,1.528863e-001
6.757633e+003,1.656091e-001
6.761490e+003,1.643497e-001
6.765347e+003,1.478800e-001
6.769204e+003,1.409523e-001
6.773061e+003,1.379257e-001
6.776918e+003,1.395897e-001
6.780775e+003,1.374744e-001
6.784632e+003,1.364460e-001
6.788489e+003,1.330288e-001
6.792347e+003,1.358967e-001
6.796204e+003,1.423600e-001
6.800061e+003,1.358045e-001
6.803918e+003,1.291466e-001
6.807775e+003,1.374593e-001
6.811632e+003,1.481100e-001
6.815489e+003,1.601139e-001
6.819346e+003,1.633568e-001
6.823203e+003,1.591005e-001
6.827061e+003,1.587752e-001
6.830917e+003,1.594161e-001
6.834774e+003,1.526916e-001
6.838632e+003,1.447021e-001
6.842489e+003,1.372256e-001
6.846346e+003,1.413923e-001
6.850203e+003,1.327370e-001
6.854060e+003,1.263708e-001
6.857917e+003,1.435244e-001
6.861774e+003,1.597544e-001
6.865631e+003,1.574305e-001
6.869488e+003,1.629070e-001
6.873346e+003,1.615608e-001
6.877203e+003,1.578219e-001
6.881060e+003,1.542537e-001
6.884917e+003,1.604408e-001
6.888774e+003,1.605402e-001
6.892631e+003,1.512237e-001
6.896488e+003,1.715944e-001
6.900345e+003,1.704815e-001
6.904202e+003,1.587075e-001
6.908060e+003,1.423855e-001
6.911917e+003,1.457791e-001
6.915773e+003,1.535339e-001
6.919631e+003,1.448757e-001
6.923488e+003,1.381599e-001
6.927345e+003,1.264767e-001
6.931202e+003,1.415614e-001
6.935059e+003,1.702795e-001
6.938916e+003,1.824033e-001
6.942773e+003,1.957378e-001
6.946630e+003,1.888839e-001
6.950487e+003,1.787536e-001
6.954345e+003,1.742802e-001
6.958202e+003,1.631788e-001
6.962059e+003,1.440864e-001
6.965916e+003,1.428944e-001
6.969773e+003,1.303925e-001
6.973630e+003,1.403862e-001
6.977487e+003,1.491185e-001
6.981344e+003,1.407863e-001
6.985201e+003,1.328906e-001
6.989059e+003,1.307400e-001
6.992916e+003,1.185714e-001
6.996772e+003,1.314163e-001
7.000630e+003,1.470371e-001
7.004487e+003,1.381376e-001
7.008344e+003,1.510125e-001
7.012201e+003,1.608948e-001
7.016058e+003,1.551744e-001
7.019915e+003,1.658624e-001
7.023772e+003,1.780739e-001
7.027629e+003,1.662412e-001
7.031486e+003,1.602236e-001
7.035344e+003,1.504117e-001
7.039201e+003,1.497772e-001
7.043058e+003,1.645298e-001
7.046915e+003,1.563825e-001
7.050772e+003,1.295413e-001
7.054629e+003,1.398328e-001
7.058486e+003,1.650599e-001
7.062343e+003,1.514706e-001
7.066200e+003,1.453437e-001
7.070058e+003,1.694853e-001
7.073915e+003,1.577612e-001
7.077771e+003,1.234256e-001
7.081629e+003,1.184166e-001
7.085486e+003,1.280933e-001
7.089343e+003,1.314115e-001
7.093200e+003,1.165138e-001
7.097057e+003,1.176933e-001
7.100914e+003,1.433806e-001
7.104771e+003,1.448309e-001
7.108628e+003,1.579114e-001
7.112485e+003,1.497516e-001
7.116343e+003,1.331393e-001
7.120200e+003,1.105668e-001
7.124057e+003,1.229284e-001
7.127914e+003,1.555595e-001
7.131771e+003,1.615824e-001
7.135628e+003,1.425774e-001
7.139485e+003,1.454574e-001
7.143342e+003,1.458688e-001
7.147199e+003,1.458194e-001
7.151057e+003,1.529684e-001
7.154914e+003,1.607745e-001
7.158771e+003,1.781134e-001
7.162628e+003,1.592605e-001
7.166485e+003,1.541117e-001
7.170342e+003,1.504597e-001
7.174199e+003,1.300393e-001
7.178056e+003,1.371458e-001
7.181913e+003,1.791842e-001
7.185771e+003,1.925858e-001
7.189627e+003,1.947224e-001
7.193484e+003,1.700867e-001
7.197342e+003,1.337282e-001
7.201199e+003,1.297812e-001
7.205056e+003,1.409882e-001
7.208913e+003,1.373532e-001
7.212770e+003,1.561350e-001
7.216627e+003,1.573556e-001
7.220484e+003,1.507672e-001
7.224341e+003,1.436811e-001
7.228198e+003,1.360327e-001
7.232056e+003,1.397429e-001
7.235913e+003,1.427308e-001
7.239770e+003,1.601895e-001
7.243627e+003,1.564300e-001
7.247484e+003,1.547165e-001
7.251341e+003,1.537751e-001
7.255198e+003,1.409327e-001
7.259055e+003,1.741297e-001
7.262912e+003,2.052475e-001
7.266770e+003,1.945079e-001
7.270626e+003,1.949838e-001
7.274483e+003,1.707488e-001
7.278341e+003,1.613317e-001
7.282198e+003,1.778238e-001
7.286055e+003,1.788954e-001
7.289912e+003,1.836463e-001
7.293769e+003,1.606015e-001
7.297626e+003,1.402465e-001
7.301483e+003,1.200212e-001
7.305340e+003,1.184540e-001
7.309197e+003,1.318232e-001
7.313055e+003,1.239578e-001
7.316912e+003,1.313477e-001
7.320769e+003,1.341109e-001
7.324626e+003,1.465763e-001
7.328483e+003,1.360052e-001
7.332340e+003,1.378219e-001
7.336197e+003,1.515659e-001
7.340054e+003,1.560115e-001
7.343911e+003,1.525888e-001
7.347769e+003,1.367537e-001
7.351625e+003,1.193302e-001
7.355482e+003,1.135779e-001
7.359340e+003,1.498354e-001
7.363197e+003,1.816839e-001
7.367054e+003,1.908031e-001
7.370911e+003,1.893258e-001
7.374768e+003,1.815024e-001
7.378625e+003,1.796985e-001
7.382482e+003,1.708151e-001
7.386339e+003,1.473237e-001
7.390196e+003,1.271249e-001
7.394054e+003,1.365329e-001
7.397911e+003,1.393352e-001
7.401768e+003,1.324829e-001
7.405625e+003,1.392214e-001
7.409482e+003,1.418656e-001
7.413339e+003,1.181373e-001
7.417196e+003,9.516401e-002
7.421053e+003,1.067258e-001
7.424910e+003,1.162414e-001
7.428768e+003,1.255902e-001
7.432625e+003,1.353558e-001
7.436481e+003,1.595813e-001
7.440339e+003,1.523549e-001
7.444196e+003,1.215524e-001
7.448053e+003,1.228677e-001
7.451910e+003,1.327353e-001
7.455767e+003,1.193426e-001
7.459624e+003,1.249517e-001
7.463481e+003,1.444605e-001
7.467338e+003,1.664302e-001
7.471195e+003,1.538186e-001
7.475053e+003,1.320675e-001
7.478910e+003,1.395912e-001
7.482767e+003,1.397397e-001
7.486624e+003,1.670520e-001
7.490481e+003,1.835966e-001
7.494338e+003,1.852396e-001
7.498195e+003,1.763714e-001
7.502052e+003,1.673906e-001
7.505909e+003,1.241876e-001
7.509767e+003,7.740308e-002
7.513624e+003,9.561075e-002
7.517480e+003,1.392116e-001
7.521338e+003,1.791461e-001
7.525195e+003,1.463257e-001
7.529052e+003,1.212413e-001
7.532909e+003,1.592157e-001
7.536766e+003,1.988284e-001
7.540623e+003,2.035428e-001
7.544480e+003,1.631038e-001
7.548337e+003,1.624822e-001
7.552194e+003,1.639829e-001
7.556052e+003,1.696346e-001
7.559909e+003,1.564067e-001
7.563766e+003,1.421161e-001
7.567623e+003,1.308547e-001
7.571480e+003,1.283752e-001
7.575337e+003,1.409969e-001
7.579194e+003,1.267044e-001
7.583051e+003,1.393843e-001
7.586908e+003,1.490918e-001
7.590766e+003,1.515189e-001
7.594623e+003,1.718657e-001
7.598479e+003,1.607769e-001
7.602337e+003,1.501507e-001
7.606194e+003,1.541249e-001
7.610051e+003,1.515101e-001
7.613908e+003,1.432112e-001
7.617765e+003,1.089180e-001
7.621622e+003,1.037337e-001
7.625479e+003,1.592238e-001
7.629336e+003,2.151462e-001
7.633193e+003,1.979326e-001
7.637051e+003,2.087597e-001
7.640908e+003,2.189273e-001
7.644765e+003,1.894589e-001
7.648622e+003,1.609187e-001
7.652479e+003,1.139006e-001
7.656336e+003,1.120473e-001
7.660193e+003,1.465947e-001
7.664050e+003,1.643537e-001
7.667907e+003,1.762117e-001
7.671765e+003,1.805497e-001
7.675622e+003,1.342137e-001
7.679479e+003,1.272447e-001
7.683336e+003,1.353944e-001
7.687193e+003,1.438021e-001
7.691050e+003,1.481725e-001
7.694907e+003,7.563489e-002
7.698764e+003,8.758727e-002
7.702621e+003,1.372925e-001
7.706479e+003,1.593910e-001
7.710335e+003,1.600271e-001
7.714192e+003,1.780633e-001
7.718050e+003,2.090166e-001
7.721907e+003,1.596682e-001
7.725764e+003,1.473968e-001
7.729621e+003,1.759402e-001
7.733478e+003,1.471279e-001
7.737335e+003,1.106636e-001
7.741192e+003,1.313799e-001
7.745049e+003,1.420017e-001
7.748906e+003,1.886813e-001
7.752764e+003,2.523943e-001
7.756621e+003,2.156818e-001
7.760478e+003,1.840561e-001
7.764335e+003,1.276322e-001
7.768192e+003,1.126385e-001
7.772049e+003,1.727090e-001
7.775906e+003,1.932927e-001
7.779763e+003,2.239722e-001
7.783620e+003,2.166932e-001
7.787478e+003,2.196858e-001
7.791334e+003,2.046173e-001
7.795191e+003,1.664573e-001
7.799049e+003,1.680141e-001
7.802906e+003,1.684672e-001
7.806763e+003,1.310274e-001
7.810620e+003,1.190912e-001
7.814477e+003,1.356873e-001
7.818334e+003,1.738635e-001
7.822191e+003,1.693024e-001
7.826048e+003,1.990384e-001
7.829905e+003,2.102842e-001
7.833763e+003,1.441402e-001
7.837620e+003,9.576703e-002
7.841477e+003,1.264955e-001
7.845334e+003,1.076488e-001
7.849191e+003,1.454314e-001
7.853048e+003,2.288335e-001
7.856905e+003,2.711214e-001
7.860762e+003,1.981538e-001
7.864619e+003,7.620963e-002
7.868477e+003,1.038734e-001
7.872333e+003,2.032757e-001
7.876190e+003,2.329288e-001
7.880048e+003,1.993093e-001
7.883905e+003,1.361680e-001
7.887762e+003,1.271224e-001
7.891619e+003,1.559879e-001
7.895476e+003,2.116787e-001
7.899333e+003,1.558859e-001
7.903190e+003,1.306038e-001
7.907047e+003,1.715244e-001
7.910904e+003,1.446845e-001
7.914762e+003,1.404635e-001
7.918619e+003,1.948941e-001
7.922476e+003,2.630633e-001
7.926333e+003,2.704946e-001
7.930190e+003,2.798900e-001
7.934047e+003,1.668693e-001
7.937904e+003,9.284668e-002
7.941761e+003,1.114863e-001
7.945618e+003,1.164504e-001
7.949476e+003,1.118848e-001
7.953333e+003,1.024784e-001
7.957189e+003,9.879632e-002
7.961047e+003,1.190546e-001
7.964904e+003,1.353882e-001
7.968761e+003,8.646949e-002
7.972618e+003,2.910331e-002
7.976475e+003,1.145444e-001
7.980332e+003,2.719127e-001
7.984189e+003,2.766191e-001
7.988046e+003,1.444962e-001
7.991903e+003,2.775607e-002
7.995761e+003,6.027312e-002
7.999618e+003,1.629609e-001
