4.011380e+002,8.306319e-001
4.049951e+002,1.271560e-001
4.088522e+002,-1.615077e+000
4.127093e+002,6.000000e+000
4.165664e+002,6.000000e+000
4.204235e+002,6.000000e+000
4.242806e+002,1.284180e+000
4.281377e+002,-5.792906e-001
4.319948e+002,-2.422498e-001
4.358519e+002,6.089676e-001
4.397090e+002,4.665882e-001
4.435661e+002,1.968051e-001
4.474232e+002,7.795154e-002
4.512803e+002,6.000000e+000
4.551374e+002,-7.081837e-001
4.589945e+002,-2.675656e-001
4.628516e+002,3.301222e-001
4.667087e+002,6.858925e-001
4.705658e+002,6.000000e+000
4.744229e+002,2.012876e-001
4.782800e+002,3.614514e-001
4.821371e+002,1.017760e+000
4.859941e+002,6.000000e+000
4.898513e+002,-3.219523e-002
4.937083e+002,6.000000e+000
4.975654e+002,-4.327575e-001
5.014225e+002,6.000000e+000
5.052796e+002,-2.831238e-002
5.091367e+002,-1.309914e-001
5.129938e+002,-1.393296e-001
5.168509e+002,-4.062472e-001
5.207080e+002,-5.306227e-001
5.245651e+002,2.532790e-001
5.284222e+002,6.000000e+000
5.322793e+002,-7.491001e-002
5.361364e+002,6.000000e+000
5.399935e+002,6.000000e+000
5.438506e+002,-1.927105e-001
5.477077e+002,-6.816127e-001
5.515648e+002,-9.501950e-001
5.554219e+002,6.000000e+000
5.592790e+002,1.008262e+000
5.631361e+002,6.000000e+000
5.669932e+002,-3.103170e-001
5.708503e+002,1.553468e-001
5.747074e+002,6.000000e+000
5.785645e+002,-9.686065e-002
5.824216e+002,-1.664876e-001
5.862787e+002,6.000000e+000
5.901357e+002,6.000000e+000
5.939929e+002,-6.766668e-001
5.978499e+002,-6.943412e-001
6.017070e+002,-4.649180e-001
6.055641e+002,4.773578e-002
6.094212e+002,6.000000e+000
6.132783e+002,6.000000e+000
6.171354e+002,-1.051676e+000
6.209925e+002,6.000000e+000
6.248496e+002,6.000000e+000
6.287067e+002,6.000000e+000
6.325638e+002,1.225580e-001
6.364209e+002,-6.574155e-002
6.402780e+002,-2.674797e-001
6.441351e+002,7.430155e-003
6.479922e+002,-2.722978e-001
6.518493e+002,1.787096e-002
6.557064e+002,6.000000e+000
6.595635e+002,-9.711498e-001
6.634205e+002,2.344897e-001
6.672777e+002,6.000000e+000
6.711348e+002,6.000000e+000
6.749918e+002,6.000000e+000
6.788490e+002,6.000000e+000
6.827061e+002,6.000000e+000
6.865631e+002,-2.487043e-001
6.904203e+002,6.649719e-001
6.942773e+002,6.000000e+000
6.981344e+002,8.017945e-001
7.019916e+002,6.000000e+000
7.058486e+002,6.000000e+000
7.097057e+002,6.000000e+000
7.135629e+002,1.257480e+000
7.174199e+002,3.500874e-002
7.212770e+002,-2.876531e-001
7.251342e+002,6.000000e+000
7.289912e+002,6.000000e+000
7.328483e+002,6.000000e+000
7.367054e+002,-4.404373e-001
7.405625e+002,6.000000e+000
7.444196e+002,6.000000e+000
7.482767e+002,-3.210914e-001
7.521338e+002,2.067319e-001
7.559908e+002,2.215802e-001
7.598480e+002,1.297647e+000
7.637051e+002,-1.823999e-001
7.675621e+002,6.000000e+000
7.714193e+002,6.000000e+000
7.752764e+002,6.000000e+000
7.791334e+002,1.360876e-001
7.829905e+002,7.036369e-002
7.868477e+002,-4.983986e-001
7.907047e+002,6.000000e+000
7.945618e+002,6.414894e-001
7.984189e+002,6.000000e+000
8.022760e+002,6.000000e+000
8.061331e+002,6.000000e+000
8.099902e+002,6.000000e+000
8.138473e+002,1.986878e-001
8.177044e+002,-9.743144e-002
8.215615e+002,1.054213e+000
8.254186e+002,6.000000e+000
8.292757e+002,3.574105e-001
8.331328e+002,1.829178e-001
8.369899e+002,2.491975e-001
8.408470e+002,4.761679e-001
8.447041e+002,6.403833e-001
8.485612e+002,7.913032e-001
8.524183e+002,6.000000e+000
8.562754e+002,6.000000e+000
8.601324e+002,6.000000e+000
8.639896e+002,6.000000e+000
8.678467e+002,6.000000e+000
8.717037e+002,1.681174e+000
8.755609e+002,1.237610e+000
8.794180e+002,1.069177e+000
8.832750e+002,1.045552e+000
8.871321e+002,9.277132e-001
8.909893e+002,8.711044e-001
8.948463e+002,8.955888e-001
8.987034e+002,1.150625e+000
9.025605e+002,6.000000e+000
9.064176e+002,6.000000e+000
9.102747e+002,6.000000e+000
9.141318e+002,1.727494e+000
9.179889e+002,3.047726e+000
9.218461e+002,1.568425e+000
9.257031e+002,1.336379e+000
9.295602e+002,6.000000e+000
9.334174e+002,2.054178e+000
9.372744e+002,1.684256e+000
9.411315e+002,1.832826e+000
9.449886e+002,1.835910e+000
9.488457e+002,1.504728e+000
9.527028e+002,1.149853e+000
9.565599e+002,1.183683e+000
9.604170e+002,1.565542e+000
9.642740e+002,1.521016e+000
9.681312e+002,1.664590e+000
9.719883e+002,1.939215e+000
9.758453e+002,1.638726e+000
9.797025e+002,1.515735e+000
9.835596e+002,1.465794e+000
9.874166e+002,1.473336e+000
9.912738e+002,1.690306e+000
9.951309e+002,1.884764e+000
9.989879e+002,2.076192e+000
1.002845e+003,2.110067e+000
1.006702e+003,1.691698e+000
1.010559e+003,1.637289e+000
1.014416e+003,1.446620e+000
1.018273e+003,1.283650e+000
1.022130e+003,1.214686e+000
1.025988e+003,1.244779e+000
1.029845e+003,1.523627e+000
1.033702e+003,1.904445e+000
1.037559e+003,1.691160e+000
1.041416e+003,1.642727e+000
1.045273e+003,1.684568e+000
1.049130e+003,1.690901e+000
1.052987e+003,1.440982e+000
1.056844e+003,1.395066e+000
1.060702e+003,1.671510e+000
1.064559e+003,1.621920e+000
1.068416e+003,1.391733e+000
1.072273e+003,1.360817e+000
1.076130e+003,1.394888e+000
1.079987e+003,1.487901e+000
1.083844e+003,1.417979e+000
1.087701e+003,1.420777e+000
1.091558e+003,1.458712e+000
1.095415e+003,1.326841e+000
1.099272e+003,1.294707e+000
1.103130e+003,1.387955e+000
1.106987e+003,1.529423e+000
1.110844e+003,1.504135e+000
1.114701e+003,1.437112e+000
1.118558e+003,1.493954e+000
1.122415e+003,1.409667e+000
1.126272e+003,1.324479e+000
1.130129e+003,1.259340e+000
1.133986e+003,1.271224e+000
1.137843e+003,1.310998e+000
1.141701e+003,1.311280e+000
1.145558e+003,1.337158e+000
1.149415e+003,1.345833e+000
1.153272e+003,1.342832e+000
1.157129e+003,1.331762e+000
1.160986e+003,1.247919e+000
1.164843e+003,1.234011e+000
1.168700e+003,1.283231e+000
1.172557e+003,1.317145e+000
1.176414e+003,1.383583e+000
1.180271e+003,1.360850e+000
1.184129e+003,1.374318e+000
1.187986e+003,1.397253e+000
1.191843e+003,1.330805e+000
1.195700e+003,1.286752e+000
1.199557e+003,1.268322e+000
1.203414e+003,1.242658e+000
1.207271e+003,1.209947e+000
1.211128e+003,1.208602e+000
1.214985e+003,1.164943e+000
1.218842e+003,1.042672e+000
1.222699e+003,1.001273e+000
1.226557e+003,1.004405e+000
1.230414e+003,1.010098e+000
1.234271e+003,9.855521e-001
1.238128e+003,9.607685e-001
1.241985e+003,9.320282e-001
1.245842e+003,8.690552e-001
1.249699e+003,8.156710e-001
1.253556e+003,7.763296e-001
1.257413e+003,7.592411e-001
1.261271e+003,7.383776e-001
1.265128e+003,7.082426e-001
1.268985e+003,6.830797e-001
1.272842e+003,6.599603e-001
1.276699e+003,6.490843e-001
1.280556e+003,6.396318e-001
1.284413e+003,6.149378e-001
1.288270e+003,5.899119e-001
1.292127e+003,5.929499e-001
1.295984e+003,5.884221e-001
1.299841e+003,5.682199e-001
1.303698e+003,5.585998e-001
1.307556e+003,5.550866e-001
1.311413e+003,5.435763e-001
1.315270e+003,5.448017e-001
1.319127e+003,5.429448e-001
1.322984e+003,5.309436e-001
1.326841e+003,5.253717e-001
1.330698e+003,5.286723e-001
1.334555e+003,5.322437e-001
1.338412e+003,5.315747e-001
1.342270e+003,5.263584e-001
1.346127e+003,5.276065e-001
1.349984e+003,5.283521e-001
1.353841e+003,5.281525e-001
1.357698e+003,5.272865e-001
1.361555e+003,5.297359e-001
1.365412e+003,5.273058e-001
1.369269e+003,5.307555e-001
1.373126e+003,5.374295e-001
1.376983e+003,5.511778e-001
1.380840e+003,5.563323e-001
1.384698e+003,5.644614e-001
1.388555e+003,5.810567e-001
1.392412e+003,5.980706e-001
1.396269e+003,6.005584e-001
1.400126e+003,6.069028e-001
1.403983e+003,6.275281e-001
1.407840e+003,6.524265e-001
1.411697e+003,6.728589e-001
1.415554e+003,6.845647e-001
1.419411e+003,6.802120e-001
1.423269e+003,6.879462e-001
1.427126e+003,6.968483e-001
1.430983e+003,7.048047e-001
1.434840e+003,7.125306e-001
1.438697e+003,7.071194e-001
1.442554e+003,6.991387e-001
1.446411e+003,6.913080e-001
1.450268e+003,6.827113e-001
1.454125e+003,6.870838e-001
1.457982e+003,6.838267e-001
1.461839e+003,6.687969e-001
1.465697e+003,6.574718e-001
1.469554e+003,6.474024e-001
1.473411e+003,6.383881e-001
1.477268e+003,6.541490e-001
1.481125e+003,6.789966e-001
1.484982e+003,6.849430e-001
1.488839e+003,6.980802e-001
1.492696e+003,7.101187e-001
1.496553e+003,7.166051e-001
1.500411e+003,7.288297e-001
1.504268e+003,7.269102e-001
1.508125e+003,7.287427e-001
1.511982e+003,7.372431e-001
1.515839e+003,7.335790e-001
1.519696e+003,7.276368e-001
1.523553e+003,7.179834e-001
1.527410e+003,7.064653e-001
1.531267e+003,7.009696e-001
1.535124e+003,6.866516e-001
1.538981e+003,6.775116e-001
1.542839e+003,6.679827e-001
1.546696e+003,6.503338e-001
1.550553e+003,6.306768e-001
1.554410e+003,6.199412e-001
1.558267e+003,6.132318e-001
1.562124e+003,6.044344e-001
1.565981e+003,5.907328e-001
1.569838e+003,5.862643e-001
1.573695e+003,5.872818e-001
1.577552e+003,5.812557e-001
1.581410e+003,5.736197e-001
1.585267e+003,5.772715e-001
1.589124e+003,5.821466e-001
1.592981e+003,5.921634e-001
1.596838e+003,6.051958e-001
1.600695e+003,6.117865e-001
1.604552e+003,6.238269e-001
1.608409e+003,6.458274e-001
1.612266e+003,6.731008e-001
1.616123e+003,7.106722e-001
1.619980e+003,7.417811e-001
1.623838e+003,7.487412e-001
1.627695e+003,7.697210e-001
1.631552e+003,7.969193e-001
1.635409e+003,8.028977e-001
1.639266e+003,7.913792e-001
1.643123e+003,7.789550e-001
1.646980e+003,7.691590e-001
1.650837e+003,7.641395e-001
1.654694e+003,7.466292e-001
1.658551e+003,7.248778e-001
1.662409e+003,6.990277e-001
1.666266e+003,6.752535e-001
1.670123e+003,6.579393e-001
1.673980e+003,6.350351e-001
1.677837e+003,6.063383e-001
1.681694e+003,5.873494e-001
1.685551e+003,5.669050e-001
1.689408e+003,5.503357e-001
1.693265e+003,5.349857e-001
1.697122e+003,5.248612e-001
1.700979e+003,5.179193e-001
1.704837e+003,5.058414e-001
1.708694e+003,4.950216e-001
1.712551e+003,4.874705e-001
1.716408e+003,4.807969e-001
1.720265e+003,4.784686e-001
1.724122e+003,4.735223e-001
1.727979e+003,4.723078e-001
1.731836e+003,4.712054e-001
1.735693e+003,4.646569e-001
1.739550e+003,4.653352e-001
1.743408e+003,4.641631e-001
1.747265e+003,4.607351e-001
1.751122e+003,4.566727e-001
1.754979e+003,4.530354e-001
1.758836e+003,4.529348e-001
1.762693e+003,4.535867e-001
1.766550e+003,4.499783e-001
1.770407e+003,4.487442e-001
1.774264e+003,4.496282e-001
1.778121e+003,4.465103e-001
1.781979e+003,4.444610e-001
1.785836e+003,4.432048e-001
1.789693e+003,4.403405e-001
1.793550e+003,4.337331e-001
1.797407e+003,4.291151e-001
1.801264e+003,4.266786e-001
1.805121e+003,4.284499e-001
1.808978e+003,4.328834e-001
1.812835e+003,4.356889e-001
1.816692e+003,4.338997e-001
1.820549e+003,4.297809e-001
1.824407e+003,4.293605e-001
1.828264e+003,4.256941e-001
1.832121e+003,4.210154e-001
1.835978e+003,4.175185e-001
1.839835e+003,4.190171e-001
1.843692e+003,4.204995e-001
1.847549e+003,4.198667e-001
1.851406e+003,4.213340e-001
1.855263e+003,4.197747e-001
1.859120e+003,4.170568e-001
1.862978e+003,4.192547e-001
1.866835e+003,4.154922e-001
1.870692e+003,4.139959e-001
1.874549e+003,4.194937e-001
1.878406e+003,4.169230e-001
1.882263e+003,4.129954e-001
1.886120e+003,4.131753e-001
1.889977e+003,4.131047e-001
1.893834e+003,4.128669e-001
1.897691e+003,4.086659e-001
1.901548e+003,4.041718e-001
1.905406e+003,4.072448e-001
1.909263e+003,4.080789e-001
1.913120e+003,4.025151e-001
1.916977e+003,3.995312e-001
1.920834e+003,4.005209e-001
1.924691e+003,4.010444e-001
1.928548e+003,4.038935e-001
1.932405e+003,4.037980e-001
1.936262e+003,3.993582e-001
1.940119e+003,3.979930e-001
1.943977e+003,3.991422e-001
1.947834e+003,3.994323e-001
1.951691e+003,3.953524e-001
1.955548e+003,3.908823e-001
1.959405e+003,3.901473e-001
1.963262e+003,3.893213e-001
1.967119e+003,3.871823e-001
1.970976e+003,3.835492e-001
1.974833e+003,3.799453e-001
1.978690e+003,3.783815e-001
1.982547e+003,3.761722e-001
1.986405e+003,3.792768e-001
1.990262e+003,3.807673e-001
1.994119e+003,3.750452e-001
1.997976e+003,3.712917e-001
2.001833e+003,3.743193e-001
2.005690e+003,3.742827e-001
2.009547e+003,3.726577e-001
2.013404e+003,3.719675e-001
2.017261e+003,3.733414e-001
2.021118e+003,3.699057e-001
2.024976e+003,3.674585e-001
2.028833e+003,3.683121e-001
2.032690e+003,3.654184e-001
2.036547e+003,3.605850e-001
2.040404e+003,3.591689e-001
2.044261e+003,3.596337e-001
2.048118e+003,3.590959e-001
2.051975e+003,3.575094e-001
2.055832e+003,3.552972e-001
2.059689e+003,3.581233e-001
2.063546e+003,3.576887e-001
2.067404e+003,3.560884e-001
2.071261e+003,3.562418e-001
2.075118e+003,3.527334e-001
2.078975e+003,3.506712e-001
2.082832e+003,3.521064e-001
2.086689e+003,3.540039e-001
2.090546e+003,3.552778e-001
2.094403e+003,3.543914e-001
2.098260e+003,3.548021e-001
2.102117e+003,3.515704e-001
2.105975e+003,3.506359e-001
2.109832e+003,3.486057e-001
2.113689e+003,3.499959e-001
2.117546e+003,3.517011e-001
2.121403e+003,3.489142e-001
2.125260e+003,3.464285e-001
2.129117e+003,3.498562e-001
2.132974e+003,3.537347e-001
2.136831e+003,3.561077e-001
2.140688e+003,3.561333e-001
2.144545e+003,3.540500e-001
2.148403e+003,3.518208e-001
2.152260e+003,3.540733e-001
2.156117e+003,3.560035e-001
2.159974e+003,3.539369e-001
2.163831e+003,3.518283e-001
2.167688e+003,3.541266e-001
2.171545e+003,3.558274e-001
2.175402e+003,3.560987e-001
2.179259e+003,3.537489e-001
2.183116e+003,3.514151e-001
2.186974e+003,3.527977e-001
2.190831e+003,3.576759e-001
2.194688e+003,3.561239e-001
2.198545e+003,3.542075e-001
2.202402e+003,3.561929e-001
2.206259e+003,3.571815e-001
2.210116e+003,3.612209e-001
2.213973e+003,3.626546e-001
2.217830e+003,3.609984e-001
2.221688e+003,3.626906e-001
2.225544e+003,3.643494e-001
2.229402e+003,3.664691e-001
2.233259e+003,3.670609e-001
2.237116e+003,3.684822e-001
2.240973e+003,3.716962e-001
2.244830e+003,3.690124e-001
2.248687e+003,3.708017e-001
2.252544e+003,3.766894e-001
2.256401e+003,3.750886e-001
2.260258e+003,3.701434e-001
2.264115e+003,3.681856e-001
2.267973e+003,3.685238e-001
2.271830e+003,3.695040e-001
2.275687e+003,3.722067e-001
2.279544e+003,3.717563e-001
2.283401e+003,3.685526e-001
2.287258e+003,3.687703e-001
2.291115e+003,3.699566e-001
2.294972e+003,3.707494e-001
2.298829e+003,3.704371e-001
2.302687e+003,3.702114e-001
2.306543e+003,3.696764e-001
2.310401e+003,3.673483e-001
2.314258e+003,3.736780e-001
2.318115e+003,3.754487e-001
2.321972e+003,3.715581e-001
2.325829e+003,3.752325e-001
2.329686e+003,3.786355e-001
2.333543e+003,3.789596e-001
2.337400e+003,3.782440e-001
2.341257e+003,3.779097e-001
2.345115e+003,3.778856e-001
2.348972e+003,3.769374e-001
2.352829e+003,3.769398e-001
2.356686e+003,3.730260e-001
2.360543e+003,3.733145e-001
2.364400e+003,3.787785e-001
2.368257e+003,3.760387e-001
2.372114e+003,3.710555e-001
2.375971e+003,3.699954e-001
2.379828e+003,3.648395e-001
2.383686e+003,3.602546e-001
2.387542e+003,3.649544e-001
2.391400e+003,3.692042e-001
2.395257e+003,3.660855e-001
2.399114e+003,3.676076e-001
2.402971e+003,3.705102e-001
2.406828e+003,3.653644e-001
2.410685e+003,3.621123e-001
2.414542e+003,3.648435e-001
2.418399e+003,3.645188e-001
2.422256e+003,3.599775e-001
2.426114e+003,3.567922e-001
2.429971e+003,3.600613e-001
2.433828e+003,3.635865e-001
2.437685e+003,3.591493e-001
2.441542e+003,3.551984e-001
2.445399e+003,3.586436e-001
2.449256e+003,3.616131e-001
2.453113e+003,3.571322e-001
2.456970e+003,3.537405e-001
2.460827e+003,3.535531e-001
2.464684e+003,3.539352e-001
2.468542e+003,3.544234e-001
2.472399e+003,3.542350e-001
2.476256e+003,3.484480e-001
2.480113e+003,3.491285e-001
2.483970e+003,3.586293e-001
2.487827e+003,3.607821e-001
2.491684e+003,3.563492e-001
2.495541e+003,3.537918e-001
2.499398e+003,3.551811e-001
2.503255e+003,3.563218e-001
2.507113e+003,3.567183e-001
2.510969e+003,3.520786e-001
2.514827e+003,3.540082e-001
2.518684e+003,3.576226e-001
2.522541e+003,3.546640e-001
2.526398e+003,3.566398e-001
2.530255e+003,3.575212e-001
2.534112e+003,3.579960e-001
2.537969e+003,3.607910e-001
2.541826e+003,3.578240e-001
2.545683e+003,3.571279e-001
2.549541e+003,3.640165e-001
2.553398e+003,3.627023e-001
2.557255e+003,3.617096e-001
2.561112e+003,3.639015e-001
2.564969e+003,3.655003e-001
2.568826e+003,3.670951e-001
2.572683e+003,3.678170e-001
2.576540e+003,3.652670e-001
2.580397e+003,3.655939e-001
2.584254e+003,3.702390e-001
2.588112e+003,3.772364e-001
2.591969e+003,3.802584e-001
2.595826e+003,3.807955e-001
2.599683e+003,3.827003e-001
2.603540e+003,3.884128e-001
2.607397e+003,3.908128e-001
2.611254e+003,3.918344e-001
2.615111e+003,3.918891e-001
2.618968e+003,3.917424e-001
2.622825e+003,3.935970e-001
2.626682e+003,3.952336e-001
2.630540e+003,4.000629e-001
2.634397e+003,4.066266e-001
2.638254e+003,4.077626e-001
2.642111e+003,4.081005e-001
2.645968e+003,4.091993e-001
2.649825e+003,4.085703e-001
2.653682e+003,4.116451e-001
2.657539e+003,4.168149e-001
2.661396e+003,4.186193e-001
2.665253e+003,4.197461e-001
2.669111e+003,4.208067e-001
2.672968e+003,4.229246e-001
2.676825e+003,4.283685e-001
2.680682e+003,4.310827e-001
2.684539e+003,4.292754e-001
2.688396e+003,4.295447e-001
2.692253e+003,4.352395e-001
2.696110e+003,4.387767e-001
2.699967e+003,4.411898e-001
2.703824e+003,4.532726e-001
2.707681e+003,4.578516e-001
2.711539e+003,4.561070e-001
2.715396e+003,4.615107e-001
2.719253e+003,4.639347e-001
2.723110e+003,4.601879e-001
2.726967e+003,4.623906e-001
2.730824e+003,4.678612e-001
2.734681e+003,4.751824e-001
2.738538e+003,4.748725e-001
2.742395e+003,4.766432e-001
2.746252e+003,4.819997e-001
2.750110e+003,4.803134e-001
2.753967e+003,4.836144e-001
2.757824e+003,4.882334e-001
2.761681e+003,4.917149e-001
2.765538e+003,4.936197e-001
2.769395e+003,4.983522e-001
2.773252e+003,5.005955e-001
2.777109e+003,5.043954e-001
2.780966e+003,5.104986e-001
2.784823e+003,5.175971e-001
2.788680e+003,5.230148e-001
2.792538e+003,5.232850e-001
2.796395e+003,5.252363e-001
2.800252e+003,5.331954e-001
2.804109e+003,5.394644e-001
2.807966e+003,5.433894e-001
2.811823e+003,5.428977e-001
2.815680e+003,5.446724e-001
2.819537e+003,5.476788e-001
2.823394e+003,5.542307e-001
2.827251e+003,5.577222e-001
2.831109e+003,5.577102e-001
2.834966e+003,5.620475e-001
2.838823e+003,5.668207e-001
2.842680e+003,5.685587e-001
2.846537e+003,5.678033e-001
2.850394e+003,5.769067e-001
2.854251e+003,5.800165e-001
2.858108e+003,5.827485e-001
2.861965e+003,5.841170e-001
2.865823e+003,5.898659e-001
2.869679e+003,6.043147e-001
2.873537e+003,6.153620e-001
2.877394e+003,6.163945e-001
2.881251e+003,6.187568e-001
2.885108e+003,6.186167e-001
2.888965e+003,6.186381e-001
2.892822e+003,6.282904e-001
2.896679e+003,6.381136e-001
2.900536e+003,6.393976e-001
2.904393e+003,6.421817e-001
2.908250e+003,6.462654e-001
2.912108e+003,6.600881e-001
2.915965e+003,6.731863e-001
2.919822e+003,6.760155e-001
2.923679e+003,6.760943e-001
2.927536e+003,6.786030e-001
2.931393e+003,6.800029e-001
2.935250e+003,6.803840e-001
2.939107e+003,6.805785e-001
2.942964e+003,6.892583e-001
2.946822e+003,6.992867e-001
2.950678e+003,7.080367e-001
2.954536e+003,7.126220e-001
2.958393e+003,7.199207e-001
2.962250e+003,7.330648e-001
2.966107e+003,7.395291e-001
2.969964e+003,7.337438e-001
2.973821e+003,7.364946e-001
2.977678e+003,7.535695e-001
2.981535e+003,7.574615e-001
2.985392e+003,7.521104e-001
2.989250e+003,7.563401e-001
2.993107e+003,7.545106e-001
2.996964e+003,7.562852e-001
3.000821e+003,7.715704e-001
3.004678e+003,7.818070e-001
3.008535e+003,7.903512e-001
3.012392e+003,8.019384e-001
3.016249e+003,8.054491e-001
3.020106e+003,8.137199e-001
3.023963e+003,8.213347e-001
3.027821e+003,8.281367e-001
3.031677e+003,8.301442e-001
3.035535e+003,8.305435e-001
3.039392e+003,8.327424e-001
3.043249e+003,8.317131e-001
3.047106e+003,8.361806e-001
3.050963e+003,8.599142e-001
3.054820e+003,8.841898e-001
3.058677e+003,8.850570e-001
3.062534e+003,8.785586e-001
3.066391e+003,8.791613e-001
3.070249e+003,8.766885e-001
3.074106e+003,8.806533e-001
3.077963e+003,8.934938e-001
3.081820e+003,9.102069e-001
3.085677e+003,9.114089e-001
3.089534e+003,9.137912e-001
3.093391e+003,9.225911e-001
3.097248e+003,9.415877e-001
3.101105e+003,9.426715e-001
3.104962e+003,9.396201e-001
3.108820e+003,9.585393e-001
3.112677e+003,9.749880e-001
3.116534e+003,9.749796e-001
3.120391e+003,9.814224e-001
3.124248e+003,9.775356e-001
3.128105e+003,9.772911e-001
3.131962e+003,9.947602e-001
3.135819e+003,9.989574e-001
3.139676e+003,9.919264e-001
3.143533e+003,9.944112e-001
3.147390e+003,1.020613e+000
3.151248e+003,1.030967e+000
3.155105e+003,1.024823e+000
3.158962e+003,1.031693e+000
3.162819e+003,1.039053e+000
3.166676e+003,1.059971e+000
3.170533e+003,1.073842e+000
3.174390e+003,1.058587e+000
3.178247e+003,1.066990e+000
3.182104e+003,1.076744e+000
3.185961e+003,1.097754e+000
3.189819e+003,1.127138e+000
3.193676e+003,1.122786e+000
3.197533e+003,1.086651e+000
3.201390e+003,1.085774e+000
3.205247e+003,1.125696e+000
3.209104e+003,1.145838e+000
3.212961e+003,1.124488e+000
3.216818e+003,1.122296e+000
3.220675e+003,1.132704e+000
3.224532e+003,1.132546e+000
3.228389e+003,1.151548e+000
3.232247e+003,1.174532e+000
3.236104e+003,1.163992e+000
3.239961e+003,1.148974e+000
3.243818e+003,1.135497e+000
3.247675e+003,1.158298e+000
3.251532e+003,1.180468e+000
3.255389e+003,1.178822e+000
3.259246e+003,1.177360e+000
3.263103e+003,1.156462e+000
3.266960e+003,1.140793e+000
3.270818e+003,1.173005e+000
3.274675e+003,1.179242e+000
3.278532e+003,1.177704e+000
3.282389e+003,1.201912e+000
3.286246e+003,1.223236e+000
3.290103e+003,1.204312e+000
3.293960e+003,1.203941e+000
3.297817e+003,1.235031e+000
3.301674e+003,1.216218e+000
3.305531e+003,1.215668e+000
3.309388e+003,1.228917e+000
3.313246e+003,1.233524e+000
3.317103e+003,1.227002e+000
3.320960e+003,1.197757e+000
3.324817e+003,1.227089e+000
3.328674e+003,1.258685e+000
3.332531e+003,1.268946e+000
3.336388e+003,1.294816e+000
3.340245e+003,1.280521e+000
3.344102e+003,1.253776e+000
3.347959e+003,1.280172e+000
3.351817e+003,1.303308e+000
3.355674e+003,1.317966e+000
3.359531e+003,1.300167e+000
3.363388e+003,1.302115e+000
3.367245e+003,1.346727e+000
3.371102e+003,1.353954e+000
3.374959e+003,1.367081e+000
3.378816e+003,1.363183e+000
3.382673e+003,1.329352e+000
3.386530e+003,1.359220e+000
3.390387e+003,1.384227e+000
3.394245e+003,1.345440e+000
3.398102e+003,1.345942e+000
3.401959e+003,1.404335e+000
3.405816e+003,1.417273e+000
3.409673e+003,1.389891e+000
3.413530e+003,1.372454e+000
3.417387e+003,1.367527e+000
3.421244e+003,1.383513e+000
3.425101e+003,1.402990e+000
3.428958e+003,1.366592e+000
3.432815e+003,1.389605e+000
3.436673e+003,1.429843e+000
3.440530e+003,1.443967e+000
3.444387e+003,1.429240e+000
3.448244e+003,1.420618e+000
3.452101e+003,1.430376e+000
3.455958e+003,1.405823e+000
3.459815e+003,1.359819e+000
3.463672e+003,1.352015e+000
3.467529e+003,1.402254e+000
3.471386e+003,1.441019e+000
3.475244e+003,1.437795e+000
3.479101e+003,1.413662e+000
3.482958e+003,1.378683e+000
3.486815e+003,1.356565e+000
3.490672e+003,1.392109e+000
3.494529e+003,1.426254e+000
3.498386e+003,1.437165e+000
3.502243e+003,1.432562e+000
3.506100e+003,1.426976e+000
3.509958e+003,1.436434e+000
3.513814e+003,1.427812e+000
3.517672e+003,1.420340e+000
3.521529e+003,1.414372e+000
3.525386e+003,1.408503e+000
3.529243e+003,1.412979e+000
3.533100e+003,1.419035e+000
3.536957e+003,1.447688e+000
3.540814e+003,1.436632e+000
3.544671e+003,1.389741e+000
3.548528e+003,1.373697e+000
3.552385e+003,1.393735e+000
3.556243e+003,1.425579e+000
3.560100e+003,1.426183e+000
3.563957e+003,1.373168e+000
3.567814e+003,1.346450e+000
3.571671e+003,1.329271e+000
3.575528e+003,1.350230e+000
3.579385e+003,1.351250e+000
3.583242e+003,1.326100e+000
3.587099e+003,1.324898e+000
3.590957e+003,1.297129e+000
3.594813e+003,1.260746e+000
3.598671e+003,1.240835e+000
3.602528e+003,1.202302e+000
3.606385e+003,1.158127e+000
3.610242e+003,1.128793e+000
3.614099e+003,1.103666e+000
3.617956e+003,1.046548e+000
3.621813e+003,9.878068e-001
3.625670e+003,9.316678e-001
3.629527e+003,8.787014e-001
3.633385e+003,8.418843e-001
3.637242e+003,7.891645e-001
3.641099e+003,7.362336e-001
3.644956e+003,7.013236e-001
3.648813e+003,6.630840e-001
3.652670e+003,6.070829e-001
3.656527e+003,5.530505e-001
3.660384e+003,5.154386e-001
3.664241e+003,4.852983e-001
3.668098e+003,4.532543e-001
3.671956e+003,4.252195e-001
3.675813e+003,3.961598e-001
3.679670e+003,3.705400e-001
3.683527e+003,3.506424e-001
3.687384e+003,3.335337e-001
3.691241e+003,3.200677e-001
3.695098e+003,3.079838e-001
3.698955e+003,3.007555e-001
3.702812e+003,2.996217e-001
3.706669e+003,2.903076e-001
3.710526e+003,2.788418e-001
3.714384e+003,2.729666e-001
3.718241e+003,2.657925e-001
3.722098e+003,2.601106e-001
3.725955e+003,2.596051e-001
3.729812e+003,2.579571e-001
3.733669e+003,2.562866e-001
3.737526e+003,2.556912e-001
3.741383e+003,2.502362e-001
3.745240e+003,2.456908e-001
3.749097e+003,2.478892e-001
3.752955e+003,2.507209e-001
3.756812e+003,2.501731e-001
3.760669e+003,2.456308e-001
3.764526e+003,2.408242e-001
3.768383e+003,2.409030e-001
3.772240e+003,2.378686e-001
3.776097e+003,2.354598e-001
3.779954e+003,2.365500e-001
3.783811e+003,2.345049e-001
3.787668e+003,2.332696e-001
3.791525e+003,2.332187e-001
3.795383e+003,2.332106e-001
3.799240e+003,2.330623e-001
3.803097e+003,2.322876e-001
3.806954e+003,2.298785e-001
3.810811e+003,2.301864e-001
3.814668e+003,2.354601e-001
3.818525e+003,2.392677e-001
3.822382e+003,2.383949e-001
3.826239e+003,2.342500e-001
3.830096e+003,2.346076e-001
3.833954e+003,2.327329e-001
3.837811e+003,2.279426e-001
3.841668e+003,2.251896e-001
3.845525e+003,2.254247e-001
3.849382e+003,2.298658e-001
3.853239e+003,2.313640e-001
3.857096e+003,2.308432e-001
3.860953e+003,2.297792e-001
3.864810e+003,2.297853e-001
3.868667e+003,2.282366e-001
3.872524e+003,2.244938e-001
3.876382e+003,2.276627e-001
3.880239e+003,2.297002e-001
3.884096e+003,2.308824e-001
3.887953e+003,2.321160e-001
3.891810e+003,2.304606e-001
3.895667e+003,2.287280e-001
3.899524e+003,2.265438e-001
3.903381e+003,2.225999e-001
3.907238e+003,2.211419e-001
3.911095e+003,2.263601e-001
3.914953e+003,2.327638e-001
3.918810e+003,2.319949e-001
3.922667e+003,2.304508e-001
3.926524e+003,2.300640e-001
3.930381e+003,2.252556e-001
3.934238e+003,2.282668e-001
3.938095e+003,2.326484e-001
3.941952e+003,2.350679e-001
3.945809e+003,2.283202e-001
3.949667e+003,2.230431e-001
3.953523e+003,2.238289e-001
3.957381e+003,2.248159e-001
3.961238e+003,2.260869e-001
3.965095e+003,2.236500e-001
3.968952e+003,2.241102e-001
3.972809e+003,2.224333e-001
3.976666e+003,2.256932e-001
3.980523e+003,2.300362e-001
3.984380e+003,2.323470e-001
3.988237e+003,2.345262e-001
3.992094e+003,2.321710e-001
3.995952e+003,2.332419e-001
3.999809e+003,2.338431e-001
4.003666e+003,2.302695e-001
4.007523e+003,2.293666e-001
4.011380e+003,2.349908e-001
4.015237e+003,2.370365e-001
4.019094e+003,2.323333e-001
4.022951e+003,2.276532e-001
4.026808e+003,2.283458e-001
4.030666e+003,2.279232e-001
4.034522e+003,2.287830e-001
4.038380e+003,2.277340e-001
4.042237e+003,2.244126e-001
4.046094e+003,2.260394e-001
4.049951e+003,2.305597e-001
4.053808e+003,2.288998e-001
4.057665e+003,2.253057e-001
4.061522e+003,2.253596e-001
4.065379e+003,2.273368e-001
4.069236e+003,2.296605e-001
4.073094e+003,2.294863e-001
4.076951e+003,2.294743e-001
4.080808e+003,2.316024e-001
4.084665e+003,2.326612e-001
4.088522e+003,2.325443e-001
4.092379e+003,2.293683e-001
4.096236e+003,2.268114e-001
4.100093e+003,2.227723e-001
4.103950e+003,2.270494e-001
4.107808e+003,2.317709e-001
4.111665e+003,2.321410e-001
4.115521e+003,2.324008e-001
4.119379e+003,2.262011e-001
4.123236e+003,2.202617e-001
4.127093e+003,2.205230e-001
4.130950e+003,2.262561e-001
4.134807e+003,2.289487e-001
4.138664e+003,2.252506e-001
4.142521e+003,2.261328e-001
4.146378e+003,2.289069e-001
4.150235e+003,2.252435e-001
4.154093e+003,2.247174e-001
4.157950e+003,2.250053e-001
4.161807e+003,2.268830e-001
4.165664e+003,2.261992e-001
4.169521e+003,2.244896e-001
4.173378e+003,2.286111e-001
4.177235e+003,2.261313e-001
4.181092e+003,2.262330e-001
4.184949e+003,2.311239e-001
4.188807e+003,2.315965e-001
4.192664e+003,2.296553e-001
4.196521e+003,2.250813e-001
4.200378e+003,2.246565e-001
4.204235e+003,2.263782e-001
4.208092e+003,2.210036e-001
4.211949e+003,2.232982e-001
4.215806e+003,2.277740e-001
4.219663e+003,2.270129e-001
4.223521e+003,2.252289e-001
4.227377e+003,2.198130e-001
4.231234e+003,2.190461e-001
4.235092e+003,2.221848e-001
4.238949e+003,2.207085e-001
4.242806e+003,2.248706e-001
4.246663e+003,2.199739e-001
4.250520e+003,2.135586e-001
4.254377e+003,2.186006e-001
4.258234e+003,2.208415e-001
4.262091e+003,2.180712e-001
4.265948e+003,2.145389e-001
4.269806e+003,2.192207e-001
4.273663e+003,2.276080e-001
4.277520e+003,2.266483e-001
4.281377e+003,2.231003e-001
4.285234e+003,2.243003e-001
4.289091e+003,2.247042e-001
4.292948e+003,2.279421e-001
4.296805e+003,2.316979e-001
4.300662e+003,2.282239e-001
4.304520e+003,2.225766e-001
4.308376e+003,2.173876e-001
4.312233e+003,2.180158e-001
4.316091e+003,2.219092e-001
4.319948e+003,2.216150e-001
4.323805e+003,2.227284e-001
4.327662e+003,2.199712e-001
4.331519e+003,2.206959e-001
4.335376e+003,2.209705e-001
4.339233e+003,2.231148e-001
4.343090e+003,2.241857e-001
4.346947e+003,2.234367e-001
4.350805e+003,2.207287e-001
4.354662e+003,2.232988e-001
4.358519e+003,2.240559e-001
4.362376e+003,2.285068e-001
4.366233e+003,2.309682e-001
4.370090e+003,2.319705e-001
4.373947e+003,2.325692e-001
4.377804e+003,2.335497e-001
4.381661e+003,2.267088e-001
4.385519e+003,2.216473e-001
4.389375e+003,2.213469e-001
4.393232e+003,2.253478e-001
4.397090e+003,2.297535e-001
4.400947e+003,2.257624e-001
4.404804e+003,2.268418e-001
4.408661e+003,2.285161e-001
4.412518e+003,2.249709e-001
4.416375e+003,2.209456e-001
4.420232e+003,2.207739e-001
4.424089e+003,2.228558e-001
4.427946e+003,2.231391e-001
4.431804e+003,2.199832e-001
4.435661e+003,2.184089e-001
4.439518e+003,2.234208e-001
4.443375e+003,2.273632e-001
4.447232e+003,2.320040e-001
4.451089e+003,2.332738e-001
4.454946e+003,2.316052e-001
4.458803e+003,2.296353e-001
4.462660e+003,2.300894e-001
4.466518e+003,2.273194e-001
4.470375e+003,2.270577e-001
4.474231e+003,2.343799e-001
4.478089e+003,2.345422e-001
4.481946e+003,2.312415e-001
4.485803e+003,2.341510e-001
4.489660e+003,2.363120e-001
4.493517e+003,2.355331e-001
4.497375e+003,2.371046e-001
4.501231e+003,2.421090e-001
4.505088e+003,2.364182e-001
4.508946e+003,2.231039e-001
4.512803e+003,2.242838e-001
4.516660e+003,2.333977e-001
4.520517e+003,2.334139e-001
4.524374e+003,2.328321e-001
4.528231e+003,2.312122e-001
4.532088e+003,2.286092e-001
4.535945e+003,2.262589e-001
4.539802e+003,2.269737e-001
4.543660e+003,2.231440e-001
4.547517e+003,2.204088e-001
4.551374e+003,2.278939e-001
4.555231e+003,2.350295e-001
4.559088e+003,2.370108e-001
4.562945e+003,2.384847e-001
4.566802e+003,2.328013e-001
4.570659e+003,2.294188e-001
4.574516e+003,2.289456e-001
4.578374e+003,2.270076e-001
4.582230e+003,2.301520e-001
4.586087e+003,2.344763e-001
4.589945e+003,2.393841e-001
4.593802e+003,2.367368e-001
4.597659e+003,2.296303e-001
4.601516e+003,2.284662e-001
4.605373e+003,2.236194e-001
4.609230e+003,2.221129e-001
4.613087e+003,2.318681e-001
4.616944e+003,2.354616e-001
4.620801e+003,2.313708e-001
4.624659e+003,2.286466e-001
4.628516e+003,2.267364e-001
4.632373e+003,2.272521e-001
4.636230e+003,2.256665e-001
4.640087e+003,2.246661e-001
4.643944e+003,2.270901e-001
4.647801e+003,2.237517e-001
4.651658e+003,2.200075e-001
4.655515e+003,2.227126e-001
4.659373e+003,2.285760e-001
4.663229e+003,2.263207e-001
4.667086e+003,2.296879e-001
4.670944e+003,2.320163e-001
4.674801e+003,2.253011e-001
4.678658e+003,2.287568e-001
4.682515e+003,2.292518e-001
4.686372e+003,2.246984e-001
4.690229e+003,2.270392e-001
4.694086e+003,2.237499e-001
4.697943e+003,2.282872e-001
4.701800e+003,2.319503e-001
4.705658e+003,2.266190e-001
4.709515e+003,2.297633e-001
4.713372e+003,2.361965e-001
4.717229e+003,2.299400e-001
4.721086e+003,2.262336e-001
4.724943e+003,2.251614e-001
4.728800e+003,2.324285e-001
4.732657e+003,2.365092e-001
4.736514e+003,2.347135e-001
4.740372e+003,2.392038e-001
4.744229e+003,2.286393e-001
4.748085e+003,2.274287e-001
4.751943e+003,2.374867e-001
4.755800e+003,2.488712e-001
4.759657e+003,2.526306e-001
4.763514e+003,2.391853e-001
4.767371e+003,2.326782e-001
4.771228e+003,2.360922e-001
4.775085e+003,2.363481e-001
4.778942e+003,2.366603e-001
4.782799e+003,2.388246e-001
4.786657e+003,2.367707e-001
4.790514e+003,2.345425e-001
4.794371e+003,2.256773e-001
4.798228e+003,2.262214e-001
4.802085e+003,2.268094e-001
4.805942e+003,2.211879e-001
4.809799e+003,2.205007e-001
4.813656e+003,2.220640e-001
4.817513e+003,2.232136e-001
4.821371e+003,2.312729e-001
4.825228e+003,2.350608e-001
4.829084e+003,2.350346e-001
4.832942e+003,2.381756e-001
4.836799e+003,2.300691e-001
4.840656e+003,2.392350e-001
4.844513e+003,2.432852e-001
4.848370e+003,2.357290e-001
4.852227e+003,2.342589e-001
4.856084e+003,2.354161e-001
4.859941e+003,2.382204e-001
4.863798e+003,2.341183e-001
4.867656e+003,2.408076e-001
4.871513e+003,2.489177e-001
4.875370e+003,2.476638e-001
4.879227e+003,2.451446e-001
4.883084e+003,2.406144e-001
4.886941e+003,2.393730e-001
4.890798e+003,2.440455e-001
4.894655e+003,2.401988e-001
4.898512e+003,2.351161e-001
4.902370e+003,2.382663e-001
4.906227e+003,2.420715e-001
4.910083e+003,2.351847e-001
4.913941e+003,2.286335e-001
4.917798e+003,2.254677e-001
4.921655e+003,2.242017e-001
4.925512e+003,2.256961e-001
4.929369e+003,2.310130e-001
4.933226e+003,2.356754e-001
4.937083e+003,2.381489e-001
4.940940e+003,2.335538e-001
4.944797e+003,2.370887e-001
4.948655e+003,2.473893e-001
4.952512e+003,2.453394e-001
4.956369e+003,2.388151e-001
4.960226e+003,2.360706e-001
4.964083e+003,2.362822e-001
4.967940e+003,2.314386e-001
4.971797e+003,2.378778e-001
4.975654e+003,2.391569e-001
4.979511e+003,2.344947e-001
4.983369e+003,2.386860e-001
4.987226e+003,2.426453e-001
4.991083e+003,2.384316e-001
4.994940e+003,2.360969e-001
4.998797e+003,2.367820e-001
5.002654e+003,2.325344e-001
5.006511e+003,2.366838e-001
5.010368e+003,2.390967e-001
5.014225e+003,2.337824e-001
5.018083e+003,2.367044e-001
5.021939e+003,2.434510e-001
5.025796e+003,2.441070e-001
5.029654e+003,2.353855e-001
5.033511e+003,2.321518e-001
5.037368e+003,2.438231e-001
5.041225e+003,2.464912e-001
5.045082e+003,2.426007e-001
5.048939e+003,2.417572e-001
5.052796e+003,2.378909e-001
5.056653e+003,2.435294e-001
5.060510e+003,2.434958e-001
5.064368e+003,2.436815e-001
5.068225e+003,2.473634e-001
5.072082e+003,2.489693e-001
5.075939e+003,2.488039e-001
5.079796e+003,2.488750e-001
5.083653e+003,2.440881e-001
5.087510e+003,2.394836e-001
5.091367e+003,2.421922e-001
5.095224e+003,2.446224e-001
5.099082e+003,2.439871e-001
5.102938e+003,2.348192e-001
5.106795e+003,2.349077e-001
5.110653e+003,2.568222e-001
5.114510e+003,2.676146e-001
5.118367e+003,2.629290e-001
5.122224e+003,2.514688e-001
5.126081e+003,2.404873e-001
5.129938e+003,2.399542e-001
5.133795e+003,2.489851e-001
5.137652e+003,2.617474e-001
5.141509e+003,2.632374e-001
5.145367e+003,2.545278e-001
5.149224e+003,2.471405e-001
5.153081e+003,2.441044e-001
5.156938e+003,2.448568e-001
5.160795e+003,2.432323e-001
5.164652e+003,2.477995e-001
5.168509e+003,2.521973e-001
5.172366e+003,2.551108e-001
5.176223e+003,2.637301e-001
5.180081e+003,2.669869e-001
5.183938e+003,2.619510e-001
5.187794e+003,2.541722e-001
5.191652e+003,2.517009e-001
5.195509e+003,2.518367e-001
5.199366e+003,2.490588e-001
5.203223e+003,2.522723e-001
5.207080e+003,2.495466e-001
5.210937e+003,2.518086e-001
5.214794e+003,2.632830e-001
5.218651e+003,2.684177e-001
5.222508e+003,2.667792e-001
5.226366e+003,2.632828e-001
5.230223e+003,2.608825e-001
5.234080e+003,2.520075e-001
5.237937e+003,2.418630e-001
5.241794e+003,2.428386e-001
5.245651e+003,2.428091e-001
5.249508e+003,2.478234e-001
5.253365e+003,2.541708e-001
5.257222e+003,2.578690e-001
5.261080e+003,2.572199e-001
5.264937e+003,2.517278e-001
5.268793e+003,2.512572e-001
5.272651e+003,2.503680e-001
5.276508e+003,2.423448e-001
5.280365e+003,2.490718e-001
5.284222e+003,2.584516e-001
5.288079e+003,2.579233e-001
5.291936e+003,2.606575e-001
5.295793e+003,2.562054e-001
5.299650e+003,2.541125e-001
5.303507e+003,2.525852e-001
5.307365e+003,2.428088e-001
5.311222e+003,2.334319e-001
5.315079e+003,2.413076e-001
5.318936e+003,2.556324e-001
5.322793e+003,2.523673e-001
5.326650e+003,2.421599e-001
5.330507e+003,2.362421e-001
5.334364e+003,2.257053e-001
5.338221e+003,2.254367e-001
5.342079e+003,2.351474e-001
5.345936e+003,2.390176e-001
5.349792e+003,2.454547e-001
5.353650e+003,2.437587e-001
5.357507e+003,2.336108e-001
5.361364e+003,2.330107e-001
5.365221e+003,2.423056e-001
5.369078e+003,2.490869e-001
5.372935e+003,2.458169e-001
5.376792e+003,2.398861e-001
5.380649e+003,2.347687e-001
5.384506e+003,2.336511e-001
5.388364e+003,2.359708e-001
5.392221e+003,2.323548e-001
5.396078e+003,2.376281e-001
5.399935e+003,2.455501e-001
5.403792e+003,2.511024e-001
5.407649e+003,2.505634e-001
5.411506e+003,2.462871e-001
5.415363e+003,2.559248e-001
5.419220e+003,2.528606e-001
5.423078e+003,2.460254e-001
5.426935e+003,2.512377e-001
5.430792e+003,2.458086e-001
5.434649e+003,2.351511e-001
5.438506e+003,2.353157e-001
5.442363e+003,2.408373e-001
5.446220e+003,2.528381e-001
5.450077e+003,2.573667e-001
5.453934e+003,2.445921e-001
5.457792e+003,2.410733e-001
5.461648e+003,2.446855e-001
5.465505e+003,2.434896e-001
5.469363e+003,2.540954e-001
5.473220e+003,2.520338e-001
5.477077e+003,2.390686e-001
5.480934e+003,2.409230e-001
5.484791e+003,2.402158e-001
5.488648e+003,2.436777e-001
5.492505e+003,2.455805e-001
5.496362e+003,2.540400e-001
5.500219e+003,2.614922e-001
5.504077e+003,2.508790e-001
5.507934e+003,2.386091e-001
5.511791e+003,2.381258e-001
5.515648e+003,2.431648e-001
5.519505e+003,2.517756e-001
5.523362e+003,2.615504e-001
5.527219e+003,2.600878e-001
5.531076e+003,2.546240e-001
5.534933e+003,2.526476e-001
5.538791e+003,2.516810e-001
5.542647e+003,2.416701e-001
5.546504e+003,2.290187e-001
5.550362e+003,2.272106e-001
5.554219e+003,2.384957e-001
5.558076e+003,2.517789e-001
5.561933e+003,2.540271e-001
5.565790e+003,2.464404e-001
5.569647e+003,2.405330e-001
5.573504e+003,2.491885e-001
5.577361e+003,2.610033e-001
5.581218e+003,2.586974e-001
5.585076e+003,2.366686e-001
5.588933e+003,2.314872e-001
5.592790e+003,2.469826e-001
5.596647e+003,2.533039e-001
5.600504e+003,2.546018e-001
5.604361e+003,2.577147e-001
5.608218e+003,2.500478e-001
5.612075e+003,2.485497e-001
5.615932e+003,2.427533e-001
5.619790e+003,2.458622e-001
5.623646e+003,2.529539e-001
5.627503e+003,2.478400e-001
5.631361e+003,2.485436e-001
5.635218e+003,2.498718e-001
5.639075e+003,2.416438e-001
5.642932e+003,2.456720e-001
5.646789e+003,2.443708e-001
5.650646e+003,2.404278e-001
5.654503e+003,2.480936e-001
5.658360e+003,2.581193e-001
5.662217e+003,2.533191e-001
5.666075e+003,2.407839e-001
5.669932e+003,2.468110e-001
5.673789e+003,2.534828e-001
5.677646e+003,2.493750e-001
5.681503e+003,2.401198e-001
5.685360e+003,2.481826e-001
5.689217e+003,2.525611e-001
5.693074e+003,2.495659e-001
5.696931e+003,2.438806e-001
5.700789e+003,2.475434e-001
5.704646e+003,2.516673e-001
5.708502e+003,2.532687e-001
5.712360e+003,2.652989e-001
5.716217e+003,2.674593e-001
5.720074e+003,2.603640e-001
5.723931e+003,2.570203e-001
5.727788e+003,2.635539e-001
5.731645e+003,2.538396e-001
5.735502e+003,2.525226e-001
5.739359e+003,2.562585e-001
5.743216e+003,2.539558e-001
5.747074e+003,2.594556e-001
5.750931e+003,2.571686e-001
5.754788e+003,2.596577e-001
5.758645e+003,2.676932e-001
5.762502e+003,2.573676e-001
5.766359e+003,2.446474e-001
5.770216e+003,2.355194e-001
5.774073e+003,2.351247e-001
5.777930e+003,2.382115e-001
5.781788e+003,2.444100e-001
5.785645e+003,2.412027e-001
5.789501e+003,2.410643e-001
5.793359e+003,2.467981e-001
5.797216e+003,2.529029e-001
5.801073e+003,2.686011e-001
5.804930e+003,2.688524e-001
5.808787e+003,2.533136e-001
5.812644e+003,2.446353e-001
5.816501e+003,2.367938e-001
5.820358e+003,2.355463e-001
5.824215e+003,2.438379e-001
5.828073e+003,2.518802e-001
5.831930e+003,2.619754e-001
5.835787e+003,2.515367e-001
5.839644e+003,2.228767e-001
5.843501e+003,2.217310e-001
5.847358e+003,2.314976e-001
5.851215e+003,2.389380e-001
5.855072e+003,2.456959e-001
5.858929e+003,2.515792e-001
5.862787e+003,2.414408e-001
5.866644e+003,2.320051e-001
5.870500e+003,2.409550e-001
5.874358e+003,2.436811e-001
5.878215e+003,2.403990e-001
5.882072e+003,2.406218e-001
5.885929e+003,2.523838e-001
5.889786e+003,2.536390e-001
5.893643e+003,2.451755e-001
5.897500e+003,2.428288e-001
5.901357e+003,2.488440e-001
5.905214e+003,2.400984e-001
5.909072e+003,2.417592e-001
5.912929e+003,2.438146e-001
5.916786e+003,2.360956e-001
5.920643e+003,2.364869e-001
5.924500e+003,2.424456e-001
5.928357e+003,2.503000e-001
5.932214e+003,2.592734e-001
5.936071e+003,2.529919e-001
5.939928e+003,2.513889e-001
5.943786e+003,2.494013e-001
5.947643e+003,2.426764e-001
5.951500e+003,2.401775e-001
5.955357e+003,2.350630e-001
5.959214e+003,2.245884e-001
5.963071e+003,2.304146e-001
5.966928e+003,2.376764e-001
5.970785e+003,2.433031e-001
5.974642e+003,2.449212e-001
5.978500e+003,2.386140e-001
5.982356e+003,2.461169e-001
5.986213e+003,2.622118e-001
5.990071e+003,2.519821e-001
5.993928e+003,2.390683e-001
5.997785e+003,2.357835e-001
6.001642e+003,2.396418e-001
6.005499e+003,2.482753e-001
6.009356e+003,2.505615e-001
6.013213e+003,2.480967e-001
6.017070e+003,2.481372e-001
6.020927e+003,2.416150e-001
6.024785e+003,2.347344e-001
6.028642e+003,2.336105e-001
6.032499e+003,2.304835e-001
6.036356e+003,2.309589e-001
6.040213e+003,2.343022e-001
6.044070e+003,2.513651e-001
6.047927e+003,2.607366e-001
6.051784e+003,2.590242e-001
6.055641e+003,2.450062e-001
6.059499e+003,2.350959e-001
6.063355e+003,2.310362e-001
6.067212e+003,2.274852e-001
6.071070e+003,2.324567e-001
6.074927e+003,2.375062e-001
6.078784e+003,2.454089e-001
6.082641e+003,2.461660e-001
6.086498e+003,2.449694e-001
6.090355e+003,2.432860e-001
6.094212e+003,2.437761e-001
6.098069e+003,2.367224e-001
6.101926e+003,2.268668e-001
6.105784e+003,2.357586e-001
6.109641e+003,2.498614e-001
6.113498e+003,2.388265e-001
6.117355e+003,2.271644e-001
6.121212e+003,2.444237e-001
6.125069e+003,2.648994e-001
6.128926e+003,2.595560e-001
6.132783e+003,2.458031e-001
6.136640e+003,2.332217e-001
6.140498e+003,2.349371e-001
6.144354e+003,2.454520e-001
6.148211e+003,2.575516e-001
6.152069e+003,2.489938e-001
6.155926e+003,2.489255e-001
6.159783e+003,2.460394e-001
6.163640e+003,2.514223e-001
6.167497e+003,2.692871e-001
6.171354e+003,2.613003e-001
6.175211e+003,2.544523e-001
6.179068e+003,2.557889e-001
6.182925e+003,2.544696e-001
6.186783e+003,2.521150e-001
6.190640e+003,2.363559e-001
6.194497e+003,2.419942e-001
6.198354e+003,2.404042e-001
6.202211e+003,2.327242e-001
6.206068e+003,2.369504e-001
6.209925e+003,2.362035e-001
6.213782e+003,2.429416e-001
6.217639e+003,2.487106e-001
6.221497e+003,2.516675e-001
6.225354e+003,2.567139e-001
6.229210e+003,2.471834e-001
6.233068e+003,2.502607e-001
6.236925e+003,2.477544e-001
6.240782e+003,2.417907e-001
6.244639e+003,2.504420e-001
6.248496e+003,2.470140e-001
6.252353e+003,2.354895e-001
6.256210e+003,2.534536e-001
6.260067e+003,2.619993e-001
6.263924e+003,2.596873e-001
6.267782e+003,2.569300e-001
6.271639e+003,2.486758e-001
6.275496e+003,2.451405e-001
6.279353e+003,2.383885e-001
6.283210e+003,2.484540e-001
6.287067e+003,2.593532e-001
6.290924e+003,2.426444e-001
6.294781e+003,2.395069e-001
6.298638e+003,2.484253e-001
6.302496e+003,2.496356e-001
6.306353e+003,2.632895e-001
6.310209e+003,2.726814e-001
6.314067e+003,2.734472e-001
6.317924e+003,2.704586e-001
6.321781e+003,2.501997e-001
6.325638e+003,2.305735e-001
6.329495e+003,2.242474e-001
6.333352e+003,2.295596e-001
6.337209e+003,2.449617e-001
6.341066e+003,2.594168e-001
6.344923e+003,2.634996e-001
6.348780e+003,2.636351e-001
6.352638e+003,2.649394e-001
6.356495e+003,2.623368e-001
6.360352e+003,2.493043e-001
6.364209e+003,2.477317e-001
6.368066e+003,2.407089e-001
6.371923e+003,2.335327e-001
6.375780e+003,2.341800e-001
6.379637e+003,2.368595e-001
6.383494e+003,2.425120e-001
6.387352e+003,2.450586e-001
6.391208e+003,2.245796e-001
6.395065e+003,2.332855e-001
6.398923e+003,2.575829e-001
6.402780e+003,2.698380e-001
6.406637e+003,2.676349e-001
6.410494e+003,2.556862e-001
6.414351e+003,2.428465e-001
6.418208e+003,2.378115e-001
6.422065e+003,2.333172e-001
6.425922e+003,2.482949e-001
6.429779e+003,2.617253e-001
6.433637e+003,2.613691e-001
6.437494e+003,2.520121e-001
6.441351e+003,2.454139e-001
6.445208e+003,2.635680e-001
6.449065e+003,2.575797e-001
6.452922e+003,2.531489e-001
6.456779e+003,2.626829e-001
6.460636e+003,2.588480e-001
6.464493e+003,2.406008e-001
6.468351e+003,2.257988e-001
6.472208e+003,2.380536e-001
6.476064e+003,2.581258e-001
6.479922e+003,2.383526e-001
6.483779e+003,2.228398e-001
6.487636e+003,2.336728e-001
6.491493e+003,2.369369e-001
6.495350e+003,2.329806e-001
6.499207e+003,2.509453e-001
6.503064e+003,2.657164e-001
6.506921e+003,2.544152e-001
6.510778e+003,2.431732e-001
6.514636e+003,2.361321e-001
6.518493e+003,2.416407e-001
6.522350e+003,2.501097e-001
6.526207e+003,2.481681e-001
6.530064e+003,2.374146e-001
6.533921e+003,2.390177e-001
6.537778e+003,2.347154e-001
6.541635e+003,2.433507e-001
6.545492e+003,2.535553e-001
6.549350e+003,2.589772e-001
6.553207e+003,2.636031e-001
6.557063e+003,2.548243e-001
6.560921e+003,2.378793e-001
6.564778e+003,2.282907e-001
6.568635e+003,2.239467e-001
6.572492e+003,2.306147e-001
6.576349e+003,2.511313e-001
6.580206e+003,2.478877e-001
6.584063e+003,2.363615e-001
6.587920e+003,2.434042e-001
6.591777e+003,2.483804e-001
6.595635e+003,2.521754e-001
6.599492e+003,2.704978e-001
6.603349e+003,2.594372e-001
6.607206e+003,2.435812e-001
6.611063e+003,2.427330e-001
6.614920e+003,2.433164e-001
6.618777e+003,2.385482e-001
6.622634e+003,2.395864e-001
6.626491e+003,2.634183e-001
6.630349e+003,2.690383e-001
6.634206e+003,2.528441e-001
6.638063e+003,2.473962e-001
6.641920e+003,2.498023e-001
6.645777e+003,2.483991e-001
6.649634e+003,2.643086e-001
6.653491e+003,2.801998e-001
6.657348e+003,2.720231e-001
6.661205e+003,2.580730e-001
6.665063e+003,2.630611e-001
6.668919e+003,2.619076e-001
6.672776e+003,2.433071e-001
6.676634e+003,2.233012e-001
6.680491e+003,2.185452e-001
6.684348e+003,2.298605e-001
6.688205e+003,2.312135e-001
6.692062e+003,2.482495e-001
6.695919e+003,2.558711e-001
6.699776e+003,2.360956e-001
6.703633e+003,2.410448e-001
6.707490e+003,2.448426e-001
6.711348e+003,2.568678e-001
6.715205e+003,2.847570e-001
6.719062e+003,2.750170e-001
6.722919e+003,2.588560e-001
6.726776e+003,2.359015e-001
6.730633e+003,2.361709e-001
6.734490e+003,2.586837e-001
6.738347e+003,2.628556e-001
6.742204e+003,2.698733e-001
6.746062e+003,2.642553e-001
6.749918e+003,2.590108e-001
6.753775e+003,2.484572e-001
6.757633e+003,2.185777e-001
6.761490e+003,2.119823e-001
6.765347e+003,2.302282e-001
6.769204e+003,2.507295e-001
6.773061e+003,2.743111e-001
6.776918e+003,3.041448e-001
6.780775e+003,2.657724e-001
6.784632e+003,2.319049e-001
6.788489e+003,2.659490e-001
6.792347e+003,2.810146e-001
6.796204e+003,2.635995e-001
6.800061e+003,2.860403e-001
6.803918e+003,2.725060e-001
6.807775e+003,2.434436e-001
6.811632e+003,2.642576e-001
6.815489e+003,2.629126e-001
6.819346e+003,2.392066e-001
6.823203e+003,2.400382e-001
6.827061e+003,2.398622e-001
6.830917e+003,2.709898e-001
6.834774e+003,2.942854e-001
6.838632e+003,2.808582e-001
6.842489e+003,2.772842e-001
6.846346e+003,2.672096e-001
6.850203e+003,2.684753e-001
6.854060e+003,2.753296e-001
6.857917e+003,2.618182e-001
6.861774e+003,2.559786e-001
6.865631e+003,2.688552e-001
6.869488e+003,2.568201e-001
6.873346e+003,2.446258e-001
6.877203e+003,2.743498e-001
6.881060e+003,2.958884e-001
6.884917e+003,2.708747e-001
6.888774e+003,2.518730e-001
6.892631e+003,2.345491e-001
6.896488e+003,2.399791e-001
6.900345e+003,2.894559e-001
6.904202e+003,3.022801e-001
6.908060e+003,2.816590e-001
6.911917e+003,2.516952e-001
6.915773e+003,2.290557e-001
6.919631e+003,2.520494e-001
6.923488e+003,2.988943e-001
6.927345e+003,2.724709e-001
6.931202e+003,2.256845e-001
6.935059e+003,2.142147e-001
6.938916e+003,2.174836e-001
6.942773e+003,2.519996e-001
6.946630e+003,2.873511e-001
6.950487e+003,2.689660e-001
6.954345e+003,2.589089e-001
6.958202e+003,2.497467e-001
6.962059e+003,2.391225e-001
6.965916e+003,2.484909e-001
6.969773e+003,2.817008e-001
6.973630e+003,2.808034e-001
6.977487e+003,2.523712e-001
6.981344e+003,2.666598e-001
6.985201e+003,2.778435e-001
6.989059e+003,2.895328e-001
6.992916e+003,2.891553e-001
6.996772e+003,2.740808e-001
7.000630e+003,2.873048e-001
7.004487e+003,2.945853e-001
7.008344e+003,2.603704e-001
7.012201e+003,2.377939e-001
7.016058e+003,2.493657e-001
7.019915e+003,2.747390e-001
7.023772e+003,2.996885e-001
7.027629e+003,2.943445e-001
7.031486e+003,2.816532e-001
7.035344e+003,2.749478e-001
7.039201e+003,2.896721e-001
7.043058e+003,2.871263e-001
7.046915e+003,2.490014e-001
7.050772e+003,2.462333e-001
7.054629e+003,2.509653e-001
7.058486e+003,2.486056e-001
7.062343e+003,2.769847e-001
7.066200e+003,2.668029e-001
7.070058e+003,2.567170e-001
7.073915e+003,2.579248e-001
7.077771e+003,2.700994e-001
7.081629e+003,2.755857e-001
7.085486e+003,2.677930e-001
7.089343e+003,2.419705e-001
7.093200e+003,2.354634e-001
7.097057e+003,2.419020e-001
7.100914e+003,2.300960e-001
7.104771e+003,2.629695e-001
7.108628e+003,2.505870e-001
7.112485e+003,2.220320e-001
7.116343e+003,2.244849e-001
7.120200e+003,1.947650e-001
7.124057e+003,1.965149e-001
7.127914e+003,2.485733e-001
7.131771e+003,3.022766e-001
7.135628e+003,2.931514e-001
7.139485e+003,3.087551e-001
7.143342e+003,2.872608e-001
7.147199e+003,2.433015e-001
7.151057e+003,2.742389e-001
7.154914e+003,2.935350e-001
7.158771e+003,2.589569e-001
7.162628e+003,2.453115e-001
7.166485e+003,2.393734e-001
7.170342e+003,2.030777e-001
7.174199e+003,2.340251e-001
7.178056e+003,3.143291e-001
7.181913e+003,3.304372e-001
7.185771e+003,3.189444e-001
7.189627e+003,3.395651e-001
7.193484e+003,3.232294e-001
7.197342e+003,2.948371e-001
7.201199e+003,2.693134e-001
7.205056e+003,2.699440e-001
7.208913e+003,2.548357e-001
7.212770e+003,2.431409e-001
7.216627e+003,2.443864e-001
7.220484e+003,2.274395e-001
7.224341e+003,2.386146e-001
7.228198e+003,2.624501e-001
7.232056e+003,2.611981e-001
7.235913e+003,2.580971e-001
7.239770e+003,2.299110e-001
7.243627e+003,2.191814e-001
7.247484e+003,2.383927e-001
7.251341e+003,2.658709e-001
7.255198e+003,2.938718e-001
7.259055e+003,2.709589e-001
7.262912e+003,2.522731e-001
7.266770e+003,2.553915e-001
7.270626e+003,2.466114e-001
7.274483e+003,2.172647e-001
7.278341e+003,1.978744e-001
7.282198e+003,2.504271e-001
7.286055e+003,2.591668e-001
7.289912e+003,2.790258e-001
7.293769e+003,3.101808e-001
7.297626e+003,2.808177e-001
7.301483e+003,2.435204e-001
7.305340e+003,2.662113e-001
7.309197e+003,2.581282e-001
7.313055e+003,2.283325e-001
7.316912e+003,2.275400e-001
7.320769e+003,2.443016e-001
7.324626e+003,2.815580e-001
7.328483e+003,2.974285e-001
7.332340e+003,2.897660e-001
7.336197e+003,2.829255e-001
7.340054e+003,2.481562e-001
7.343911e+003,2.168509e-001
7.347769e+003,2.283676e-001
7.351625e+003,2.751559e-001
7.355482e+003,2.655213e-001
7.359340e+003,2.322270e-001
7.363197e+003,2.900979e-001
7.367054e+003,3.579403e-001
7.370911e+003,3.445841e-001
7.374768e+003,2.647946e-001
7.378625e+003,2.454479e-001
7.382482e+003,2.369633e-001
7.386339e+003,2.836267e-001
7.390196e+003,3.252509e-001
7.394054e+003,2.619462e-001
7.397911e+003,2.570106e-001
7.401768e+003,2.644917e-001
7.405625e+003,2.640224e-001
7.409482e+003,3.043898e-001
7.413339e+003,3.111914e-001
7.417196e+003,2.899010e-001
7.421053e+003,2.937281e-001
7.424910e+003,3.366215e-001
7.428768e+003,3.493981e-001
7.432625e+003,3.206836e-001
7.436481e+003,2.959041e-001
7.440339e+003,3.051796e-001
7.444196e+003,3.494266e-001
7.448053e+003,3.344251e-001
7.451910e+003,2.784440e-001
7.455767e+003,2.749529e-001
7.459624e+003,2.828558e-001
7.463481e+003,2.855265e-001
7.467338e+003,2.827127e-001
7.471195e+003,2.635725e-001
7.475053e+003,3.447554e-001
7.478910e+003,3.608019e-001
7.482767e+003,3.160750e-001
7.486624e+003,3.003070e-001
7.490481e+003,2.841216e-001
7.494338e+003,2.883526e-001
7.498195e+003,2.704266e-001
7.502052e+003,2.548094e-001
7.505909e+003,2.864115e-001
7.509767e+003,2.729284e-001
7.513624e+003,2.253411e-001
7.517480e+003,2.274608e-001
7.521338e+003,2.647569e-001
7.525195e+003,2.863752e-001
7.529052e+003,2.756928e-001
7.532909e+003,2.622711e-001
7.536766e+003,2.393063e-001
7.540623e+003,2.513277e-001
7.544480e+003,2.806591e-001
7.548337e+003,2.459223e-001
7.552194e+003,2.188617e-001
7.556052e+003,2.011272e-001
7.559909e+003,2.133351e-001
7.563766e+003,2.795539e-001
7.567623e+003,3.230618e-001
7.571480e+003,3.181995e-001
7.575337e+003,2.844487e-001
7.579194e+003,2.829248e-001
7.583051e+003,2.692132e-001
7.586908e+003,2.830705e-001
7.590766e+003,2.611566e-001
7.594623e+003,2.129850e-001
7.598479e+003,2.673892e-001
7.602337e+003,3.272121e-001
7.606194e+003,3.058265e-001
7.610051e+003,2.891833e-001
7.613908e+003,3.368871e-001
7.617765e+003,3.286634e-001
7.621622e+003,2.933419e-001
7.625479e+003,2.309063e-001
7.629336e+003,3.258826e-001
7.633193e+003,3.516966e-001
7.637051e+003,2.652909e-001
7.640908e+003,2.509426e-001
7.644765e+003,2.884309e-001
7.648622e+003,3.047326e-001
7.652479e+003,2.814408e-001
7.656336e+003,3.238095e-001
7.660193e+003,3.343267e-001
7.664050e+003,3.362188e-001
7.667907e+003,3.036041e-001
7.671765e+003,2.944271e-001
7.675622e+003,2.994583e-001
7.679479e+003,3.375687e-001
7.683336e+003,3.524940e-001
7.687193e+003,2.989970e-001
7.691050e+003,2.786505e-001
7.694907e+003,3.013152e-001
7.698764e+003,2.869108e-001
7.702621e+003,2.502261e-001
7.706479e+003,2.197992e-001
7.710335e+003,2.656805e-001
7.714192e+003,3.359818e-001
7.718050e+003,2.971526e-001
7.721907e+003,2.639116e-001
7.725764e+003,3.372628e-001
7.729621e+003,3.797991e-001
7.733478e+003,3.491437e-001
7.737335e+003,3.312852e-001
7.741192e+003,3.523051e-001
7.745049e+003,3.610627e-001
7.748906e+003,3.725051e-001
7.752764e+003,3.571741e-001
7.756621e+003,3.909546e-001
7.760478e+003,3.569721e-001
7.764335e+003,2.643337e-001
7.768192e+003,2.575731e-001
7.772049e+003,3.042283e-001
7.775906e+003,2.748840e-001
7.779763e+003,2.211779e-001
7.783620e+003,1.885598e-001
7.787478e+003,2.093787e-001
7.791334e+003,2.135978e-001
7.795191e+003,2.174720e-001
7.799049e+003,2.704839e-001
7.802906e+003,2.342144e-001
7.806763e+003,2.475457e-001
7.810620e+003,2.530701e-001
7.814477e+003,2.394661e-001
7.818334e+003,2.408543e-001
7.822191e+003,3.092197e-001
7.826048e+003,3.230987e-001
7.829905e+003,1.966431e-001
7.833763e+003,1.247257e-001
7.837620e+003,1.410375e-001
7.841477e+003,2.201606e-001
7.845334e+003,3.430314e-001
7.849191e+003,4.392296e-001
7.853048e+003,4.239421e-001
7.856905e+003,3.532175e-001
7.860762e+003,3.934909e-001
7.864619e+003,3.161617e-001
7.868477e+003,1.531047e-001
7.872333e+003,1.615528e-001
7.876190e+003,2.497407e-001
7.880048e+003,2.879787e-001
7.883905e+003,2.539701e-001
7.887762e+003,2.003324e-001
7.891619e+003,1.423614e-001
7.895476e+003,1.838599e-001
7.899333e+003,2.180504e-001
7.903190e+003,1.241302e-001
7.907047e+003,6.278284e-002
7.910904e+003,1.144658e-001
7.914762e+003,2.383220e-001
7.918619e+003,3.028670e-001
7.922476e+003,2.980098e-001
7.926333e+003,3.233468e-001
7.930190e+003,3.763128e-001
7.934047e+003,4.101677e-001
7.937904e+003,2.939669e-001
7.941761e+003,2.099894e-001
7.945618e+003,3.303007e-001
7.949476e+003,3.051956e-001
7.953333e+003,2.570550e-001
7.957189e+003,2.087245e-001
7.961047e+003,2.136658e-001
7.964904e+003,3.229419e-001
7.968761e+003,2.917566e-001
7.972618e+003,2.390766e-001
7.976475e+003,3.216104e-001
7.980332e+003,4.193373e-001
7.984189e+003,3.090286e-001
7.988046e+003,2.024899e-001
7.991903e+003,2.657458e-001
7.995761e+003,2.999149e-001
7.999618e+003,2.534605e-001
