4.011380e+002,6.000000e+000
4.049951e+002,6.000000e+000
4.088522e+002,6.000000e+000
4.127093e+002,2.885984e-001
4.165664e+002,3.299011e-001
4.204235e+002,6.000000e+000
4.242806e+002,6.000000e+000
4.281377e+002,6.000000e+000
4.319948e+002,-1.452807e+000
4.358519e+002,-2.228796e-001
4.397090e+002,-8.566940e-001
4.435661e+002,6.000000e+000
4.474232e+002,1.507711e-001
4.512803e+002,6.857137e-002
4.551374e+002,7.914646e-001
4.589945e+002,6.000000e+000
4.628516e+002,6.000000e+000
4.667087e+002,-4.669221e-002
4.705658e+002,4.631088e-001
4.744229e+002,6.000000e+000
4.782800e+002,6.499996e-001
4.821371e+002,4.337898e-001
4.859941e+002,6.000000e+000
4.898513e+002,6.000000e+000
4.937083e+002,6.000000e+000
4.975654e+002,-1.843187e-001
5.014225e+002,1.220741e-001
5.052796e+002,-1.342780e-001
5.091367e+002,-6.732563e-001
5.129938e+002,-9.158115e-002
5.168509e+002,3.190516e-001
5.207080e+002,1.869315e+000
5.245651e+002,6.000000e+000
5.284222e+002,6.000000e+000
5.322793e+002,7.481773e-001
5.361364e+002,3.761905e-001
5.399935e+002,9.613040e-001
5.438506e+002,7.830801e-001
5.477077e+002,6.000000e+000
5.515648e+002,6.000000e+000
5.554219e+002,6.000000e+000
5.592790e+002,6.000000e+000
5.631361e+002,6.000000e+000
5.669932e+002,6.000000e+000
5.708503e+002,6.000000e+000
5.747074e+002,6.000000e+000
5.785645e+002,6.000000e+000
5.824216e+002,6.000000e+000
5.862787e+002,6.000000e+000
5.901357e+002,6.000000e+000
5.939929e+002,6.000000e+000
5.978499e+002,9.195769e-001
6.017070e+002,6.000000e+000
6.055641e+002,6.000000e+000
6.094212e+002,-1.191870e-001
6.132783e+002,-7.315804e-001
6.171354e+002,6.000000e+000
6.209925e+002,-8.568909e-001
6.248496e+002,6.000000e+000
6.287067e+002,6.000000e+000
6.325638e+002,2.691666e-001
6.364209e+002,-3.344924e-001
6.402780e+002,-9.559382e-003
6.441351e+002,1.921511e+000
6.479922e+002,6.000000e+000
6.518493e+002,-2.215760e-001
6.557064e+002,8.010609e-001
6.595635e+002,6.873323e-001
6.634205e+002,2.416431e-001
6.672777e+002,2.829163e-001
6.711348e+002,6.000000e+000
6.749918e+002,6.000000e+000
6.788490e+002,6.168076e-001
6.827061e+002,2.858069e-001
6.865631e+002,-2.866343e-002
6.904203e+002,6.000000e+000
6.942773e+002,6.000000e+000
6.981344e+002,6.000000e+000
7.019916e+002,-8.854851e-001
7.058486e+002,6.000000e+000
7.097057e+002,-9.936410e-001
7.135629e+002,-1.150113e-001
7.174199e+002,6.000000e+000
7.212770e+002,1.436252e-001
7.251342e+002,-3.502878e-001
7.289912e+002,-1.230907e-001
7.328483e+002,6.000000e+000
7.367054e+002,6.000000e+000
7.405625e+002,-3.430844e-001
7.444196e+002,-2.792417e-001
7.482767e+002,2.860219e-002
7.521338e+002,6.759802e-002
7.559908e+002,-3.877345e-001
7.598480e+002,6.000000e+000
7.637051e+002,6.000000e+000
7.675621e+002,-1.196466e+000
7.714193e+002,2.925090e-002
7.752764e+002,6.000000e+000
7.791334e+002,6.000000e+000
7.829905e+002,6.000000e+000
7.868477e+002,6.000000e+000
7.907047e+002,6.000000e+000
7.945618e+002,6.000000e+000
7.984189e+002,-4.535984e-001
8.022760e+002,6.000000e+000
8.061331e+002,6.000000e+000
8.099902e+002,6.000000e+000
8.138473e+002,6.000000e+000
8.177044e+002,6.000000e+000
8.215615e+002,5.786896e-001
8.254186e+002,6.758794e-001
8.292757e+002,1.275388e+000
8.331328e+002,6.000000e+000
8.369899e+002,1.910185e+000
8.408470e+002,1.233168e+000
8.447041e+002,1.076024e+000
8.485612e+002,1.432464e+000
8.524183e+002,6.000000e+000
8.562754e+002,6.000000e+000
8.601324e+002,6.000000e+000
8.639896e+002,6.000000e+000
8.678467e+002,6.000000e+000
8.717037e+002,6.000000e+000
8.755609e+002,6.000000e+000
8.794180e+002,1.494371e+000
8.832750e+002,1.303835e+000
8.871321e+002,1.380335e+000
8.909893e+002,1.644575e+000
8.948463e+002,1.806665e+000
8.987034e+002,3.053528e+000
9.025605e+002,6.000000e+000
9.064176e+002,2.082625e+000
9.102747e+002,1.854845e+000
9.141318e+002,2.235986e+000
9.179889e+002,2.514899e+000
9.218461e+002,2.256442e+000
9.257031e+002,2.494427e+000
9.295602e+002,2.220348e+000
9.334174e+002,2.649638e+000
9.372744e+002,3.353829e+000
9.411315e+002,4.509375e+000
9.449886e+002,6.000000e+000
9.488457e+002,6.000000e+000
9.527028e+002,2.703202e+000
9.565599e+002,2.994218e+000
9.604170e+002,6.000000e+000
9.642740e+002,3.974237e+000
9.681312e+002,2.385681e+000
9.719883e+002,2.312758e+000
9.758453e+002,2.628772e+000
9.797025e+002,2.086112e+000
9.835596e+002,2.108958e+000
9.874166e+002,2.334513e+000
9.912738e+002,2.866388e+000
9.951309e+002,3.805716e+000
9.989879e+002,2.350776e+000
1.002845e+003,2.115236e+000
1.006702e+003,2.039452e+000
1.010559e+003,2.075264e+000
1.014416e+003,2.156138e+000
1.018273e+003,1.986863e+000
1.022130e+003,1.830463e+000
1.025988e+003,1.825476e+000
1.029845e+003,1.791829e+000
1.033702e+003,1.746521e+000
1.037559e+003,1.751419e+000
1.041416e+003,1.756772e+000
1.045273e+003,1.753957e+000
1.049130e+003,1.733153e+000
1.052987e+003,1.707402e+000
1.056844e+003,1.701960e+000
1.060702e+003,1.723077e+000
1.064559e+003,1.722317e+000
1.068416e+003,1.650932e+000
1.072273e+003,1.610884e+000
1.076130e+003,1.594811e+000
1.079987e+003,1.596471e+000
1.083844e+003,1.574683e+000
1.087701e+003,1.566790e+000
1.091558e+003,1.569493e+000
1.095415e+003,1.557840e+000
1.099272e+003,1.553475e+000
1.103130e+003,1.533410e+000
1.106987e+003,1.512614e+000
1.110844e+003,1.470922e+000
1.114701e+003,1.433533e+000
1.118558e+003,1.404994e+000
1.122415e+003,1.388226e+000
1.126272e+003,1.363669e+000
1.130129e+003,1.340515e+000
1.133986e+003,1.346400e+000
1.137843e+003,1.350990e+000
1.141701e+003,1.339468e+000
1.145558e+003,1.345815e+000
1.149415e+003,1.328438e+000
1.153272e+003,1.311242e+000
1.157129e+003,1.325107e+000
1.160986e+003,1.314423e+000
1.164843e+003,1.295864e+000
1.168700e+003,1.304196e+000
1.172557e+003,1.297232e+000
1.176414e+003,1.285775e+000
1.180271e+003,1.284790e+000
1.184129e+003,1.279603e+000
1.187986e+003,1.243808e+000
1.191843e+003,1.215564e+000
1.195700e+003,1.189705e+000
1.199557e+003,1.146016e+000
1.203414e+003,1.076506e+000
1.207271e+003,1.008891e+000
1.211128e+003,9.463155e-001
1.214985e+003,8.786020e-001
1.218842e+003,8.049258e-001
1.222699e+003,7.355079e-001
1.226557e+003,6.815608e-001
1.230414e+003,6.362295e-001
1.234271e+003,5.934935e-001
1.238128e+003,5.565872e-001
1.241985e+003,5.254093e-001
1.245842e+003,4.986620e-001
1.249699e+003,4.764469e-001
1.253556e+003,4.559182e-001
1.257413e+003,4.396637e-001
1.261271e+003,4.261377e-001
1.265128e+003,4.132214e-001
1.268985e+003,4.027793e-001
1.272842e+003,3.936924e-001
1.276699e+003,3.847625e-001
1.280556e+003,3.778625e-001
1.284413e+003,3.706453e-001
1.288270e+003,3.633976e-001
1.292127e+003,3.582641e-001
1.295984e+003,3.520057e-001
1.299841e+003,3.445968e-001
1.303698e+003,3.374230e-001
1.307556e+003,3.301037e-001
1.311413e+003,3.236620e-001
1.315270e+003,3.186375e-001
1.319127e+003,3.154974e-001
1.322984e+003,3.132561e-001
1.326841e+003,3.092143e-001
1.330698e+003,3.074069e-001
1.334555e+003,3.076147e-001
1.338412e+003,3.071706e-001
1.342270e+003,3.074355e-001
1.346127e+003,3.091383e-001
1.349984e+003,3.114556e-001
1.353841e+003,3.137572e-001
1.357698e+003,3.143856e-001
1.361555e+003,3.162072e-001
1.365412e+003,3.200220e-001
1.369269e+003,3.234763e-001
1.373126e+003,3.256386e-001
1.376983e+003,3.287060e-001
1.380840e+003,3.341829e-001
1.384698e+003,3.406960e-001
1.388555e+003,3.472836e-001
1.392412e+003,3.521500e-001
1.396269e+003,3.596525e-001
1.400126e+003,3.677686e-001
1.403983e+003,3.757939e-001
1.407840e+003,3.858381e-001
1.411697e+003,3.958575e-001
1.415554e+003,4.041953e-001
1.419411e+003,4.101382e-001
1.423269e+003,4.160192e-001
1.427126e+003,4.220945e-001
1.430983e+003,4.252044e-001
1.434840e+003,4.262469e-001
1.438697e+003,4.252862e-001
1.442554e+003,4.222132e-001
1.446411e+003,4.189045e-001
1.450268e+003,4.147667e-001
1.454125e+003,4.092793e-001
1.457982e+003,4.041014e-001
1.461839e+003,3.997174e-001
1.465697e+003,3.945461e-001
1.469554e+003,3.923284e-001
1.473411e+003,3.943219e-001
1.477268e+003,3.961743e-001
1.481125e+003,4.000654e-001
1.484982e+003,4.079836e-001
1.488839e+003,4.162203e-001
1.492696e+003,4.220908e-001
1.496553e+003,4.270878e-001
1.500411e+003,4.318003e-001
1.504268e+003,4.327149e-001
1.508125e+003,4.318363e-001
1.511982e+003,4.299957e-001
1.515839e+003,4.277561e-001
1.519696e+003,4.235936e-001
1.523553e+003,4.168592e-001
1.527410e+003,4.101946e-001
1.531267e+003,4.012487e-001
1.535124e+003,3.916778e-001
1.538981e+003,3.835081e-001
1.542839e+003,3.748731e-001
1.546696e+003,3.651461e-001
1.550553e+003,3.559637e-001
1.554410e+003,3.489089e-001
1.558267e+003,3.419104e-001
1.562124e+003,3.365033e-001
1.565981e+003,3.323366e-001
1.569838e+003,3.302724e-001
1.573695e+003,3.299913e-001
1.577552e+003,3.305875e-001
1.581410e+003,3.317642e-001
1.585267e+003,3.342025e-001
1.589124e+003,3.387753e-001
1.592981e+003,3.454330e-001
1.596838e+003,3.537452e-001
1.600695e+003,3.634444e-001
1.604552e+003,3.762780e-001
1.608409e+003,3.910126e-001
1.612266e+003,4.059802e-001
1.616123e+003,4.222039e-001
1.619980e+003,4.425348e-001
1.623838e+003,4.609484e-001
1.627695e+003,4.742971e-001
1.631552e+003,4.834268e-001
1.635409e+003,4.889675e-001
1.639266e+003,4.902182e-001
1.643123e+003,4.854003e-001
1.646980e+003,4.761446e-001
1.650837e+003,4.649311e-001
1.654694e+003,4.510940e-001
1.658551e+003,4.350613e-001
1.662409e+003,4.181097e-001
1.666266e+003,4.018601e-001
1.670123e+003,3.847572e-001
1.673980e+003,3.678240e-001
1.677837e+003,3.529643e-001
1.681694e+003,3.393857e-001
1.685551e+003,3.270915e-001
1.689408e+003,3.164733e-001
1.693265e+003,3.075882e-001
1.697122e+003,3.004105e-001
1.700979e+003,2.946376e-001
1.704837e+003,2.897393e-001
1.708694e+003,2.856650e-001
1.712551e+003,2.840586e-001
1.716408e+003,2.828160e-001
1.720265e+003,2.806453e-001
1.724122e+003,2.798527e-001
1.727979e+003,2.802096e-001
1.731836e+003,2.809385e-001
1.735693e+003,2.821048e-001
1.739550e+003,2.823008e-001
1.743408e+003,2.821147e-001
1.747265e+003,2.836840e-001
1.751122e+003,2.856646e-001
1.754979e+003,2.868375e-001
1.758836e+003,2.875157e-001
1.762693e+003,2.877167e-001
1.766550e+003,2.872815e-001
1.770407e+003,2.854542e-001
1.774264e+003,2.842971e-001
1.778121e+003,2.824138e-001
1.781979e+003,2.798555e-001
1.785836e+003,2.769603e-001
1.789693e+003,2.730389e-001
1.793550e+003,2.688347e-001
1.797407e+003,2.658573e-001
1.801264e+003,2.633709e-001
1.805121e+003,2.607693e-001
1.808978e+003,2.570138e-001
1.812835e+003,2.537532e-001
1.816692e+003,2.512286e-001
1.820549e+003,2.501353e-001
1.824407e+003,2.482929e-001
1.828264e+003,2.467751e-001
1.832121e+003,2.457104e-001
1.835978e+003,2.455714e-001
1.839835e+003,2.454848e-001
1.843692e+003,2.452933e-001
1.847549e+003,2.473683e-001
1.851406e+003,2.485988e-001
1.855263e+003,2.487135e-001
1.859120e+003,2.500135e-001
1.862978e+003,2.511797e-001
1.866835e+003,2.520546e-001
1.870692e+003,2.540026e-001
1.874549e+003,2.559306e-001
1.878406e+003,2.569003e-001
1.882263e+003,2.578922e-001
1.886120e+003,2.602555e-001
1.889977e+003,2.617940e-001
1.893834e+003,2.619731e-001
1.897691e+003,2.615936e-001
1.901548e+003,2.620728e-001
1.905406e+003,2.627783e-001
1.909263e+003,2.609299e-001
1.913120e+003,2.594004e-001
1.916977e+003,2.588059e-001
1.920834e+003,2.572690e-001
1.924691e+003,2.546510e-001
1.928548e+003,2.514997e-001
1.932405e+003,2.492146e-001
1.936262e+003,2.474951e-001
1.940119e+003,2.452372e-001
1.943977e+003,2.420760e-001
1.947834e+003,2.390816e-001
1.951691e+003,2.359205e-001
1.955548e+003,2.321469e-001
1.959405e+003,2.288579e-001
1.963262e+003,2.278043e-001
1.967119e+003,2.262495e-001
1.970976e+003,2.240020e-001
1.974833e+003,2.225802e-001
1.978690e+003,2.219103e-001
1.982547e+003,2.208253e-001
1.986405e+003,2.202661e-001
1.990262e+003,2.214757e-001
1.994119e+003,2.225962e-001
1.997976e+003,2.230578e-001
2.001833e+003,2.223659e-001
2.005690e+003,2.235719e-001
2.009547e+003,2.264891e-001
2.013404e+003,2.286519e-001
2.017261e+003,2.302693e-001
2.021118e+003,2.309937e-001
2.024976e+003,2.328405e-001
2.028833e+003,2.348747e-001
2.032690e+003,2.371758e-001
2.036547e+003,2.395373e-001
2.040404e+003,2.407077e-001
2.044261e+003,2.410345e-001
2.048118e+003,2.422083e-001
2.051975e+003,2.416841e-001
2.055832e+003,2.403305e-001
2.059689e+003,2.405071e-001
2.063546e+003,2.398591e-001
2.067404e+003,2.389853e-001
2.071261e+003,2.380030e-001
2.075118e+003,2.367285e-001
2.078975e+003,2.353670e-001
2.082832e+003,2.336613e-001
2.086689e+003,2.315183e-001
2.090546e+003,2.296154e-001
2.094403e+003,2.270478e-001
2.098260e+003,2.241164e-001
2.102117e+003,2.211313e-001
2.105975e+003,2.193542e-001
2.109832e+003,2.171653e-001
2.113689e+003,2.154714e-001
2.117546e+003,2.142199e-001
2.121403e+003,2.133464e-001
2.125260e+003,2.129450e-001
2.129117e+003,2.125435e-001
2.132974e+003,2.122086e-001
2.136831e+003,2.126083e-001
2.140688e+003,2.134773e-001
2.144545e+003,2.147674e-001
2.148403e+003,2.163678e-001
2.152260e+003,2.179281e-001
2.156117e+003,2.193224e-001
2.159974e+003,2.210713e-001
2.163831e+003,2.234938e-001
2.167688e+003,2.261367e-001
2.171545e+003,2.281505e-001
2.175402e+003,2.295234e-001
2.179259e+003,2.304129e-001
2.183116e+003,2.317765e-001
2.186974e+003,2.352075e-001
2.190831e+003,2.377048e-001
2.194688e+003,2.387820e-001
2.198545e+003,2.392262e-001
2.202402e+003,2.405165e-001
2.206259e+003,2.420582e-001
2.210116e+003,2.423036e-001
2.213973e+003,2.413143e-001
2.217830e+003,2.408067e-001
2.221688e+003,2.403511e-001
2.225544e+003,2.394716e-001
2.229402e+003,2.389901e-001
2.233259e+003,2.374835e-001
2.237116e+003,2.346987e-001
2.240973e+003,2.330045e-001
2.244830e+003,2.330813e-001
2.248687e+003,2.321790e-001
2.252544e+003,2.303365e-001
2.256401e+003,2.291449e-001
2.260258e+003,2.280994e-001
2.264115e+003,2.261334e-001
2.267973e+003,2.254356e-001
2.271830e+003,2.252994e-001
2.275687e+003,2.245317e-001
2.279544e+003,2.249824e-001
2.283401e+003,2.257487e-001
2.287258e+003,2.261222e-001
2.291115e+003,2.264430e-001
2.294972e+003,2.267006e-001
2.298829e+003,2.291092e-001
2.302687e+003,2.318532e-001
2.306543e+003,2.327753e-001
2.310401e+003,2.339681e-001
2.314258e+003,2.362067e-001
2.318115e+003,2.386330e-001
2.321972e+003,2.419950e-001
2.325829e+003,2.445128e-001
2.329686e+003,2.471610e-001
2.333543e+003,2.489400e-001
2.337400e+003,2.509413e-001
2.341257e+003,2.525958e-001
2.345115e+003,2.532800e-001
2.348972e+003,2.538976e-001
2.352829e+003,2.554064e-001
2.356686e+003,2.578213e-001
2.360543e+003,2.590247e-001
2.364400e+003,2.583853e-001
2.368257e+003,2.565096e-001
2.372114e+003,2.543246e-001
2.375971e+003,2.517603e-001
2.379828e+003,2.493165e-001
2.383686e+003,2.472042e-001
2.387542e+003,2.452086e-001
2.391400e+003,2.438923e-001
2.395257e+003,2.431701e-001
2.399114e+003,2.406707e-001
2.402971e+003,2.375566e-001
2.406828e+003,2.357251e-001
2.410685e+003,2.344531e-001
2.414542e+003,2.321454e-001
2.418399e+003,2.296000e-001
2.422256e+003,2.295134e-001
2.426114e+003,2.278419e-001
2.429971e+003,2.267652e-001
2.433828e+003,2.273027e-001
2.437685e+003,2.265994e-001
2.441542e+003,2.259970e-001
2.445399e+003,2.270504e-001
2.449256e+003,2.270547e-001
2.453113e+003,2.272771e-001
2.456970e+003,2.285055e-001
2.460827e+003,2.300609e-001
2.464684e+003,2.319407e-001
2.468542e+003,2.350534e-001
2.472399e+003,2.366078e-001
2.476256e+003,2.365291e-001
2.480113e+003,2.370588e-001
2.483970e+003,2.391610e-001
2.487827e+003,2.423604e-001
2.491684e+003,2.430474e-001
2.495541e+003,2.437914e-001
2.499398e+003,2.455175e-001
2.503255e+003,2.466457e-001
2.507113e+003,2.470354e-001
2.510969e+003,2.474578e-001
2.514827e+003,2.484069e-001
2.518684e+003,2.482373e-001
2.522541e+003,2.482588e-001
2.526398e+003,2.474450e-001
2.530255e+003,2.461272e-001
2.534112e+003,2.466877e-001
2.537969e+003,2.465917e-001
2.541826e+003,2.456626e-001
2.545683e+003,2.435277e-001
2.549541e+003,2.414991e-001
2.553398e+003,2.412043e-001
2.557255e+003,2.408540e-001
2.561112e+003,2.403912e-001
2.564969e+003,2.400535e-001
2.568826e+003,2.387693e-001
2.572683e+003,2.366346e-001
2.576540e+003,2.373113e-001
2.580397e+003,2.386266e-001
2.584254e+003,2.393915e-001
2.588112e+003,2.398640e-001
2.591969e+003,2.403142e-001
2.595826e+003,2.430837e-001
2.599683e+003,2.443888e-001
2.603540e+003,2.453033e-001
2.607397e+003,2.478032e-001
2.611254e+003,2.506119e-001
2.615111e+003,2.528448e-001
2.618968e+003,2.549661e-001
2.622825e+003,2.563329e-001
2.626682e+003,2.591089e-001
2.630540e+003,2.629665e-001
2.634397e+003,2.650727e-001
2.638254e+003,2.674732e-001
2.642111e+003,2.696606e-001
2.645968e+003,2.716697e-001
2.649825e+003,2.740951e-001
2.653682e+003,2.769566e-001
2.657539e+003,2.797464e-001
2.661396e+003,2.817463e-001
2.665253e+003,2.835397e-001
2.669111e+003,2.841507e-001
2.672968e+003,2.854639e-001
2.676825e+003,2.888127e-001
2.680682e+003,2.900092e-001
2.684539e+003,2.903563e-001
2.688396e+003,2.907825e-001
2.692253e+003,2.909965e-001
2.696110e+003,2.910980e-001
2.699967e+003,2.916068e-001
2.703824e+003,2.929482e-001
2.707681e+003,2.934111e-001
2.711539e+003,2.935597e-001
2.715396e+003,2.944712e-001
2.719253e+003,2.959537e-001
2.723110e+003,2.973876e-001
2.726967e+003,2.989188e-001
2.730824e+003,2.992600e-001
2.734681e+003,2.991296e-001
2.738538e+003,3.008468e-001
2.742395e+003,3.029403e-001
2.746252e+003,3.047242e-001
2.750110e+003,3.070623e-001
2.753967e+003,3.090605e-001
2.757824e+003,3.121572e-001
2.761681e+003,3.152781e-001
2.765538e+003,3.183127e-001
2.769395e+003,3.206654e-001
2.773252e+003,3.232065e-001
2.777109e+003,3.273248e-001
2.780966e+003,3.315432e-001
2.784823e+003,3.351800e-001
2.788680e+003,3.387084e-001
2.792538e+003,3.421059e-001
2.796395e+003,3.452631e-001
2.800252e+003,3.482521e-001
2.804109e+003,3.517945e-001
2.807966e+003,3.539899e-001
2.811823e+003,3.563678e-001
2.815680e+003,3.610460e-001
2.819537e+003,3.639301e-001
2.823394e+003,3.647628e-001
2.827251e+003,3.651393e-001
2.831109e+003,3.678828e-001
2.834966e+003,3.718003e-001
2.838823e+003,3.733632e-001
2.842680e+003,3.749748e-001
2.846537e+003,3.783175e-001
2.850394e+003,3.808981e-001
2.854251e+003,3.831682e-001
2.858108e+003,3.841196e-001
2.861965e+003,3.841631e-001
2.865823e+003,3.867081e-001
2.869679e+003,3.901994e-001
2.873537e+003,3.915433e-001
2.877394e+003,3.930930e-001
2.881251e+003,3.947809e-001
2.885108e+003,3.968631e-001
2.888965e+003,3.993045e-001
2.892822e+003,4.023201e-001
2.896679e+003,4.055909e-001
2.900536e+003,4.091262e-001
2.904393e+003,4.143081e-001
2.908250e+003,4.181253e-001
2.912108e+003,4.222195e-001
2.915965e+003,4.267372e-001
2.919822e+003,4.319724e-001
2.923679e+003,4.364055e-001
2.927536e+003,4.376599e-001
2.931393e+003,4.412684e-001
2.935250e+003,4.458990e-001
2.939107e+003,4.490827e-001
2.942964e+003,4.513151e-001
2.946822e+003,4.529043e-001
2.950678e+003,4.577334e-001
2.954536e+003,4.621289e-001
2.958393e+003,4.655268e-001
2.962250e+003,4.689377e-001
2.966107e+003,4.725057e-001
2.969964e+003,4.755618e-001
2.973821e+003,4.782300e-001
2.977678e+003,4.801143e-001
2.981535e+003,4.814340e-001
2.985392e+003,4.851092e-001
2.989250e+003,4.917279e-001
2.993107e+003,4.962960e-001
2.996964e+003,4.992603e-001
3.000821e+003,5.010831e-001
3.004678e+003,5.028398e-001
3.008535e+003,5.058662e-001
3.012392e+003,5.088086e-001
3.016249e+003,5.131037e-001
3.020106e+003,5.169111e-001
3.023963e+003,5.193431e-001
3.027821e+003,5.233608e-001
3.031677e+003,5.261267e-001
3.035535e+003,5.293795e-001
3.039392e+003,5.340587e-001
3.043249e+003,5.378631e-001
3.047106e+003,5.431451e-001
3.050963e+003,5.471889e-001
3.054820e+003,5.500503e-001
3.058677e+003,5.559110e-001
3.062534e+003,5.595922e-001
3.066391e+003,5.625914e-001
3.070249e+003,5.675358e-001
3.074106e+003,5.731238e-001
3.077963e+003,5.774010e-001
3.081820e+003,5.831341e-001
3.085677e+003,5.878218e-001
3.089534e+003,5.917880e-001
3.093391e+003,5.981748e-001
3.097248e+003,6.026427e-001
3.101105e+003,6.054401e-001
3.104962e+003,6.098556e-001
3.108820e+003,6.186118e-001
3.112677e+003,6.264029e-001
3.116534e+003,6.300982e-001
3.120391e+003,6.338172e-001
3.124248e+003,6.402368e-001
3.128105e+003,6.428789e-001
3.131962e+003,6.465303e-001
3.135819e+003,6.501269e-001
3.139676e+003,6.549353e-001
3.143533e+003,6.602327e-001
3.147390e+003,6.628088e-001
3.151248e+003,6.663315e-001
3.155105e+003,6.723095e-001
3.158962e+003,6.785604e-001
3.162819e+003,6.839300e-001
3.166676e+003,6.876470e-001
3.170533e+003,6.892932e-001
3.174390e+003,6.928760e-001
3.178247e+003,6.993651e-001
3.182104e+003,7.074249e-001
3.185961e+003,7.135476e-001
3.189819e+003,7.179925e-001
3.193676e+003,7.226684e-001
3.197533e+003,7.273110e-001
3.201390e+003,7.310399e-001
3.205247e+003,7.355742e-001
3.209104e+003,7.418647e-001
3.212961e+003,7.485633e-001
3.216818e+003,7.536687e-001
3.220675e+003,7.569955e-001
3.224532e+003,7.596974e-001
3.228389e+003,7.664039e-001
3.232247e+003,7.693444e-001
3.236104e+003,7.695485e-001
3.239961e+003,7.738104e-001
3.243818e+003,7.810490e-001
3.247675e+003,7.831606e-001
3.251532e+003,7.855223e-001
3.255389e+003,7.946111e-001
3.259246e+003,8.006053e-001
3.263103e+003,8.024292e-001
3.266960e+003,8.066478e-001
3.270818e+003,8.073521e-001
3.274675e+003,8.061127e-001
3.278532e+003,8.130663e-001
3.282389e+003,8.184072e-001
3.286246e+003,8.216687e-001
3.290103e+003,8.250784e-001
3.293960e+003,8.312079e-001
3.297817e+003,8.336947e-001
3.301674e+003,8.320152e-001
3.305531e+003,8.368031e-001
3.309388e+003,8.447493e-001
3.313246e+003,8.523490e-001
3.317103e+003,8.534170e-001
3.320960e+003,8.552505e-001
3.324817e+003,8.579889e-001
3.328674e+003,8.622670e-001
3.332531e+003,8.717893e-001
3.336388e+003,8.807215e-001
3.340245e+003,8.788120e-001
3.344102e+003,8.807065e-001
3.347959e+003,8.915069e-001
3.351817e+003,8.989666e-001
3.355674e+003,9.053292e-001
3.359531e+003,9.089943e-001
3.363388e+003,9.091644e-001
3.367245e+003,9.108939e-001
3.371102e+003,9.171210e-001
3.374959e+003,9.199311e-001
3.378816e+003,9.291059e-001
3.382673e+003,9.326412e-001
3.386530e+003,9.307947e-001
3.390387e+003,9.324759e-001
3.394245e+003,9.321148e-001
3.398102e+003,9.369630e-001
3.401959e+003,9.444322e-001
3.405816e+003,9.470832e-001
3.409673e+003,9.473962e-001
3.413530e+003,9.532011e-001
3.417387e+003,9.585069e-001
3.421244e+003,9.601129e-001
3.425101e+003,9.609394e-001
3.428958e+003,9.672585e-001
3.432815e+003,9.703316e-001
3.436673e+003,9.748173e-001
3.440530e+003,9.739342e-001
3.444387e+003,9.684711e-001
3.448244e+003,9.756717e-001
3.452101e+003,9.762312e-001
3.455958e+003,9.718407e-001
3.459815e+003,9.743562e-001
3.463672e+003,9.768472e-001
3.467529e+003,9.757560e-001
3.471386e+003,9.848890e-001
3.475244e+003,9.899089e-001
3.479101e+003,9.838033e-001
3.482958e+003,9.817930e-001
3.486815e+003,9.830320e-001
3.490672e+003,9.854108e-001
3.494529e+003,9.874964e-001
3.498386e+003,9.859583e-001
3.502243e+003,9.824417e-001
3.506100e+003,9.837724e-001
3.509958e+003,9.870068e-001
3.513814e+003,9.816487e-001
3.517672e+003,9.772853e-001
3.521529e+003,9.789669e-001
3.525386e+003,9.855283e-001
3.529243e+003,9.842127e-001
3.533100e+003,9.748178e-001
3.536957e+003,9.709473e-001
3.540814e+003,9.717383e-001
3.544671e+003,9.779537e-001
3.548528e+003,9.738492e-001
3.552385e+003,9.605048e-001
3.556243e+003,9.548184e-001
3.560100e+003,9.478089e-001
3.563957e+003,9.377954e-001
3.567814e+003,9.347477e-001
3.571671e+003,9.281023e-001
3.575528e+003,9.083512e-001
3.579385e+003,8.929524e-001
3.583242e+003,8.817905e-001
3.587099e+003,8.644000e-001
3.590957e+003,8.428963e-001
3.594813e+003,8.202775e-001
3.598671e+003,7.944744e-001
3.602528e+003,7.700070e-001
3.606385e+003,7.459578e-001
3.610242e+003,7.174535e-001
3.614099e+003,6.844751e-001
3.617956e+003,6.500853e-001
3.621813e+003,6.148030e-001
3.625670e+003,5.799985e-001
3.629527e+003,5.452992e-001
3.633385e+003,5.118332e-001
3.637242e+003,4.778946e-001
3.641099e+003,4.451624e-001
3.644956e+003,4.142464e-001
3.648813e+003,3.861510e-001
3.652670e+003,3.590460e-001
3.656527e+003,3.314549e-001
3.660384e+003,3.064203e-001
3.664241e+003,2.854065e-001
3.668098e+003,2.674447e-001
3.671956e+003,2.516854e-001
3.675813e+003,2.386478e-001
3.679670e+003,2.255768e-001
3.683527e+003,2.133938e-001
3.687384e+003,2.033651e-001
3.691241e+003,1.956620e-001
3.695098e+003,1.898371e-001
3.698955e+003,1.834089e-001
3.702812e+003,1.770849e-001
3.706669e+003,1.709635e-001
3.710526e+003,1.670924e-001
3.714384e+003,1.639627e-001
3.718241e+003,1.600512e-001
3.722098e+003,1.566165e-001
3.725955e+003,1.537905e-001
3.729812e+003,1.505355e-001
3.733669e+003,1.474419e-001
3.737526e+003,1.448023e-001
3.741383e+003,1.418577e-001
3.745240e+003,1.397403e-001
3.749097e+003,1.405021e-001
3.752955e+003,1.389369e-001
3.756812e+003,1.378356e-001
3.760669e+003,1.371689e-001
3.764526e+003,1.360909e-001
3.768383e+003,1.350875e-001
3.772240e+003,1.343596e-001
3.776097e+003,1.341834e-001
3.779954e+003,1.338182e-001
3.783811e+003,1.335683e-001
3.787668e+003,1.327050e-001
3.791525e+003,1.333885e-001
3.795383e+003,1.350795e-001
3.799240e+003,1.359452e-001
3.803097e+003,1.355591e-001
3.806954e+003,1.345704e-001
3.810811e+003,1.337875e-001
3.814668e+003,1.346433e-001
3.818525e+003,1.351380e-001
3.822382e+003,1.351449e-001
3.826239e+003,1.350047e-001
3.830096e+003,1.343255e-001
3.833954e+003,1.343417e-001
3.837811e+003,1.348978e-001
3.841668e+003,1.334792e-001
3.845525e+003,1.322858e-001
3.849382e+003,1.322238e-001
3.853239e+003,1.325675e-001
3.857096e+003,1.316672e-001
3.860953e+003,1.313233e-001
3.864810e+003,1.305604e-001
3.868667e+003,1.300606e-001
3.872524e+003,1.298166e-001
3.876382e+003,1.289069e-001
3.880239e+003,1.279401e-001
3.884096e+003,1.276337e-001
3.887953e+003,1.260789e-001
3.891810e+003,1.245183e-001
3.895667e+003,1.243277e-001
3.899524e+003,1.246431e-001
3.903381e+003,1.245340e-001
3.907238e+003,1.246426e-001
3.911095e+003,1.238059e-001
3.914953e+003,1.239133e-001
3.918810e+003,1.242552e-001
3.922667e+003,1.231809e-001
3.926524e+003,1.237159e-001
3.930381e+003,1.243861e-001
3.934238e+003,1.255677e-001
3.938095e+003,1.266991e-001
3.941952e+003,1.253222e-001
3.945809e+003,1.238882e-001
3.949667e+003,1.239372e-001
3.953523e+003,1.244540e-001
3.957381e+003,1.238805e-001
3.961238e+003,1.248332e-001
3.965095e+003,1.256318e-001
3.968952e+003,1.253841e-001
3.972809e+003,1.252114e-001
3.976666e+003,1.244323e-001
3.980523e+003,1.243080e-001
3.984380e+003,1.230871e-001
3.988237e+003,1.230722e-001
3.992094e+003,1.244597e-001
3.995952e+003,1.253551e-001
3.999809e+003,1.247877e-001
4.003666e+003,1.227742e-001
4.007523e+003,1.210754e-001
4.011380e+003,1.196960e-001
4.015237e+003,1.206573e-001
4.019094e+003,1.207119e-001
4.022951e+003,1.197313e-001
4.026808e+003,1.188220e-001
4.030666e+003,1.189890e-001
4.034522e+003,1.184043e-001
4.038380e+003,1.182783e-001
4.042237e+003,1.182326e-001
4.046094e+003,1.176663e-001
4.049951e+003,1.182093e-001
4.053808e+003,1.180772e-001
4.057665e+003,1.180468e-001
4.061522e+003,1.165008e-001
4.065379e+003,1.157497e-001
4.069236e+003,1.164996e-001
4.073094e+003,1.160927e-001
4.076951e+003,1.149269e-001
4.080808e+003,1.142103e-001
4.084665e+003,1.143521e-001
4.088522e+003,1.149249e-001
4.092379e+003,1.157668e-001
4.096236e+003,1.160136e-001
4.100093e+003,1.153715e-001
4.103950e+003,1.148452e-001
4.107808e+003,1.155882e-001
4.111665e+003,1.168166e-001
4.115521e+003,1.150256e-001
4.119379e+003,1.121862e-001
4.123236e+003,1.127567e-001
4.127093e+003,1.133795e-001
4.130950e+003,1.152302e-001
4.134807e+003,1.161913e-001
4.138664e+003,1.159054e-001
4.142521e+003,1.156821e-001
4.146378e+003,1.151164e-001
4.150235e+003,1.133051e-001
4.154093e+003,1.124630e-001
4.157950e+003,1.116296e-001
4.161807e+003,1.106259e-001
4.165664e+003,1.107257e-001
4.169521e+003,1.115639e-001
4.173378e+003,1.123957e-001
4.177235e+003,1.106974e-001
4.181092e+003,1.096001e-001
4.184949e+003,1.081579e-001
4.188807e+003,1.080564e-001
4.192664e+003,1.071019e-001
4.196521e+003,1.055244e-001
4.200378e+003,1.057257e-001
4.204235e+003,1.053162e-001
4.208092e+003,1.042897e-001
4.211949e+003,1.059676e-001
4.215806e+003,1.068153e-001
4.219663e+003,1.057360e-001
4.223521e+003,1.062177e-001
4.227377e+003,1.067074e-001
4.231234e+003,1.056251e-001
4.235092e+003,1.049006e-001
4.238949e+003,1.061335e-001
4.242806e+003,1.082964e-001
4.246663e+003,1.096756e-001
4.250520e+003,1.095147e-001
4.254377e+003,1.082524e-001
4.258234e+003,1.082964e-001
4.262091e+003,1.080858e-001
4.265948e+003,1.068949e-001
4.269806e+003,1.067403e-001
4.273663e+003,1.077560e-001
4.277520e+003,1.077645e-001
4.281377e+003,1.093708e-001
4.285234e+003,1.098049e-001
4.289091e+003,1.085546e-001
4.292948e+003,1.070274e-001
4.296805e+003,1.059083e-001
4.300662e+003,1.060496e-001
4.304520e+003,1.077877e-001
4.308376e+003,1.075853e-001
4.312233e+003,1.060143e-001
4.316091e+003,1.049203e-001
4.319948e+003,1.044527e-001
4.323805e+003,1.055611e-001
4.327662e+003,1.067942e-001
4.331519e+003,1.060645e-001
4.335376e+003,1.062050e-001
4.339233e+003,1.056706e-001
4.343090e+003,1.044013e-001
4.346947e+003,1.027714e-001
4.350805e+003,1.012551e-001
4.354662e+003,1.007566e-001
4.358519e+003,1.025197e-001
4.362376e+003,1.048427e-001
4.366233e+003,1.048025e-001
4.370090e+003,1.026783e-001
4.373947e+003,1.027323e-001
4.377804e+003,1.044018e-001
4.381661e+003,1.036029e-001
4.385519e+003,1.049042e-001
4.389375e+003,1.082775e-001
4.393232e+003,1.091132e-001
4.397090e+003,1.069843e-001
4.400947e+003,1.063424e-001
4.404804e+003,1.049749e-001
4.408661e+003,1.046222e-001
4.412518e+003,1.036955e-001
4.416375e+003,1.044173e-001
4.420232e+003,1.059028e-001
4.424089e+003,1.070534e-001
4.427946e+003,1.073134e-001
4.431804e+003,1.073487e-001
4.435661e+003,1.070777e-001
4.439518e+003,1.063511e-001
4.443375e+003,1.067376e-001
4.447232e+003,1.072448e-001
4.451089e+003,1.068604e-001
4.454946e+003,1.074296e-001
4.458803e+003,1.073264e-001
4.462660e+003,1.070762e-001
4.466518e+003,1.052982e-001
4.470375e+003,1.052310e-001
4.474231e+003,1.083380e-001
4.478089e+003,1.080761e-001
4.481946e+003,1.045211e-001
4.485803e+003,1.029778e-001
4.489660e+003,1.041837e-001
4.493517e+003,1.055387e-001
4.497375e+003,1.048110e-001
4.501231e+003,1.022763e-001
4.505088e+003,1.010519e-001
4.508946e+003,1.032159e-001
4.512803e+003,1.049979e-001
4.516660e+003,1.040056e-001
4.520517e+003,1.048554e-001
4.524374e+003,1.042063e-001
4.528231e+003,9.993322e-002
4.532088e+003,9.981025e-002
4.535945e+003,1.016260e-001
4.539802e+003,1.014040e-001
4.543660e+003,9.968206e-002
4.547517e+003,1.001262e-001
4.551374e+003,1.013891e-001
4.555231e+003,1.015819e-001
4.559088e+003,1.006646e-001
4.562945e+003,9.955586e-002
4.566802e+003,9.961624e-002
4.570659e+003,1.003004e-001
4.574516e+003,1.001089e-001
4.578374e+003,1.002220e-001
4.582230e+003,9.872873e-002
4.586087e+003,9.910134e-002
4.589945e+003,1.010475e-001
4.593802e+003,1.013468e-001
4.597659e+003,1.016947e-001
4.601516e+003,1.002989e-001
4.605373e+003,9.861392e-002
4.609230e+003,9.795873e-002
4.613087e+003,9.843578e-002
4.616944e+003,9.911275e-002
4.620801e+003,9.712187e-002
4.624659e+003,9.762186e-002
4.628516e+003,9.823802e-002
4.632373e+003,9.764024e-002
4.636230e+003,9.542900e-002
4.640087e+003,9.388607e-002
4.643944e+003,9.481817e-002
4.647801e+003,9.689262e-002
4.651658e+003,9.753943e-002
4.655515e+003,9.690003e-002
4.659373e+003,9.540816e-002
4.663229e+003,9.275137e-002
4.667086e+003,9.513897e-002
4.670944e+003,9.798007e-002
4.674801e+003,9.673605e-002
4.678658e+003,9.612913e-002
4.682515e+003,9.614421e-002
4.686372e+003,9.529789e-002
4.690229e+003,9.336920e-002
4.694086e+003,9.341152e-002
4.697943e+003,9.446038e-002
4.701800e+003,9.593490e-002
4.705658e+003,9.648296e-002
4.709515e+003,9.650137e-002
4.713372e+003,9.682661e-002
4.717229e+003,9.671564e-002
4.721086e+003,9.910942e-002
4.724943e+003,1.003042e-001
4.728800e+003,9.864002e-002
4.732657e+003,9.771297e-002
4.736514e+003,9.713990e-002
4.740372e+003,9.777542e-002
4.744229e+003,9.784453e-002
4.748085e+003,9.660707e-002
4.751943e+003,9.623501e-002
4.755800e+003,9.557457e-002
4.759657e+003,9.546215e-002
4.763514e+003,9.750393e-002
4.767371e+003,9.900694e-002
4.771228e+003,9.871858e-002
4.775085e+003,9.775617e-002
4.778942e+003,9.687705e-002
4.782799e+003,9.948477e-002
4.786657e+003,9.960841e-002
4.790514e+003,9.654470e-002
4.794371e+003,9.393201e-002
4.798228e+003,9.431074e-002
4.802085e+003,9.667383e-002
4.805942e+003,9.521108e-002
4.809799e+003,9.345014e-002
4.813656e+003,9.590109e-002
4.817513e+003,9.787437e-002
4.821371e+003,9.546492e-002
4.825228e+003,9.359282e-002
4.829084e+003,9.473512e-002
4.832942e+003,9.644419e-002
4.836799e+003,9.795520e-002
4.840656e+003,9.741792e-002
4.844513e+003,9.490791e-002
4.848370e+003,9.475305e-002
4.852227e+003,9.469935e-002
4.856084e+003,9.262020e-002
4.859941e+003,9.606228e-002
4.863798e+003,9.751318e-002
4.867656e+003,9.368470e-002
4.871513e+003,9.225372e-002
4.875370e+003,9.509583e-002
4.879227e+003,9.508695e-002
4.883084e+003,9.452142e-002
4.886941e+003,9.589460e-002
4.890798e+003,9.570374e-002
4.894655e+003,9.611387e-002
4.898512e+003,9.602983e-002
4.902370e+003,9.506877e-002
4.906227e+003,9.428855e-002
4.910083e+003,9.616663e-002
4.913941e+003,9.876263e-002
4.917798e+003,9.848607e-002
4.921655e+003,9.626359e-002
4.925512e+003,9.726100e-002
4.929369e+003,9.965413e-002
4.933226e+003,9.855641e-002
4.937083e+003,9.843607e-002
4.940940e+003,9.754276e-002
4.944797e+003,9.496217e-002
4.948655e+003,9.578140e-002
4.952512e+003,9.451034e-002
4.956369e+003,9.448253e-002
4.960226e+003,9.544486e-002
4.964083e+003,9.424894e-002
4.967940e+003,9.397154e-002
4.971797e+003,9.508412e-002
4.975654e+003,9.406020e-002
4.979511e+003,9.308460e-002
4.983369e+003,9.417947e-002
4.987226e+003,9.458975e-002
4.991083e+003,9.318537e-002
4.994940e+003,9.218694e-002
4.998797e+003,9.452417e-002
5.002654e+003,9.497190e-002
5.006511e+003,9.542347e-002
5.010368e+003,9.736207e-002
5.014225e+003,9.675796e-002
5.018083e+003,9.597796e-002
5.021939e+003,9.499491e-002
5.025796e+003,9.490754e-002
5.029654e+003,9.654987e-002
5.033511e+003,9.815445e-002
5.037368e+003,9.844122e-002
5.041225e+003,9.649815e-002
5.045082e+003,9.592026e-002
5.048939e+003,9.609250e-002
5.052796e+003,9.470092e-002
5.056653e+003,9.425212e-002
5.060510e+003,9.474678e-002
5.064368e+003,9.595919e-002
5.068225e+003,9.807911e-002
5.072082e+003,1.001764e-001
5.075939e+003,1.002541e-001
5.079796e+003,9.795482e-002
5.083653e+003,9.810660e-002
5.087510e+003,9.690335e-002
5.091367e+003,9.697914e-002
5.095224e+003,9.853579e-002
5.099082e+003,9.742912e-002
5.102938e+003,9.576281e-002
5.106795e+003,9.653605e-002
5.110653e+003,9.629155e-002
5.114510e+003,9.666187e-002
5.118367e+003,1.003553e-001
5.122224e+003,9.957173e-002
5.126081e+003,9.705094e-002
5.129938e+003,9.853476e-002
5.133795e+003,1.016519e-001
5.137652e+003,1.014230e-001
5.141509e+003,9.965546e-002
5.145367e+003,9.962779e-002
5.149224e+003,9.868057e-002
5.153081e+003,9.977656e-002
5.156938e+003,1.000559e-001
5.160795e+003,1.005878e-001
5.164652e+003,1.002542e-001
5.168509e+003,9.815793e-002
5.172366e+003,9.619309e-002
5.176223e+003,9.876363e-002
5.180081e+003,9.875602e-002
5.183938e+003,9.586287e-002
5.187794e+003,9.572209e-002
5.191652e+003,9.881338e-002
5.195509e+003,1.012158e-001
5.199366e+003,1.014240e-001
5.203223e+003,1.010524e-001
5.207080e+003,9.966893e-002
5.210937e+003,9.984782e-002
5.214794e+003,9.915833e-002
5.218651e+003,9.847011e-002
5.222508e+003,9.928542e-002
5.226366e+003,9.985061e-002
5.230223e+003,9.893079e-002
5.234080e+003,1.002448e-001
5.237937e+003,9.886060e-002
5.241794e+003,9.731365e-002
5.245651e+003,9.496362e-002
5.249508e+003,9.218538e-002
5.253365e+003,9.276827e-002
5.257222e+003,9.510919e-002
5.261080e+003,9.434648e-002
5.264937e+003,9.257386e-002
5.268793e+003,9.316570e-002
5.272651e+003,9.402350e-002
5.276508e+003,9.334419e-002
5.280365e+003,9.263628e-002
5.284222e+003,9.242278e-002
5.288079e+003,9.485094e-002
5.291936e+003,9.776841e-002
5.295793e+003,9.536095e-002
5.299650e+003,9.209325e-002
5.303507e+003,9.443237e-002
5.307365e+003,9.533726e-002
5.311222e+003,9.443608e-002
5.315079e+003,9.407301e-002
5.318936e+003,9.302816e-002
5.322793e+003,9.216452e-002
5.326650e+003,9.357930e-002
5.330507e+003,9.573229e-002
5.334364e+003,9.361297e-002
5.338221e+003,9.148405e-002
5.342079e+003,9.380160e-002
5.345936e+003,9.675046e-002
5.349792e+003,9.741171e-002
5.353650e+003,9.593812e-002
5.357507e+003,9.622199e-002
5.361364e+003,9.614608e-002
5.365221e+003,9.452401e-002
5.369078e+003,9.098332e-002
5.372935e+003,8.968294e-002
5.376792e+003,9.165711e-002
5.380649e+003,9.162737e-002
5.384506e+003,8.941967e-002
5.388364e+003,8.847665e-002
5.392221e+003,8.992574e-002
5.396078e+003,8.960046e-002
5.399935e+003,9.177780e-002
5.403792e+003,9.493257e-002
5.407649e+003,9.321760e-002
5.411506e+003,9.240888e-002
5.415363e+003,9.356812e-002
5.419220e+003,9.439547e-002
5.423078e+003,9.553890e-002
5.426935e+003,9.556148e-002
5.430792e+003,9.476640e-002
5.434649e+003,9.453629e-002
5.438506e+003,9.432078e-002
5.442363e+003,9.355986e-002
5.446220e+003,9.509826e-002
5.450077e+003,9.583680e-002
5.453934e+003,9.503314e-002
5.457792e+003,9.509079e-002
5.461648e+003,9.563784e-002
5.465505e+003,9.453472e-002
5.469363e+003,9.440647e-002
5.473220e+003,9.516537e-002
5.477077e+003,9.460855e-002
5.480934e+003,9.274001e-002
5.484791e+003,9.246509e-002
5.488648e+003,9.171137e-002
5.492505e+003,9.371508e-002
5.496362e+003,9.636422e-002
5.500219e+003,9.695889e-002
5.504077e+003,9.682188e-002
5.507934e+003,9.486479e-002
5.511791e+003,9.449530e-002
5.515648e+003,9.653386e-002
5.519505e+003,9.900253e-002
5.523362e+003,9.930282e-002
5.527219e+003,9.984436e-002
5.531076e+003,9.492696e-002
5.534933e+003,9.456607e-002
5.538791e+003,9.874978e-002
5.542647e+003,9.578169e-002
5.546504e+003,9.277196e-002
5.550362e+003,9.387537e-002
5.554219e+003,9.336612e-002
5.558076e+003,9.122898e-002
5.561933e+003,9.352250e-002
5.565790e+003,9.460311e-002
5.569647e+003,9.572890e-002
5.573504e+003,9.588618e-002
5.577361e+003,9.348039e-002
5.581218e+003,9.084035e-002
5.585076e+003,9.163878e-002
5.588933e+003,9.156694e-002
5.592790e+003,8.975586e-002
5.596647e+003,9.165302e-002
5.600504e+003,9.172071e-002
5.604361e+003,9.223753e-002
5.608218e+003,9.322614e-002
5.612075e+003,9.364425e-002
5.615932e+003,9.349300e-002
5.619790e+003,9.185169e-002
5.623646e+003,9.316976e-002
5.627503e+003,9.639798e-002
5.631361e+003,9.513287e-002
5.635218e+003,9.607302e-002
5.639075e+003,9.572167e-002
5.642932e+003,9.422108e-002
5.646789e+003,9.321041e-002
5.650646e+003,9.372400e-002
5.654503e+003,9.548729e-002
5.658360e+003,9.820662e-002
5.662217e+003,9.756137e-002
5.666075e+003,9.686259e-002
5.669932e+003,9.880589e-002
5.673789e+003,9.971394e-002
5.677646e+003,9.662275e-002
5.681503e+003,9.508209e-002
5.685360e+003,9.802400e-002
5.689217e+003,9.873747e-002
5.693074e+003,9.740951e-002
5.696931e+003,9.611172e-002
5.700789e+003,9.953990e-002
5.704646e+003,9.850466e-002
5.708502e+003,9.573258e-002
5.712360e+003,9.482386e-002
5.716217e+003,9.618416e-002
5.720074e+003,9.418835e-002
5.723931e+003,9.078574e-002
5.727788e+003,8.830079e-002
5.731645e+003,8.997620e-002
5.735502e+003,9.336124e-002
5.739359e+003,9.430316e-002
5.743216e+003,9.418012e-002
5.747074e+003,9.527033e-002
5.750931e+003,9.378374e-002
5.754788e+003,9.317070e-002
5.758645e+003,9.641208e-002
5.762502e+003,9.820189e-002
5.766359e+003,9.801395e-002
5.770216e+003,9.784299e-002
5.774073e+003,9.951573e-002
5.777930e+003,9.859309e-002
5.781788e+003,9.388841e-002
5.785645e+003,9.365494e-002
5.789501e+003,9.697860e-002
5.793359e+003,9.569710e-002
5.797216e+003,9.609328e-002
5.801073e+003,9.948453e-002
5.804930e+003,1.022727e-001
5.808787e+003,1.021223e-001
5.812644e+003,1.007063e-001
5.816501e+003,1.019925e-001
5.820358e+003,1.024777e-001
5.824215e+003,9.920992e-002
5.828073e+003,9.969798e-002
5.831930e+003,1.008021e-001
5.835787e+003,9.663919e-002
5.839644e+003,9.223582e-002
5.843501e+003,9.519095e-002
5.847358e+003,9.740818e-002
5.851215e+003,9.843216e-002
5.855072e+003,9.958240e-002
5.858929e+003,9.230695e-002
5.862787e+003,9.089810e-002
5.866644e+003,9.445646e-002
5.870500e+003,9.661265e-002
5.874358e+003,9.777468e-002
5.878215e+003,9.639430e-002
5.882072e+003,9.278169e-002
5.885929e+003,9.590944e-002
5.889786e+003,9.760867e-002
5.893643e+003,9.471505e-002
5.897500e+003,9.495203e-002
5.901357e+003,9.829441e-002
5.905214e+003,9.921496e-002
5.909072e+003,9.673067e-002
5.912929e+003,9.637899e-002
5.916786e+003,9.607505e-002
5.920643e+003,9.795192e-002
5.924500e+003,9.719095e-002
5.928357e+003,9.624068e-002
5.932214e+003,9.847942e-002
5.936071e+003,1.008851e-001
5.939928e+003,1.009185e-001
5.943786e+003,9.944270e-002
5.947643e+003,1.026530e-001
5.951500e+003,1.041759e-001
5.955357e+003,1.027807e-001
5.959214e+003,1.025027e-001
5.963071e+003,1.039333e-001
5.966928e+003,1.056231e-001
5.970785e+003,1.023894e-001
5.974642e+003,1.031333e-001
5.978500e+003,1.060910e-001
5.982356e+003,1.085508e-001
5.986213e+003,1.100877e-001
5.990071e+003,1.071797e-001
5.993928e+003,1.004544e-001
5.997785e+003,1.016297e-001
6.001642e+003,1.035770e-001
6.005499e+003,1.002791e-001
6.009356e+003,9.999596e-002
6.013213e+003,1.007322e-001
6.017070e+003,1.006148e-001
6.020927e+003,9.953990e-002
6.024785e+003,9.482980e-002
6.028642e+003,9.622952e-002
6.032499e+003,9.870752e-002
6.036356e+003,9.890666e-002
6.040213e+003,9.940941e-002
6.044070e+003,9.632493e-002
6.047927e+003,9.281947e-002
6.051784e+003,9.542467e-002
6.055641e+003,9.956294e-002
6.059499e+003,9.723900e-002
6.063355e+003,9.826732e-002
6.067212e+003,1.010871e-001
6.071070e+003,1.038010e-001
6.074927e+003,1.041117e-001
6.078784e+003,1.026561e-001
6.082641e+003,1.040910e-001
6.086498e+003,1.045132e-001
6.090355e+003,1.025796e-001
6.094212e+003,1.020470e-001
6.098069e+003,1.041421e-001
6.101926e+003,1.035062e-001
6.105784e+003,9.912258e-002
6.109641e+003,1.007665e-001
6.113498e+003,1.050624e-001
6.117355e+003,1.053865e-001
6.121212e+003,1.040084e-001
6.125069e+003,1.041385e-001
6.128926e+003,1.035818e-001
6.132783e+003,1.009479e-001
6.136640e+003,1.025667e-001
6.140498e+003,1.032795e-001
6.144354e+003,1.037172e-001
6.148211e+003,1.057002e-001
6.152069e+003,1.078994e-001
6.155926e+003,1.118901e-001
6.159783e+003,1.083847e-001
6.163640e+003,1.040886e-001
6.167497e+003,1.065783e-001
6.171354e+003,1.022834e-001
6.175211e+003,9.635297e-002
6.179068e+003,9.575257e-002
6.182925e+003,1.014237e-001
6.186783e+003,1.056723e-001
6.190640e+003,1.047412e-001
6.194497e+003,9.997731e-002
6.198354e+003,1.015402e-001
6.202211e+003,1.005623e-001
6.206068e+003,9.528039e-002
6.209925e+003,9.443517e-002
6.213782e+003,9.828161e-002
6.217639e+003,9.830874e-002
6.221497e+003,9.662942e-002
6.225354e+003,9.787155e-002
6.229210e+003,9.872420e-002
6.233068e+003,9.809725e-002
6.236925e+003,9.779891e-002
6.240782e+003,1.060027e-001
6.244639e+003,1.107579e-001
6.248496e+003,1.085038e-001
6.252353e+003,1.086775e-001
6.256210e+003,1.099971e-001
6.260067e+003,1.078832e-001
6.263924e+003,1.032452e-001
6.267782e+003,1.017475e-001
6.271639e+003,1.060288e-001
6.275496e+003,1.071351e-001
6.279353e+003,1.078491e-001
6.283210e+003,1.106958e-001
6.287067e+003,1.106222e-001
6.290924e+003,1.127765e-001
6.294781e+003,1.080635e-001
6.298638e+003,1.095057e-001
6.302496e+003,1.148795e-001
6.306353e+003,1.092875e-001
6.310209e+003,1.044955e-001
6.314067e+003,1.092029e-001
6.317924e+003,1.147217e-001
6.321781e+003,1.126706e-001
6.325638e+003,1.093260e-001
6.329495e+003,1.084125e-001
6.333352e+003,1.101190e-001
6.337209e+003,1.096146e-001
6.341066e+003,1.066194e-001
6.344923e+003,1.055122e-001
6.348780e+003,1.116764e-001
6.352638e+003,1.133545e-001
6.356495e+003,1.090289e-001
6.360352e+003,1.112649e-001
6.364209e+003,1.128653e-001
6.368066e+003,1.042666e-001
6.371923e+003,1.010373e-001
6.375780e+003,1.053531e-001
6.379637e+003,1.095876e-001
6.383494e+003,1.100075e-001
6.387352e+003,1.055907e-001
6.391208e+003,9.985136e-002
6.395065e+003,9.951611e-002
6.398923e+003,1.024060e-001
6.402780e+003,1.035388e-001
6.406637e+003,1.083767e-001
6.410494e+003,1.098487e-001
6.414351e+003,1.102365e-001
6.418208e+003,1.111616e-001
6.422065e+003,1.112006e-001
6.425922e+003,1.136206e-001
6.429779e+003,1.113715e-001
6.433637e+003,1.085444e-001
6.437494e+003,1.122147e-001
6.441351e+003,1.180209e-001
6.445208e+003,1.169275e-001
6.449065e+003,1.160895e-001
6.452922e+003,1.159263e-001
6.456779e+003,1.157689e-001
6.460636e+003,1.160206e-001
6.464493e+003,1.176137e-001
6.468351e+003,1.154343e-001
6.472208e+003,1.145520e-001
6.476064e+003,1.154320e-001
6.479922e+003,1.189052e-001
6.483779e+003,1.222382e-001
6.487636e+003,1.177835e-001
6.491493e+003,1.168931e-001
6.495350e+003,1.199057e-001
6.499207e+003,1.114991e-001
6.503064e+003,1.044019e-001
6.506921e+003,1.078732e-001
6.510778e+003,1.109603e-001
6.514636e+003,1.134691e-001
6.518493e+003,1.169000e-001
6.522350e+003,1.143535e-001
6.526207e+003,1.121722e-001
6.530064e+003,1.108103e-001
6.533921e+003,1.095315e-001
6.537778e+003,1.069274e-001
6.541635e+003,1.058142e-001
6.545492e+003,1.085792e-001
6.549350e+003,1.138493e-001
6.553207e+003,1.187509e-001
6.557063e+003,1.226331e-001
6.560921e+003,1.130996e-001
6.564778e+003,1.069335e-001
6.568635e+003,1.130727e-001
6.572492e+003,1.155542e-001
6.576349e+003,1.168258e-001
6.580206e+003,1.174997e-001
6.584063e+003,1.234540e-001
6.587920e+003,1.289838e-001
6.591777e+003,1.248663e-001
6.595635e+003,1.216273e-001
6.599492e+003,1.224707e-001
6.603349e+003,1.255350e-001
6.607206e+003,1.207968e-001
6.611063e+003,1.158164e-001
6.614920e+003,1.156604e-001
6.618777e+003,1.212623e-001
6.622634e+003,1.279260e-001
6.626491e+003,1.261324e-001
6.630349e+003,1.222508e-001
6.634206e+003,1.215267e-001
6.638063e+003,1.183565e-001
6.641920e+003,1.158087e-001
6.645777e+003,1.171731e-001
6.649634e+003,1.183326e-001
6.653491e+003,1.188274e-001
6.657348e+003,1.156315e-001
6.661205e+003,1.165790e-001
6.665063e+003,1.130825e-001
6.668919e+003,1.074890e-001
6.672776e+003,1.050643e-001
6.676634e+003,1.087861e-001
6.680491e+003,1.103687e-001
6.684348e+003,1.108572e-001
6.688205e+003,1.211345e-001
6.692062e+003,1.264874e-001
6.695919e+003,1.200973e-001
6.699776e+003,1.193125e-001
6.703633e+003,1.210005e-001
6.707490e+003,1.138101e-001
6.711348e+003,1.171111e-001
6.715205e+003,1.199187e-001
6.719062e+003,1.141955e-001
6.722919e+003,1.143031e-001
6.726776e+003,1.188901e-001
6.730633e+003,1.214518e-001
6.734490e+003,1.230735e-001
6.738347e+003,1.214634e-001
6.742204e+003,1.203330e-001
6.746062e+003,1.250206e-001
6.749918e+003,1.272646e-001
6.753775e+003,1.278821e-001
6.757633e+003,1.269771e-001
6.761490e+003,1.256845e-001
6.765347e+003,1.256682e-001
6.769204e+003,1.264842e-001
6.773061e+003,1.221425e-001
6.776918e+003,1.208674e-001
6.780775e+003,1.235290e-001
6.784632e+003,1.296284e-001
6.788489e+003,1.411152e-001
6.792347e+003,1.326087e-001
6.796204e+003,1.236208e-001
6.800061e+003,1.233123e-001
6.803918e+003,1.189768e-001
6.807775e+003,1.224453e-001
6.811632e+003,1.301364e-001
6.815489e+003,1.311328e-001
6.819346e+003,1.331969e-001
6.823203e+003,1.357741e-001
6.827061e+003,1.327879e-001
6.830917e+003,1.343724e-001
6.834774e+003,1.323327e-001
6.838632e+003,1.315812e-001
6.842489e+003,1.326078e-001
6.846346e+003,1.228576e-001
6.850203e+003,1.144970e-001
6.854060e+003,1.271891e-001
6.857917e+003,1.292765e-001
6.861774e+003,1.225181e-001
6.865631e+003,1.177841e-001
6.869488e+003,1.149605e-001
6.873346e+003,1.166553e-001
6.877203e+003,1.265075e-001
6.881060e+003,1.328289e-001
6.884917e+003,1.366919e-001
6.888774e+003,1.354768e-001
6.892631e+003,1.270414e-001
6.896488e+003,1.183108e-001
6.900345e+003,1.318437e-001
6.904202e+003,1.412311e-001
6.908060e+003,1.391922e-001
6.911917e+003,1.415927e-001
6.915773e+003,1.417949e-001
6.919631e+003,1.433520e-001
6.923488e+003,1.471351e-001
6.927345e+003,1.397965e-001
6.931202e+003,1.358281e-001
6.935059e+003,1.347550e-001
6.938916e+003,1.371534e-001
6.942773e+003,1.357281e-001
6.946630e+003,1.286256e-001
6.950487e+003,1.300866e-001
6.954345e+003,1.301898e-001
6.958202e+003,1.233553e-001
6.962059e+003,1.274060e-001
6.965916e+003,1.352544e-001
6.969773e+003,1.372242e-001
6.973630e+003,1.391231e-001
6.977487e+003,1.423104e-001
6.981344e+003,1.319440e-001
6.985201e+003,1.279649e-001
6.989059e+003,1.333660e-001
6.992916e+003,1.354897e-001
6.996772e+003,1.389789e-001
7.000630e+003,1.397741e-001
7.004487e+003,1.406665e-001
7.008344e+003,1.265969e-001
7.012201e+003,1.180262e-001
7.016058e+003,1.214306e-001
7.019915e+003,1.361548e-001
7.023772e+003,1.416029e-001
7.027629e+003,1.398145e-001
7.031486e+003,1.291202e-001
7.035344e+003,1.232293e-001
7.039201e+003,1.307601e-001
7.043058e+003,1.379558e-001
7.046915e+003,1.378561e-001
7.050772e+003,1.435225e-001
7.054629e+003,1.391227e-001
7.058486e+003,1.314263e-001
7.062343e+003,1.299346e-001
7.066200e+003,1.280736e-001
7.070058e+003,1.380282e-001
7.073915e+003,1.478384e-001
7.077771e+003,1.450173e-001
7.081629e+003,1.467022e-001
7.085486e+003,1.489946e-001
7.089343e+003,1.461469e-001
7.093200e+003,1.396406e-001
7.097057e+003,1.479131e-001
7.100914e+003,1.555849e-001
7.104771e+003,1.553448e-001
7.108628e+003,1.485020e-001
7.112485e+003,1.491287e-001
7.116343e+003,1.368041e-001
7.120200e+003,1.325684e-001
7.124057e+003,1.449399e-001
7.127914e+003,1.445799e-001
7.131771e+003,1.501194e-001
7.135628e+003,1.595362e-001
7.139485e+003,1.549241e-001
7.143342e+003,1.454296e-001
7.147199e+003,1.351639e-001
7.151057e+003,1.284287e-001
7.154914e+003,1.366537e-001
7.158771e+003,1.520341e-001
7.162628e+003,1.464199e-001
7.166485e+003,1.371372e-001
7.170342e+003,1.220423e-001
7.174199e+003,1.216201e-001
7.178056e+003,1.322220e-001
7.181913e+003,1.312233e-001
7.185771e+003,1.292708e-001
7.189627e+003,1.348639e-001
7.193484e+003,1.305239e-001
7.197342e+003,1.289874e-001
7.201199e+003,1.345804e-001
7.205056e+003,1.326062e-001
7.208913e+003,1.329814e-001
7.212770e+003,1.340226e-001
7.216627e+003,1.302752e-001
7.220484e+003,1.319076e-001
7.224341e+003,1.520984e-001
7.228198e+003,1.531786e-001
7.232056e+003,1.440960e-001
7.235913e+003,1.535929e-001
7.239770e+003,1.656597e-001
7.243627e+003,1.524908e-001
7.247484e+003,1.461729e-001
7.251341e+003,1.472974e-001
7.255198e+003,1.421857e-001
7.259055e+003,1.555642e-001
7.262912e+003,1.501782e-001
7.266770e+003,1.467000e-001
7.270626e+003,1.382964e-001
7.274483e+003,1.269533e-001
7.278341e+003,1.266390e-001
7.282198e+003,1.313552e-001
7.286055e+003,1.435910e-001
7.289912e+003,1.385142e-001
7.293769e+003,1.386184e-001
7.297626e+003,1.516860e-001
7.301483e+003,1.386778e-001
7.305340e+003,1.212003e-001
7.309197e+003,1.369036e-001
7.313055e+003,1.630659e-001
7.316912e+003,1.526533e-001
7.320769e+003,1.311097e-001
7.324626e+003,1.215298e-001
7.328483e+003,1.205865e-001
7.332340e+003,1.236846e-001
7.336197e+003,1.378319e-001
7.340054e+003,1.401681e-001
7.343911e+003,1.333358e-001
7.347769e+003,1.254388e-001
7.351625e+003,1.225591e-001
7.355482e+003,1.349807e-001
7.359340e+003,1.452862e-001
7.363197e+003,1.462880e-001
7.367054e+003,1.494933e-001
7.370911e+003,1.473396e-001
7.374768e+003,1.300942e-001
7.378625e+003,1.272806e-001
7.382482e+003,1.445344e-001
7.386339e+003,1.494341e-001
7.390196e+003,1.235482e-001
7.394054e+003,1.110168e-001
7.397911e+003,1.254409e-001
7.401768e+003,1.302790e-001
7.405625e+003,1.415430e-001
7.409482e+003,1.547158e-001
7.413339e+003,1.464278e-001
7.417196e+003,1.394044e-001
7.421053e+003,1.420415e-001
7.424910e+003,1.475223e-001
7.428768e+003,1.403912e-001
7.432625e+003,1.359789e-001
7.436481e+003,1.343081e-001
7.440339e+003,1.347256e-001
7.444196e+003,1.475036e-001
7.448053e+003,1.393693e-001
7.451910e+003,1.277781e-001
7.455767e+003,1.310805e-001
7.459624e+003,1.468384e-001
7.463481e+003,1.492349e-001
7.467338e+003,1.346244e-001
7.471195e+003,1.292532e-001
7.475053e+003,1.522411e-001
7.478910e+003,1.585681e-001
7.482767e+003,1.571201e-001
7.486624e+003,1.339139e-001
7.490481e+003,1.242032e-001
7.494338e+003,1.458643e-001
7.498195e+003,1.536274e-001
7.502052e+003,1.437498e-001
7.505909e+003,1.584141e-001
7.509767e+003,1.466956e-001
7.513624e+003,1.144686e-001
7.517480e+003,1.076060e-001
7.521338e+003,1.163076e-001
7.525195e+003,1.393224e-001
7.529052e+003,1.519936e-001
7.532909e+003,1.513892e-001
7.536766e+003,1.455861e-001
7.540623e+003,1.462058e-001
7.544480e+003,1.552384e-001
7.548337e+003,1.510955e-001
7.552194e+003,1.560085e-001
7.556052e+003,1.654038e-001
7.559909e+003,1.839925e-001
7.563766e+003,1.867736e-001
7.567623e+003,1.671633e-001
7.571480e+003,1.507346e-001
7.575337e+003,1.416286e-001
7.579194e+003,1.242512e-001
7.583051e+003,1.181256e-001
7.586908e+003,1.297438e-001
7.590766e+003,1.238605e-001
7.594623e+003,1.230612e-001
7.598479e+003,1.331495e-001
7.602337e+003,1.269515e-001
7.606194e+003,1.154077e-001
7.610051e+003,1.391977e-001
7.613908e+003,1.488602e-001
7.617765e+003,1.526862e-001
7.621622e+003,1.535168e-001
7.625479e+003,1.481250e-001
7.629336e+003,1.571643e-001
7.633193e+003,1.743587e-001
7.637051e+003,1.700488e-001
7.640908e+003,1.567636e-001
7.644765e+003,1.541067e-001
7.648622e+003,1.538008e-001
7.652479e+003,1.394897e-001
7.656336e+003,1.150341e-001
7.660193e+003,1.161163e-001
7.664050e+003,1.271442e-001
7.667907e+003,1.386917e-001
7.671765e+003,1.517067e-001
7.675622e+003,1.627116e-001
7.679479e+003,1.707586e-001
7.683336e+003,1.489018e-001
7.687193e+003,1.438057e-001
7.691050e+003,1.379803e-001
7.694907e+003,1.324347e-001
7.698764e+003,1.311510e-001
7.702621e+003,1.330807e-001
7.706479e+003,1.295644e-001
7.710335e+003,1.292928e-001
7.714192e+003,1.455325e-001
7.718050e+003,1.425304e-001
7.721907e+003,1.287819e-001
7.725764e+003,1.603487e-001
7.729621e+003,1.624705e-001
7.733478e+003,1.406772e-001
7.737335e+003,1.485191e-001
7.741192e+003,1.529286e-001
7.745049e+003,1.639588e-001
7.748906e+003,1.686367e-001
7.752764e+003,1.487060e-001
7.756621e+003,1.480876e-001
7.760478e+003,1.402476e-001
7.764335e+003,1.428268e-001
7.768192e+003,1.403379e-001
7.772049e+003,1.335287e-001
7.775906e+003,1.363829e-001
7.779763e+003,1.468962e-001
7.783620e+003,1.679496e-001
7.787478e+003,1.586350e-001
7.791334e+003,1.347857e-001
7.795191e+003,1.337346e-001
7.799049e+003,1.609892e-001
7.802906e+003,1.653272e-001
7.806763e+003,1.465258e-001
7.810620e+003,1.591104e-001
7.814477e+003,1.599350e-001
7.818334e+003,1.626398e-001
7.822191e+003,1.528356e-001
7.826048e+003,1.172963e-001
7.829905e+003,9.896246e-002
7.833763e+003,1.321165e-001
7.837620e+003,1.778068e-001
7.841477e+003,1.690122e-001
7.845334e+003,1.245421e-001
7.849191e+003,1.440118e-001
7.853048e+003,1.781191e-001
7.856905e+003,1.766839e-001
7.860762e+003,1.703410e-001
7.864619e+003,1.636169e-001
7.868477e+003,1.616942e-001
7.872333e+003,1.679002e-001
7.876190e+003,1.668598e-001
7.880048e+003,1.587249e-001
7.883905e+003,1.587803e-001
7.887762e+003,1.333469e-001
7.891619e+003,1.155510e-001
7.895476e+003,1.382396e-001
7.899333e+003,1.641085e-001
7.903190e+003,1.750946e-001
7.907047e+003,1.419877e-001
7.910904e+003,1.429598e-001
7.914762e+003,1.821660e-001
7.918619e+003,1.884264e-001
7.922476e+003,1.783907e-001
7.926333e+003,1.724281e-001
7.930190e+003,1.780051e-001
7.934047e+003,1.745957e-001
7.937904e+003,1.912831e-001
7.941761e+003,2.061497e-001
7.945618e+003,1.616848e-001
7.949476e+003,1.426161e-001
7.953333e+003,1.744907e-001
7.957189e+003,1.567592e-001
7.961047e+003,1.055956e-001
7.964904e+003,1.096753e-001
7.968761e+003,1.031925e-001
7.972618e+003,1.438779e-001
7.976475e+003,1.760669e-001
7.980332e+003,1.362610e-001
7.984189e+003,1.479808e-001
7.988046e+003,1.846859e-001
7.991903e+003,1.867669e-001
7.995761e+003,1.499701e-001
7.999618e+003,1.553868e-001
