4.011380e+002,1.285498e+000
4.049951e+002,6.000000e+000
4.088522e+002,6.000000e+000
4.127093e+002,6.000000e+000
4.165664e+002,6.000000e+000
4.204235e+002,6.000000e+000
4.242806e+002,6.000000e+000
4.281377e+002,6.000000e+000
4.319948e+002,4.599141e-001
4.358519e+002,4.662749e-001
4.397090e+002,9.632218e-001
4.435661e+002,1.864144e+000
4.474232e+002,6.000000e+000
4.512803e+002,6.000000e+000
4.551374e+002,1.923048e+000
4.589945e+002,1.024963e+000
4.628516e+002,1.071013e+000
4.667087e+002,8.220410e-001
4.705658e+002,6.000000e+000
4.744229e+002,6.000000e+000
4.782800e+002,6.000000e+000
4.821371e+002,4.265085e-001
4.859941e+002,1.225789e+000
4.898513e+002,6.000000e+000
4.937083e+002,6.000000e+000
4.975654e+002,6.000000e+000
5.014225e+002,6.000000e+000
5.052796e+002,5.877614e-001
5.091367e+002,6.611493e-001
5.129938e+002,6.000000e+000
5.168509e+002,6.000000e+000
5.207080e+002,6.000000e+000
5.245651e+002,8.549073e-002
5.284222e+002,1.583275e-001
5.322793e+002,1.876932e-001
5.361364e+002,1.206427e-001
5.399935e+002,3.989162e-001
5.438506e+002,8.941981e-001
5.477077e+002,6.708882e-001
5.515648e+002,5.373034e-001
5.554219e+002,4.876912e-001
5.592790e+002,2.702155e-001
5.631361e+002,7.907099e-002
5.669932e+002,-2.019970e-002
5.708503e+002,5.995238e-001
5.747074e+002,1.068563e+000
5.785645e+002,9.548770e-001
5.824216e+002,8.452169e-001
5.862787e+002,3.919596e-001
5.901357e+002,3.064343e-001
5.939929e+002,9.143072e-001
5.978499e+002,7.915176e-001
6.017070e+002,3.551053e-001
6.055641e+002,3.967803e-001
6.094212e+002,6.000000e+000
6.132783e+002,6.000000e+000
6.171354e+002,6.000000e+000
6.209925e+002,8.380808e-001
6.248496e+002,5.886391e-001
6.287067e+002,5.778778e-001
6.325638e+002,5.870454e-001
6.364209e+002,5.536323e-001
6.402780e+002,5.741603e-001
6.441351e+002,1.019350e+000
6.479922e+002,6.000000e+000
6.518493e+002,-2.003798e+000
6.557064e+002,6.000000e+000
6.595635e+002,-1.103257e+000
6.634205e+002,-7.689682e-001
6.672777e+002,6.000000e+000
6.711348e+002,6.000000e+000
6.749918e+002,1.520759e-001
6.788490e+002,6.000000e+000
6.827061e+002,3.737147e-001
6.865631e+002,-4.602287e-001
6.904203e+002,7.509692e-004
6.942773e+002,4.316346e-001
6.981344e+002,7.851915e-001
7.019916e+002,6.000000e+000
7.058486e+002,-1.153277e-001
7.097057e+002,6.000000e+000
7.135629e+002,3.732918e-002
7.174199e+002,-3.668585e-001
7.212770e+002,1.798771e+000
7.251342e+002,6.000000e+000
7.289912e+002,7.259730e-001
7.328483e+002,6.000000e+000
7.367054e+002,6.000000e+000
7.405625e+002,6.000000e+000
7.444196e+002,6.000000e+000
7.482767e+002,6.000000e+000
7.521338e+002,8.161242e-003
7.559908e+002,6.000000e+000
7.598480e+002,2.799497e-002
7.637051e+002,-3.988640e-001
7.675621e+002,6.000000e+000
7.714193e+002,6.000000e+000
7.752764e+002,6.000000e+000
7.791334e+002,6.000000e+000
7.829905e+002,-1.462166e+000
7.868477e+002,6.000000e+000
7.907047e+002,6.000000e+000
7.945618e+002,6.000000e+000
7.984189e+002,6.000000e+000
8.022760e+002,6.000000e+000
8.061331e+002,6.000000e+000
8.099902e+002,6.000000e+000
8.138473e+002,6.000000e+000
8.177044e+002,1.093117e+000
8.215615e+002,9.770359e-001
8.254186e+002,1.226115e+000
8.292757e+002,1.142618e+000
8.331328e+002,1.130840e+000
8.369899e+002,1.226641e+000
8.408470e+002,1.496723e+000
8.447041e+002,1.891846e+000
8.485612e+002,1.600809e+000
8.524183e+002,1.832388e+000
8.562754e+002,1.738289e+000
8.601324e+002,1.418439e+000
8.639896e+002,1.507453e+000
8.678467e+002,1.627518e+000
8.717037e+002,1.862362e+000
8.755609e+002,1.791136e+000
8.794180e+002,1.567361e+000
8.832750e+002,1.762861e+000
8.871321e+002,2.920600e+000
8.909893e+002,2.083004e+000
8.948463e+002,1.743225e+000
8.987034e+002,1.866844e+000
9.025605e+002,2.231319e+000
9.064176e+002,2.123424e+000
9.102747e+002,1.951257e+000
9.141318e+002,1.902694e+000
9.179889e+002,1.752609e+000
9.218461e+002,1.677874e+000
9.257031e+002,1.703242e+000
9.295602e+002,1.886382e+000
9.334174e+002,2.205339e+000
9.372744e+002,1.954599e+000
9.411315e+002,1.931387e+000
9.449886e+002,2.100835e+000
9.488457e+002,1.995880e+000
9.527028e+002,1.785933e+000
9.565599e+002,1.752720e+000
9.604170e+002,1.841468e+000
9.642740e+002,1.850769e+000
9.681312e+002,1.877034e+000
9.719883e+002,1.983989e+000
9.758453e+002,1.998328e+000
9.797025e+002,1.925449e+000
9.835596e+002,1.890014e+000
9.874166e+002,1.835905e+000
9.912738e+002,1.852016e+000
9.951309e+002,1.932669e+000
9.989879e+002,1.924927e+000
1.002845e+003,1.908938e+000
1.006702e+003,1.817222e+000
1.010559e+003,1.783426e+000
1.014416e+003,1.811708e+000
1.018273e+003,1.737384e+000
1.022130e+003,1.692824e+000
1.025988e+003,1.701905e+000
1.029845e+003,1.710239e+000
1.033702e+003,1.732901e+000
1.037559e+003,1.702968e+000
1.041416e+003,1.655897e+000
1.045273e+003,1.622022e+000
1.049130e+003,1.608592e+000
1.052987e+003,1.601576e+000
1.056844e+003,1.612275e+000
1.060702e+003,1.604653e+000
1.064559e+003,1.577079e+000
1.068416e+003,1.556623e+000
1.072273e+003,1.562834e+000
1.076130e+003,1.566196e+000
1.079987e+003,1.575848e+000
1.083844e+003,1.568526e+000
1.087701e+003,1.556911e+000
1.091558e+003,1.570950e+000
1.095415e+003,1.567480e+000
1.099272e+003,1.568978e+000
1.103130e+003,1.549855e+000
1.106987e+003,1.532046e+000
1.110844e+003,1.545392e+000
1.114701e+003,1.534803e+000
1.118558e+003,1.520558e+000
1.122415e+003,1.497600e+000
1.126272e+003,1.495599e+000
1.130129e+003,1.496121e+000
1.133986e+003,1.482033e+000
1.137843e+003,1.477442e+000
1.141701e+003,1.469463e+000
1.145558e+003,1.469730e+000
1.149415e+003,1.472217e+000
1.153272e+003,1.471672e+000
1.157129e+003,1.452194e+000
1.160986e+003,1.453358e+000
1.164843e+003,1.466464e+000
1.168700e+003,1.455092e+000
1.172557e+003,1.454781e+000
1.176414e+003,1.466259e+000
1.180271e+003,1.448100e+000
1.184129e+003,1.421357e+000
1.187986e+003,1.407144e+000
1.191843e+003,1.386573e+000
1.195700e+003,1.356392e+000
1.199557e+003,1.300080e+000
1.203414e+003,1.226280e+000
1.207271e+003,1.141026e+000
1.211128e+003,1.056653e+000
1.214985e+003,9.710474e-001
1.218842e+003,8.912559e-001
1.222699e+003,8.186100e-001
1.226557e+003,7.533702e-001
1.230414e+003,6.970402e-001
1.234271e+003,6.504583e-001
1.238128e+003,6.109450e-001
1.241985e+003,5.761250e-001
1.245842e+003,5.472417e-001
1.249699e+003,5.201699e-001
1.253556e+003,4.955699e-001
1.257413e+003,4.748836e-001
1.261271e+003,4.555708e-001
1.265128e+003,4.368554e-001
1.268985e+003,4.217123e-001
1.272842e+003,4.068548e-001
1.276699e+003,3.935122e-001
1.280556e+003,3.830574e-001
1.284413e+003,3.724808e-001
1.288270e+003,3.629540e-001
1.292127e+003,3.553684e-001
1.295984e+003,3.477499e-001
1.299841e+003,3.409780e-001
1.303698e+003,3.337851e-001
1.307556e+003,3.256997e-001
1.311413e+003,3.188135e-001
1.315270e+003,3.134151e-001
1.319127e+003,3.085077e-001
1.322984e+003,3.029433e-001
1.326841e+003,2.967241e-001
1.330698e+003,2.927702e-001
1.334555e+003,2.896682e-001
1.338412e+003,2.861100e-001
1.342270e+003,2.839547e-001
1.346127e+003,2.835750e-001
1.349984e+003,2.841836e-001
1.353841e+003,2.854553e-001
1.357698e+003,2.887618e-001
1.361555e+003,2.942711e-001
1.365412e+003,3.002763e-001
1.369269e+003,3.068540e-001
1.373126e+003,3.148371e-001
1.376983e+003,3.231089e-001
1.380840e+003,3.315907e-001
1.384698e+003,3.419321e-001
1.388555e+003,3.535871e-001
1.392412e+003,3.649797e-001
1.396269e+003,3.758225e-001
1.400126e+003,3.884473e-001
1.403983e+003,4.020373e-001
1.407840e+003,4.130796e-001
1.411697e+003,4.235989e-001
1.415554e+003,4.339002e-001
1.419411e+003,4.424007e-001
1.423269e+003,4.499097e-001
1.427126e+003,4.555121e-001
1.430983e+003,4.598590e-001
1.434840e+003,4.616498e-001
1.438697e+003,4.602142e-001
1.442554e+003,4.581987e-001
1.446411e+003,4.538883e-001
1.450268e+003,4.475190e-001
1.454125e+003,4.395368e-001
1.457982e+003,4.318489e-001
1.461839e+003,4.263580e-001
1.465697e+003,4.227759e-001
1.469554e+003,4.223031e-001
1.473411e+003,4.252974e-001
1.477268e+003,4.309083e-001
1.481125e+003,4.390444e-001
1.484982e+003,4.487425e-001
1.488839e+003,4.593407e-001
1.492696e+003,4.681195e-001
1.496553e+003,4.765493e-001
1.500411e+003,4.852389e-001
1.504268e+003,4.900002e-001
1.508125e+003,4.911947e-001
1.511982e+003,4.910468e-001
1.515839e+003,4.890184e-001
1.519696e+003,4.840789e-001
1.523553e+003,4.759762e-001
1.527410e+003,4.666177e-001
1.531267e+003,4.562921e-001
1.535124e+003,4.429497e-001
1.538981e+003,4.290603e-001
1.542839e+003,4.158935e-001
1.546696e+003,4.030362e-001
1.550553e+003,3.908948e-001
1.554410e+003,3.788058e-001
1.558267e+003,3.683169e-001
1.562124e+003,3.591487e-001
1.565981e+003,3.514393e-001
1.569838e+003,3.460909e-001
1.573695e+003,3.414559e-001
1.577552e+003,3.382741e-001
1.581410e+003,3.377301e-001
1.585267e+003,3.397321e-001
1.589124e+003,3.427205e-001
1.592981e+003,3.475214e-001
1.596838e+003,3.549251e-001
1.600695e+003,3.659117e-001
1.604552e+003,3.797666e-001
1.608409e+003,3.947793e-001
1.612266e+003,4.120934e-001
1.616123e+003,4.314475e-001
1.619980e+003,4.506305e-001
1.623838e+003,4.684855e-001
1.627695e+003,4.845801e-001
1.631552e+003,4.972391e-001
1.635409e+003,5.029770e-001
1.639266e+003,5.036416e-001
1.643123e+003,4.988218e-001
1.646980e+003,4.886957e-001
1.650837e+003,4.746870e-001
1.654694e+003,4.577946e-001
1.658551e+003,4.406907e-001
1.662409e+003,4.223580e-001
1.666266e+003,4.040417e-001
1.670123e+003,3.861376e-001
1.673980e+003,3.684219e-001
1.677837e+003,3.520331e-001
1.681694e+003,3.375019e-001
1.685551e+003,3.240056e-001
1.689408e+003,3.118877e-001
1.693265e+003,3.017293e-001
1.697122e+003,2.935984e-001
1.700979e+003,2.861136e-001
1.704837e+003,2.803767e-001
1.708694e+003,2.769766e-001
1.712551e+003,2.735074e-001
1.716408e+003,2.704206e-001
1.720265e+003,2.697661e-001
1.724122e+003,2.694150e-001
1.727979e+003,2.685055e-001
1.731836e+003,2.678724e-001
1.735693e+003,2.683980e-001
1.739550e+003,2.695099e-001
1.743408e+003,2.702820e-001
1.747265e+003,2.696002e-001
1.751122e+003,2.686675e-001
1.754979e+003,2.682005e-001
1.758836e+003,2.681914e-001
1.762693e+003,2.676583e-001
1.766550e+003,2.665834e-001
1.770407e+003,2.650291e-001
1.774264e+003,2.626654e-001
1.778121e+003,2.597135e-001
1.781979e+003,2.565780e-001
1.785836e+003,2.536259e-001
1.789693e+003,2.505352e-001
1.793550e+003,2.484856e-001
1.797407e+003,2.461986e-001
1.801264e+003,2.426422e-001
1.805121e+003,2.402193e-001
1.808978e+003,2.382256e-001
1.812835e+003,2.367895e-001
1.816692e+003,2.360662e-001
1.820549e+003,2.354196e-001
1.824407e+003,2.349532e-001
1.828264e+003,2.347329e-001
1.832121e+003,2.349105e-001
1.835978e+003,2.358334e-001
1.839835e+003,2.368606e-001
1.843692e+003,2.384900e-001
1.847549e+003,2.396634e-001
1.851406e+003,2.406289e-001
1.855263e+003,2.426472e-001
1.859120e+003,2.451309e-001
1.862978e+003,2.467336e-001
1.866835e+003,2.482358e-001
1.870692e+003,2.501056e-001
1.874549e+003,2.517496e-001
1.878406e+003,2.524235e-001
1.882263e+003,2.528172e-001
1.886120e+003,2.536084e-001
1.889977e+003,2.540336e-001
1.893834e+003,2.539785e-001
1.897691e+003,2.537668e-001
1.901548e+003,2.524673e-001
1.905406e+003,2.507144e-001
1.909263e+003,2.486563e-001
1.913120e+003,2.464896e-001
1.916977e+003,2.445527e-001
1.920834e+003,2.416145e-001
1.924691e+003,2.394533e-001
1.928548e+003,2.380866e-001
1.932405e+003,2.355344e-001
1.936262e+003,2.331220e-001
1.940119e+003,2.310947e-001
1.943977e+003,2.283959e-001
1.947834e+003,2.263156e-001
1.951691e+003,2.253725e-001
1.955548e+003,2.248626e-001
1.959405e+003,2.249337e-001
1.963262e+003,2.247432e-001
1.967119e+003,2.250521e-001
1.970976e+003,2.258609e-001
1.974833e+003,2.270989e-001
1.978690e+003,2.283330e-001
1.982547e+003,2.298860e-001
1.986405e+003,2.314843e-001
1.990262e+003,2.328721e-001
1.994119e+003,2.344097e-001
1.997976e+003,2.357393e-001
2.001833e+003,2.373954e-001
2.005690e+003,2.391754e-001
2.009547e+003,2.404456e-001
2.013404e+003,2.416212e-001
2.017261e+003,2.429211e-001
2.021118e+003,2.429317e-001
2.024976e+003,2.427876e-001
2.028833e+003,2.421485e-001
2.032690e+003,2.407264e-001
2.036547e+003,2.395381e-001
2.040404e+003,2.376166e-001
2.044261e+003,2.354295e-001
2.048118e+003,2.331433e-001
2.051975e+003,2.310666e-001
2.055832e+003,2.288086e-001
2.059689e+003,2.260019e-001
2.063546e+003,2.232577e-001
2.067404e+003,2.205200e-001
2.071261e+003,2.181611e-001
2.075118e+003,2.163427e-001
2.078975e+003,2.155327e-001
2.082832e+003,2.145127e-001
2.086689e+003,2.130531e-001
2.090546e+003,2.121640e-001
2.094403e+003,2.123620e-001
2.098260e+003,2.133319e-001
2.102117e+003,2.145842e-001
2.105975e+003,2.159587e-001
2.109832e+003,2.178982e-001
2.113689e+003,2.196341e-001
2.117546e+003,2.212303e-001
2.121403e+003,2.235200e-001
2.125260e+003,2.256824e-001
2.129117e+003,2.280380e-001
2.132974e+003,2.300173e-001
2.136831e+003,2.322603e-001
2.140688e+003,2.352167e-001
2.144545e+003,2.370300e-001
2.148403e+003,2.382580e-001
2.152260e+003,2.393460e-001
2.156117e+003,2.397519e-001
2.159974e+003,2.399262e-001
2.163831e+003,2.405352e-001
2.167688e+003,2.404954e-001
2.171545e+003,2.393936e-001
2.175402e+003,2.383789e-001
2.179259e+003,2.371891e-001
2.183116e+003,2.352720e-001
2.186974e+003,2.331386e-001
2.190831e+003,2.313163e-001
2.194688e+003,2.287387e-001
2.198545e+003,2.266035e-001
2.202402e+003,2.245687e-001
2.206259e+003,2.220978e-001
2.210116e+003,2.202077e-001
2.213973e+003,2.186032e-001
2.217830e+003,2.172559e-001
2.221688e+003,2.166690e-001
2.225544e+003,2.164528e-001
2.229402e+003,2.164179e-001
2.233259e+003,2.170562e-001
2.237116e+003,2.184452e-001
2.240973e+003,2.195167e-001
2.244830e+003,2.217596e-001
2.248687e+003,2.244631e-001
2.252544e+003,2.263481e-001
2.256401e+003,2.291094e-001
2.260258e+003,2.314679e-001
2.264115e+003,2.333421e-001
2.267973e+003,2.361844e-001
2.271830e+003,2.389677e-001
2.275687e+003,2.409441e-001
2.279544e+003,2.421189e-001
2.283401e+003,2.441931e-001
2.287258e+003,2.472682e-001
2.291115e+003,2.486770e-001
2.294972e+003,2.492160e-001
2.298829e+003,2.498388e-001
2.302687e+003,2.498584e-001
2.306543e+003,2.488282e-001
2.310401e+003,2.472951e-001
2.314258e+003,2.455083e-001
2.318115e+003,2.428403e-001
2.321972e+003,2.401904e-001
2.325829e+003,2.378360e-001
2.329686e+003,2.361578e-001
2.333543e+003,2.345328e-001
2.337400e+003,2.320398e-001
2.341257e+003,2.290139e-001
2.345115e+003,2.277967e-001
2.348972e+003,2.282053e-001
2.352829e+003,2.258467e-001
2.356686e+003,2.213998e-001
2.360543e+003,2.188819e-001
2.364400e+003,2.194906e-001
2.368257e+003,2.206684e-001
2.372114e+003,2.227260e-001
2.375971e+003,2.270243e-001
2.379828e+003,2.303223e-001
2.383686e+003,2.322990e-001
2.387542e+003,2.346527e-001
2.391400e+003,2.366831e-001
2.395257e+003,2.380684e-001
2.399114e+003,2.401911e-001
2.402971e+003,2.425148e-001
2.406828e+003,2.442575e-001
2.410685e+003,2.460675e-001
2.414542e+003,2.479462e-001
2.418399e+003,2.498281e-001
2.422256e+003,2.515080e-001
2.426114e+003,2.522573e-001
2.429971e+003,2.524703e-001
2.433828e+003,2.533405e-001
2.437685e+003,2.536707e-001
2.441542e+003,2.535703e-001
2.445399e+003,2.529638e-001
2.449256e+003,2.520459e-001
2.453113e+003,2.503091e-001
2.456970e+003,2.482894e-001
2.460827e+003,2.461511e-001
2.464684e+003,2.442620e-001
2.468542e+003,2.435594e-001
2.472399e+003,2.419275e-001
2.476256e+003,2.387770e-001
2.480113e+003,2.365794e-001
2.483970e+003,2.346465e-001
2.487827e+003,2.325533e-001
2.491684e+003,2.304866e-001
2.495541e+003,2.294807e-001
2.499398e+003,2.287232e-001
2.503255e+003,2.280773e-001
2.507113e+003,2.287173e-001
2.510969e+003,2.299677e-001
2.514827e+003,2.306600e-001
2.518684e+003,2.315408e-001
2.522541e+003,2.327698e-001
2.526398e+003,2.349177e-001
2.530255e+003,2.378958e-001
2.534112e+003,2.400726e-001
2.537969e+003,2.430147e-001
2.541826e+003,2.457933e-001
2.545683e+003,2.486051e-001
2.549541e+003,2.509891e-001
2.553398e+003,2.527914e-001
2.557255e+003,2.556792e-001
2.561112e+003,2.593994e-001
2.564969e+003,2.620021e-001
2.568826e+003,2.637630e-001
2.572683e+003,2.649999e-001
2.576540e+003,2.666548e-001
2.580397e+003,2.680396e-001
2.584254e+003,2.688732e-001
2.588112e+003,2.698819e-001
2.591969e+003,2.709950e-001
2.595826e+003,2.705688e-001
2.599683e+003,2.694402e-001
2.603540e+003,2.689924e-001
2.607397e+003,2.685609e-001
2.611254e+003,2.675767e-001
2.615111e+003,2.661826e-001
2.618968e+003,2.652380e-001
2.622825e+003,2.653112e-001
2.626682e+003,2.656145e-001
2.630540e+003,2.663348e-001
2.634397e+003,2.664547e-001
2.638254e+003,2.670659e-001
2.642111e+003,2.680985e-001
2.645968e+003,2.687221e-001
2.649825e+003,2.699334e-001
2.653682e+003,2.714716e-001
2.657539e+003,2.736984e-001
2.661396e+003,2.764393e-001
2.665253e+003,2.802535e-001
2.669111e+003,2.842341e-001
2.672968e+003,2.869788e-001
2.676825e+003,2.899784e-001
2.680682e+003,2.941207e-001
2.684539e+003,2.976075e-001
2.688396e+003,3.007422e-001
2.692253e+003,3.047411e-001
2.696110e+003,3.085042e-001
2.699967e+003,3.113508e-001
2.703824e+003,3.141276e-001
2.707681e+003,3.166121e-001
2.711539e+003,3.199560e-001
2.715396e+003,3.231077e-001
2.719253e+003,3.251891e-001
2.723110e+003,3.271977e-001
2.726967e+003,3.295648e-001
2.730824e+003,3.306668e-001
2.734681e+003,3.308683e-001
2.738538e+003,3.312513e-001
2.742395e+003,3.325592e-001
2.746252e+003,3.334637e-001
2.750110e+003,3.346348e-001
2.753967e+003,3.362145e-001
2.757824e+003,3.372002e-001
2.761681e+003,3.365629e-001
2.765538e+003,3.367825e-001
2.769395e+003,3.383947e-001
2.773252e+003,3.396079e-001
2.777109e+003,3.413593e-001
2.780966e+003,3.435638e-001
2.784823e+003,3.461154e-001
2.788680e+003,3.485743e-001
2.792538e+003,3.513348e-001
2.796395e+003,3.531802e-001
2.800252e+003,3.560834e-001
2.804109e+003,3.601770e-001
2.807966e+003,3.646820e-001
2.811823e+003,3.689751e-001
2.815680e+003,3.727648e-001
2.819537e+003,3.761322e-001
2.823394e+003,3.809006e-001
2.827251e+003,3.864079e-001
2.831109e+003,3.899143e-001
2.834966e+003,3.921094e-001
2.838823e+003,3.956526e-001
2.842680e+003,3.999961e-001
2.846537e+003,4.044503e-001
2.850394e+003,4.078664e-001
2.854251e+003,4.111635e-001
2.858108e+003,4.147028e-001
2.861965e+003,4.180277e-001
2.865823e+003,4.206848e-001
2.869679e+003,4.223222e-001
2.873537e+003,4.245794e-001
2.877394e+003,4.274442e-001
2.881251e+003,4.296691e-001
2.885108e+003,4.306523e-001
2.888965e+003,4.316252e-001
2.892822e+003,4.338181e-001
2.896679e+003,4.358341e-001
2.900536e+003,4.374302e-001
2.904393e+003,4.394129e-001
2.908250e+003,4.427024e-001
2.912108e+003,4.456378e-001
2.915965e+003,4.484822e-001
2.919822e+003,4.513122e-001
2.923679e+003,4.546838e-001
2.927536e+003,4.578586e-001
2.931393e+003,4.613413e-001
2.935250e+003,4.653257e-001
2.939107e+003,4.693303e-001
2.942964e+003,4.728349e-001
2.946822e+003,4.756060e-001
2.950678e+003,4.795440e-001
2.954536e+003,4.838921e-001
2.958393e+003,4.886949e-001
2.962250e+003,4.936355e-001
2.966107e+003,4.985205e-001
2.969964e+003,5.041849e-001
2.973821e+003,5.085231e-001
2.977678e+003,5.123816e-001
2.981535e+003,5.168235e-001
2.985392e+003,5.214899e-001
2.989250e+003,5.263926e-001
2.993107e+003,5.302122e-001
2.996964e+003,5.350472e-001
3.000821e+003,5.393461e-001
3.004678e+003,5.424812e-001
3.008535e+003,5.462370e-001
3.012392e+003,5.505118e-001
3.016249e+003,5.538691e-001
3.020106e+003,5.574698e-001
3.023963e+003,5.621076e-001
3.027821e+003,5.660874e-001
3.031677e+003,5.685743e-001
3.035535e+003,5.699470e-001
3.039392e+003,5.726886e-001
3.043249e+003,5.766039e-001
3.047106e+003,5.812165e-001
3.050963e+003,5.856965e-001
3.054820e+003,5.888475e-001
3.058677e+003,5.941936e-001
3.062534e+003,5.993135e-001
3.066391e+003,6.023851e-001
3.070249e+003,6.061157e-001
3.074106e+003,6.103973e-001
3.077963e+003,6.151280e-001
3.081820e+003,6.203675e-001
3.085677e+003,6.251106e-001
3.089534e+003,6.300109e-001
3.093391e+003,6.351898e-001
3.097248e+003,6.406649e-001
3.101105e+003,6.458344e-001
3.104962e+003,6.521820e-001
3.108820e+003,6.596637e-001
3.112677e+003,6.657319e-001
3.116534e+003,6.698310e-001
3.120391e+003,6.752793e-001
3.124248e+003,6.806762e-001
3.128105e+003,6.871018e-001
3.131962e+003,6.937196e-001
3.135819e+003,6.995197e-001
3.139676e+003,7.061593e-001
3.143533e+003,7.101192e-001
3.147390e+003,7.129368e-001
3.151248e+003,7.191140e-001
3.155105e+003,7.268664e-001
3.158962e+003,7.319569e-001
3.162819e+003,7.381538e-001
3.166676e+003,7.450774e-001
3.170533e+003,7.483801e-001
3.174390e+003,7.513579e-001
3.178247e+003,7.574862e-001
3.182104e+003,7.641218e-001
3.185961e+003,7.703524e-001
3.189819e+003,7.759640e-001
3.193676e+003,7.785792e-001
3.197533e+003,7.821704e-001
3.201390e+003,7.867679e-001
3.205247e+003,7.922172e-001
3.209104e+003,7.997969e-001
3.212961e+003,8.053100e-001
3.216818e+003,8.087574e-001
3.220675e+003,8.132018e-001
3.224532e+003,8.160428e-001
3.228389e+003,8.198670e-001
3.232247e+003,8.257645e-001
3.236104e+003,8.321863e-001
3.239961e+003,8.376237e-001
3.243818e+003,8.410054e-001
3.247675e+003,8.467311e-001
3.251532e+003,8.504089e-001
3.255389e+003,8.544874e-001
3.259246e+003,8.600097e-001
3.263103e+003,8.661923e-001
3.266960e+003,8.689206e-001
3.270818e+003,8.711630e-001
3.274675e+003,8.760279e-001
3.278532e+003,8.819098e-001
3.282389e+003,8.859114e-001
3.286246e+003,8.879679e-001
3.290103e+003,8.914340e-001
3.293960e+003,8.953009e-001
3.297817e+003,9.011897e-001
3.301674e+003,9.095553e-001
3.305531e+003,9.150223e-001
3.309388e+003,9.186280e-001
3.313246e+003,9.252222e-001
3.317103e+003,9.311792e-001
3.320960e+003,9.367766e-001
3.324817e+003,9.427918e-001
3.328674e+003,9.495045e-001
3.332531e+003,9.535163e-001
3.336388e+003,9.592014e-001
3.340245e+003,9.669661e-001
3.344102e+003,9.747674e-001
3.347959e+003,9.825115e-001
3.351817e+003,9.867434e-001
3.355674e+003,9.914281e-001
3.359531e+003,9.973491e-001
3.363388e+003,1.001888e+000
3.367245e+003,1.004996e+000
3.371102e+003,1.005056e+000
3.374959e+003,1.007769e+000
3.378816e+003,1.011824e+000
3.382673e+003,1.019263e+000
3.386530e+003,1.029749e+000
3.390387e+003,1.035972e+000
3.394245e+003,1.040192e+000
3.398102e+003,1.041881e+000
3.401959e+003,1.041521e+000
3.405816e+003,1.046746e+000
3.409673e+003,1.050679e+000
3.413530e+003,1.057488e+000
3.417387e+003,1.063162e+000
3.421244e+003,1.061860e+000
3.425101e+003,1.062932e+000
3.428958e+003,1.068789e+000
3.432815e+003,1.072745e+000
3.436673e+003,1.075509e+000
3.440530e+003,1.080341e+000
3.444387e+003,1.088727e+000
3.448244e+003,1.091139e+000
3.452101e+003,1.091992e+000
3.455958e+003,1.096276e+000
3.459815e+003,1.101520e+000
3.463672e+003,1.102996e+000
3.467529e+003,1.105317e+000
3.471386e+003,1.103696e+000
3.475244e+003,1.104208e+000
3.479101e+003,1.107535e+000
3.482958e+003,1.113599e+000
3.486815e+003,1.115054e+000
3.490672e+003,1.112320e+000
3.494529e+003,1.111269e+000
3.498386e+003,1.110818e+000
3.502243e+003,1.111776e+000
3.506100e+003,1.115526e+000
3.509958e+003,1.113346e+000
3.513814e+003,1.114664e+000
3.517672e+003,1.115915e+000
3.521529e+003,1.116519e+000
3.525386e+003,1.115848e+000
3.529243e+003,1.110004e+000
3.533100e+003,1.106066e+000
3.536957e+003,1.102102e+000
3.540814e+003,1.100321e+000
3.544671e+003,1.098929e+000
3.548528e+003,1.098210e+000
3.552385e+003,1.099257e+000
3.556243e+003,1.090343e+000
3.560100e+003,1.076113e+000
3.563957e+003,1.063130e+000
3.567814e+003,1.050061e+000
3.571671e+003,1.042379e+000
3.575528e+003,1.035120e+000
3.579385e+003,1.020266e+000
3.583242e+003,9.995633e-001
3.587099e+003,9.786081e-001
3.590957e+003,9.532824e-001
3.594813e+003,9.260680e-001
3.598671e+003,9.022972e-001
3.602528e+003,8.756692e-001
3.606385e+003,8.423718e-001
3.610242e+003,8.073117e-001
3.614099e+003,7.725005e-001
3.617956e+003,7.392176e-001
3.621813e+003,7.019053e-001
3.625670e+003,6.628510e-001
3.629527e+003,6.258528e-001
3.633385e+003,5.877851e-001
3.637242e+003,5.502547e-001
3.641099e+003,5.153448e-001
3.644956e+003,4.808557e-001
3.648813e+003,4.480258e-001
3.652670e+003,4.177114e-001
3.656527e+003,3.890046e-001
3.660384e+003,3.619368e-001
3.664241e+003,3.377332e-001
3.668098e+003,3.152571e-001
3.671956e+003,2.945427e-001
3.675813e+003,2.754887e-001
3.679670e+003,2.577820e-001
3.683527e+003,2.405194e-001
3.687384e+003,2.239607e-001
3.691241e+003,2.095888e-001
3.695098e+003,1.978039e-001
3.698955e+003,1.871713e-001
3.702812e+003,1.772307e-001
3.706669e+003,1.702002e-001
3.710526e+003,1.649264e-001
3.714384e+003,1.594697e-001
3.718241e+003,1.548757e-001
3.722098e+003,1.509703e-001
3.725955e+003,1.490660e-001
3.729812e+003,1.483357e-001
3.733669e+003,1.463972e-001
3.737526e+003,1.448374e-001
3.741383e+003,1.446779e-001
3.745240e+003,1.448066e-001
3.749097e+003,1.448913e-001
3.752955e+003,1.451822e-001
3.756812e+003,1.450018e-001
3.760669e+003,1.448720e-001
3.764526e+003,1.451377e-001
3.768383e+003,1.448873e-001
3.772240e+003,1.441616e-001
3.776097e+003,1.444141e-001
3.779954e+003,1.448379e-001
3.783811e+003,1.443724e-001
3.787668e+003,1.436921e-001
3.791525e+003,1.433503e-001
3.795383e+003,1.421682e-001
3.799240e+003,1.401212e-001
3.803097e+003,1.385166e-001
3.806954e+003,1.381737e-001
3.810811e+003,1.366742e-001
3.814668e+003,1.349184e-001
3.818525e+003,1.335718e-001
3.822382e+003,1.321169e-001
3.826239e+003,1.310005e-001
3.830096e+003,1.296414e-001
3.833954e+003,1.286324e-001
3.837811e+003,1.276976e-001
3.841668e+003,1.268317e-001
3.845525e+003,1.260523e-001
3.849382e+003,1.250688e-001
3.853239e+003,1.252914e-001
3.857096e+003,1.255402e-001
3.860953e+003,1.258429e-001
3.864810e+003,1.263892e-001
3.868667e+003,1.269923e-001
3.872524e+003,1.279982e-001
3.876382e+003,1.277578e-001
3.880239e+003,1.280209e-001
3.884096e+003,1.299339e-001
3.887953e+003,1.318173e-001
3.891810e+003,1.317227e-001
3.895667e+003,1.318069e-001
3.899524e+003,1.332280e-001
3.903381e+003,1.336644e-001
3.907238e+003,1.332327e-001
3.911095e+003,1.339910e-001
3.914953e+003,1.351527e-001
3.918810e+003,1.353393e-001
3.922667e+003,1.342633e-001
3.926524e+003,1.348875e-001
3.930381e+003,1.352198e-001
3.934238e+003,1.343220e-001
3.938095e+003,1.331475e-001
3.941952e+003,1.331194e-001
3.945809e+003,1.317487e-001
3.949667e+003,1.295497e-001
3.953523e+003,1.277492e-001
3.957381e+003,1.270357e-001
3.961238e+003,1.262593e-001
3.965095e+003,1.250710e-001
3.968952e+003,1.242968e-001
3.972809e+003,1.242745e-001
3.976666e+003,1.231256e-001
3.980523e+003,1.217813e-001
3.984380e+003,1.218352e-001
3.988237e+003,1.220299e-001
3.992094e+003,1.212780e-001
3.995952e+003,1.209677e-001
3.999809e+003,1.208433e-001
4.003666e+003,1.208458e-001
4.007523e+003,1.223810e-001
4.011380e+003,1.228940e-001
4.015237e+003,1.222781e-001
4.019094e+003,1.222045e-001
4.022951e+003,1.233940e-001
4.026808e+003,1.252867e-001
4.030666e+003,1.260565e-001
4.034522e+003,1.264435e-001
4.038380e+003,1.266465e-001
4.042237e+003,1.268927e-001
4.046094e+003,1.273665e-001
4.049951e+003,1.278301e-001
4.053808e+003,1.283610e-001
4.057665e+003,1.284164e-001
4.061522e+003,1.284205e-001
4.065379e+003,1.282420e-001
4.069236e+003,1.275116e-001
4.073094e+003,1.264121e-001
4.076951e+003,1.253492e-001
4.080808e+003,1.248342e-001
4.084665e+003,1.240970e-001
4.088522e+003,1.233420e-001
4.092379e+003,1.221980e-001
4.096236e+003,1.206116e-001
4.100093e+003,1.189029e-001
4.103950e+003,1.181019e-001
4.107808e+003,1.177651e-001
4.111665e+003,1.173489e-001
4.115521e+003,1.164295e-001
4.119379e+003,1.146818e-001
4.123236e+003,1.144458e-001
4.127093e+003,1.134480e-001
4.130950e+003,1.123143e-001
4.134807e+003,1.128790e-001
4.138664e+003,1.132095e-001
4.142521e+003,1.124819e-001
4.146378e+003,1.126953e-001
4.150235e+003,1.133043e-001
4.154093e+003,1.136290e-001
4.157950e+003,1.136920e-001
4.161807e+003,1.141418e-001
4.165664e+003,1.145798e-001
4.169521e+003,1.150893e-001
4.173378e+003,1.152006e-001
4.177235e+003,1.150619e-001
4.181092e+003,1.164053e-001
4.184949e+003,1.168472e-001
4.188807e+003,1.161171e-001
4.192664e+003,1.162086e-001
4.196521e+003,1.165846e-001
4.200378e+003,1.169527e-001
4.204235e+003,1.170688e-001
4.208092e+003,1.175379e-001
4.211949e+003,1.178219e-001
4.215806e+003,1.179347e-001
4.219663e+003,1.159892e-001
4.223521e+003,1.148084e-001
4.227377e+003,1.150088e-001
4.231234e+003,1.136543e-001
4.235092e+003,1.119552e-001
4.238949e+003,1.116546e-001
4.242806e+003,1.114324e-001
4.246663e+003,1.101447e-001
4.250520e+003,1.095778e-001
4.254377e+003,1.093247e-001
4.258234e+003,1.080054e-001
4.262091e+003,1.066352e-001
4.265948e+003,1.059320e-001
4.269806e+003,1.059598e-001
4.273663e+003,1.049497e-001
4.277520e+003,1.041426e-001
4.281377e+003,1.041520e-001
4.285234e+003,1.036358e-001
4.289091e+003,1.045780e-001
4.292948e+003,1.058186e-001
4.296805e+003,1.069369e-001
4.300662e+003,1.072122e-001
4.304520e+003,1.070548e-001
4.308376e+003,1.067140e-001
4.312233e+003,1.074155e-001
4.316091e+003,1.085619e-001
4.319948e+003,1.082688e-001
4.323805e+003,1.084004e-001
4.327662e+003,1.086855e-001
4.331519e+003,1.089515e-001
4.335376e+003,1.098634e-001
4.339233e+003,1.096099e-001
4.343090e+003,1.094750e-001
4.346947e+003,1.106274e-001
4.350805e+003,1.113699e-001
4.354662e+003,1.114728e-001
4.358519e+003,1.093565e-001
4.362376e+003,1.080321e-001
4.366233e+003,1.078310e-001
4.370090e+003,1.085864e-001
4.373947e+003,1.086789e-001
4.377804e+003,1.072713e-001
4.381661e+003,1.069470e-001
4.385519e+003,1.069547e-001
4.389375e+003,1.071367e-001
4.393232e+003,1.063279e-001
4.397090e+003,1.050865e-001
4.400947e+003,1.043124e-001
4.404804e+003,1.036178e-001
4.408661e+003,1.038384e-001
4.412518e+003,1.039756e-001
4.416375e+003,1.039765e-001
4.420232e+003,1.046913e-001
4.424089e+003,1.047737e-001
4.427946e+003,1.041259e-001
4.431804e+003,1.048766e-001
4.435661e+003,1.057717e-001
4.439518e+003,1.050903e-001
4.443375e+003,1.051817e-001
4.447232e+003,1.061274e-001
4.451089e+003,1.064621e-001
4.454946e+003,1.071674e-001
4.458803e+003,1.078121e-001
4.462660e+003,1.070931e-001
4.466518e+003,1.065627e-001
4.470375e+003,1.072726e-001
4.474231e+003,1.081822e-001
4.478089e+003,1.073810e-001
4.481946e+003,1.054226e-001
4.485803e+003,1.064723e-001
4.489660e+003,1.076626e-001
4.493517e+003,1.076008e-001
4.497375e+003,1.069617e-001
4.501231e+003,1.079113e-001
4.505088e+003,1.082544e-001
4.508946e+003,1.063014e-001
4.512803e+003,1.057081e-001
4.516660e+003,1.056310e-001
4.520517e+003,1.056492e-001
4.524374e+003,1.065498e-001
4.528231e+003,1.059660e-001
4.532088e+003,1.053725e-001
4.535945e+003,1.050510e-001
4.539802e+003,1.040722e-001
4.543660e+003,1.018971e-001
4.547517e+003,1.003089e-001
4.551374e+003,9.998152e-002
4.555231e+003,1.002825e-001
4.559088e+003,1.002579e-001
4.562945e+003,1.007876e-001
4.566802e+003,9.973420e-002
4.570659e+003,1.000975e-001
4.574516e+003,1.017183e-001
4.578374e+003,1.012343e-001
4.582230e+003,1.000648e-001
4.586087e+003,1.000882e-001
4.589945e+003,9.970490e-002
4.593802e+003,1.003148e-001
4.597659e+003,1.014913e-001
4.601516e+003,1.013863e-001
4.605373e+003,1.001725e-001
4.609230e+003,1.002385e-001
4.613087e+003,1.016334e-001
4.616944e+003,1.023194e-001
4.620801e+003,1.016119e-001
4.624659e+003,1.003294e-001
4.628516e+003,1.000554e-001
4.632373e+003,1.013547e-001
4.636230e+003,1.018978e-001
4.640087e+003,1.017549e-001
4.643944e+003,1.024079e-001
4.647801e+003,1.016702e-001
4.651658e+003,1.001947e-001
4.655515e+003,9.916712e-002
4.659373e+003,1.004436e-001
4.663229e+003,1.017026e-001
4.667086e+003,1.021789e-001
4.670944e+003,1.013197e-001
4.674801e+003,9.847094e-002
4.678658e+003,9.744932e-002
4.682515e+003,9.773816e-002
4.686372e+003,9.776310e-002
4.690229e+003,9.636331e-002
4.694086e+003,9.684164e-002
4.697943e+003,9.822781e-002
4.701800e+003,9.680334e-002
4.705658e+003,9.626818e-002
4.709515e+003,9.764837e-002
4.713372e+003,9.857471e-002
4.717229e+003,9.894964e-002
4.721086e+003,9.709962e-002
4.724943e+003,9.632952e-002
4.728800e+003,9.678524e-002
4.732657e+003,9.803027e-002
4.736514e+003,9.938113e-002
4.740372e+003,9.889805e-002
4.744229e+003,9.768613e-002
4.748085e+003,9.635144e-002
4.751943e+003,9.646889e-002
4.755800e+003,9.790040e-002
4.759657e+003,9.801395e-002
4.763514e+003,9.786740e-002
4.767371e+003,9.893699e-002
4.771228e+003,9.860053e-002
4.775085e+003,9.798513e-002
4.778942e+003,9.734988e-002
4.782799e+003,9.852923e-002
4.786657e+003,9.920309e-002
4.790514e+003,9.840024e-002
4.794371e+003,9.903183e-002
4.798228e+003,1.000780e-001
4.802085e+003,9.960265e-002
4.805942e+003,9.988468e-002
4.809799e+003,9.968476e-002
4.813656e+003,9.804958e-002
4.817513e+003,9.634011e-002
4.821371e+003,9.747581e-002
4.825228e+003,9.786997e-002
4.829084e+003,9.755271e-002
4.832942e+003,9.669929e-002
4.836799e+003,9.756963e-002
4.840656e+003,9.786366e-002
4.844513e+003,9.763791e-002
4.848370e+003,9.992471e-002
4.852227e+003,9.958978e-002
4.856084e+003,9.699807e-002
4.859941e+003,9.552878e-002
4.863798e+003,9.531663e-002
4.867656e+003,9.718934e-002
4.871513e+003,9.729616e-002
4.875370e+003,9.540036e-002
4.879227e+003,9.472346e-002
4.883084e+003,9.499050e-002
4.886941e+003,9.618643e-002
4.890798e+003,9.745313e-002
4.894655e+003,9.580094e-002
4.898512e+003,9.434112e-002
4.902370e+003,9.491991e-002
4.906227e+003,9.425002e-002
4.910083e+003,9.408296e-002
4.913941e+003,9.617832e-002
4.917798e+003,9.747150e-002
4.921655e+003,9.715676e-002
4.925512e+003,9.821630e-002
4.929369e+003,9.917353e-002
4.933226e+003,9.884279e-002
4.937083e+003,9.869600e-002
4.940940e+003,9.809650e-002
4.944797e+003,9.749808e-002
4.948655e+003,9.870519e-002
4.952512e+003,9.939745e-002
4.956369e+003,9.859412e-002
4.960226e+003,9.787101e-002
4.964083e+003,9.727331e-002
4.967940e+003,9.621496e-002
4.971797e+003,9.613454e-002
4.975654e+003,9.813156e-002
4.979511e+003,9.892733e-002
4.983369e+003,9.785303e-002
4.987226e+003,9.644014e-002
4.991083e+003,9.799709e-002
4.994940e+003,9.830949e-002
4.998797e+003,9.800295e-002
5.002654e+003,9.774837e-002
5.006511e+003,9.784108e-002
5.010368e+003,9.819768e-002
5.014225e+003,9.827662e-002
5.018083e+003,9.822880e-002
5.021939e+003,9.615823e-002
5.025796e+003,9.578124e-002
5.029654e+003,9.642524e-002
5.033511e+003,9.669606e-002
5.037368e+003,9.827874e-002
5.041225e+003,9.862464e-002
5.045082e+003,9.793191e-002
5.048939e+003,9.681004e-002
5.052796e+003,9.495965e-002
5.056653e+003,9.549109e-002
5.060510e+003,9.743928e-002
5.064368e+003,9.712685e-002
5.068225e+003,9.741668e-002
5.072082e+003,9.870781e-002
5.075939e+003,9.824226e-002
5.079796e+003,9.741402e-002
5.083653e+003,9.745251e-002
5.087510e+003,9.714098e-002
5.091367e+003,9.685932e-002
5.095224e+003,9.891989e-002
5.099082e+003,9.908573e-002
5.102938e+003,9.813376e-002
5.106795e+003,9.854240e-002
5.110653e+003,9.780547e-002
5.114510e+003,9.984327e-002
5.118367e+003,1.017075e-001
5.122224e+003,1.012951e-001
5.126081e+003,1.010926e-001
5.129938e+003,1.000391e-001
5.133795e+003,9.873601e-002
5.137652e+003,9.726220e-002
5.141509e+003,9.719862e-002
5.145367e+003,9.856460e-002
5.149224e+003,9.964684e-002
5.153081e+003,9.928363e-002
5.156938e+003,9.792701e-002
5.160795e+003,9.712635e-002
5.164652e+003,9.721553e-002
5.168509e+003,9.770691e-002
5.172366e+003,9.719668e-002
5.176223e+003,9.642338e-002
5.180081e+003,9.839904e-002
5.183938e+003,9.924265e-002
5.187794e+003,9.869529e-002
5.191652e+003,9.774949e-002
5.195509e+003,9.647270e-002
5.199366e+003,9.562693e-002
5.203223e+003,9.748793e-002
5.207080e+003,1.006874e-001
5.210937e+003,1.002918e-001
5.214794e+003,9.908573e-002
5.218651e+003,9.754014e-002
5.222508e+003,9.878143e-002
5.226366e+003,9.906871e-002
5.230223e+003,9.762622e-002
5.234080e+003,9.872245e-002
5.237937e+003,9.917332e-002
5.241794e+003,9.863416e-002
5.245651e+003,9.879874e-002
5.249508e+003,9.880040e-002
5.253365e+003,9.817559e-002
5.257222e+003,9.842102e-002
5.261080e+003,9.884379e-002
5.264937e+003,9.860044e-002
5.268793e+003,9.769036e-002
5.272651e+003,9.646405e-002
5.276508e+003,9.691627e-002
5.280365e+003,9.765231e-002
5.284222e+003,9.730478e-002
5.288079e+003,9.546145e-002
5.291936e+003,9.581995e-002
5.295793e+003,9.771281e-002
5.299650e+003,9.923045e-002
5.303507e+003,9.714214e-002
5.307365e+003,9.548543e-002
5.311222e+003,9.558596e-002
5.315079e+003,9.432857e-002
5.318936e+003,9.374152e-002
5.322793e+003,9.344377e-002
5.326650e+003,9.259482e-002
5.330507e+003,9.324914e-002
5.334364e+003,9.338009e-002
5.338221e+003,9.275592e-002
5.342079e+003,9.310074e-002
5.345936e+003,9.178288e-002
5.349792e+003,9.229531e-002
5.353650e+003,9.376372e-002
5.357507e+003,9.279847e-002
5.361364e+003,9.190962e-002
5.365221e+003,9.265932e-002
5.369078e+003,9.376775e-002
5.372935e+003,9.554876e-002
5.376792e+003,9.706200e-002
5.380649e+003,9.647961e-002
5.384506e+003,9.534262e-002
5.388364e+003,9.662408e-002
5.392221e+003,9.915417e-002
5.396078e+003,9.815905e-002
5.399935e+003,9.711292e-002
5.403792e+003,9.646711e-002
5.407649e+003,9.344632e-002
5.411506e+003,9.207650e-002
5.415363e+003,9.391223e-002
5.419220e+003,9.508296e-002
5.423078e+003,9.645958e-002
5.426935e+003,9.768480e-002
5.430792e+003,9.748896e-002
5.434649e+003,9.878834e-002
5.438506e+003,9.918585e-002
5.442363e+003,9.766571e-002
5.446220e+003,9.652326e-002
5.450077e+003,9.515481e-002
5.453934e+003,9.374575e-002
5.457792e+003,9.386592e-002
5.461648e+003,9.420169e-002
5.465505e+003,9.412094e-002
5.469363e+003,9.388483e-002
5.473220e+003,9.284815e-002
5.477077e+003,9.109578e-002
5.480934e+003,9.098859e-002
5.484791e+003,9.121651e-002
5.488648e+003,9.073862e-002
5.492505e+003,9.301051e-002
5.496362e+003,9.278070e-002
5.500219e+003,9.207179e-002
5.504077e+003,9.052814e-002
5.507934e+003,9.154665e-002
5.511791e+003,9.403869e-002
5.515648e+003,9.550381e-002
5.519505e+003,9.458473e-002
5.523362e+003,9.301621e-002
5.527219e+003,9.162413e-002
5.531076e+003,9.132383e-002
5.534933e+003,9.232720e-002
5.538791e+003,9.500225e-002
5.542647e+003,9.706971e-002
5.546504e+003,9.682648e-002
5.550362e+003,9.521520e-002
5.554219e+003,9.284282e-002
5.558076e+003,9.557181e-002
5.561933e+003,9.687332e-002
5.565790e+003,9.601413e-002
5.569647e+003,9.745014e-002
5.573504e+003,9.853991e-002
5.577361e+003,9.694158e-002
5.581218e+003,9.631938e-002
5.585076e+003,9.543210e-002
5.588933e+003,9.340335e-002
5.592790e+003,9.414095e-002
5.596647e+003,9.394472e-002
5.600504e+003,9.432074e-002
5.604361e+003,9.504399e-002
5.608218e+003,9.410424e-002
5.612075e+003,9.437884e-002
5.615932e+003,9.582495e-002
5.619790e+003,9.495421e-002
5.623646e+003,9.158126e-002
5.627503e+003,8.963394e-002
5.631361e+003,8.994021e-002
5.635218e+003,9.048067e-002
5.639075e+003,9.101613e-002
5.642932e+003,9.180416e-002
5.646789e+003,9.114735e-002
5.650646e+003,8.968632e-002
5.654503e+003,9.170692e-002
5.658360e+003,9.329555e-002
5.662217e+003,9.395657e-002
5.666075e+003,9.410156e-002
5.669932e+003,9.268668e-002
5.673789e+003,9.292875e-002
5.677646e+003,9.428999e-002
5.681503e+003,9.552453e-002
5.685360e+003,9.516545e-002
5.689217e+003,9.568388e-002
5.693074e+003,9.761021e-002
5.696931e+003,9.692112e-002
5.700789e+003,9.613239e-002
5.704646e+003,9.771725e-002
5.708502e+003,9.892975e-002
5.712360e+003,9.832037e-002
5.716217e+003,9.769832e-002
5.720074e+003,9.822826e-002
5.723931e+003,9.865471e-002
5.727788e+003,9.727866e-002
5.731645e+003,9.722017e-002
5.735502e+003,9.848865e-002
5.739359e+003,9.574576e-002
5.743216e+003,9.302520e-002
5.747074e+003,9.325822e-002
5.750931e+003,9.413893e-002
5.754788e+003,9.472387e-002
5.758645e+003,9.564469e-002
5.762502e+003,9.383840e-002
5.766359e+003,9.195294e-002
5.770216e+003,9.158960e-002
5.774073e+003,9.020628e-002
5.777930e+003,8.769462e-002
5.781788e+003,8.751196e-002
5.785645e+003,9.203853e-002
5.789501e+003,9.318122e-002
5.793359e+003,9.075332e-002
5.797216e+003,9.302261e-002
5.801073e+003,9.199286e-002
5.804930e+003,8.877596e-002
5.808787e+003,9.127640e-002
5.812644e+003,9.414847e-002
5.816501e+003,9.555500e-002
5.820358e+003,9.564213e-002
5.824215e+003,9.567925e-002
5.828073e+003,9.480708e-002
5.831930e+003,9.503421e-002
5.835787e+003,9.932365e-002
5.839644e+003,9.995658e-002
5.843501e+003,9.771787e-002
5.847358e+003,9.607518e-002
5.851215e+003,9.706001e-002
5.855072e+003,9.925114e-002
5.858929e+003,1.016897e-001
5.862787e+003,1.020844e-001
5.866644e+003,9.956769e-002
5.870500e+003,9.776883e-002
5.874358e+003,9.831019e-002
5.878215e+003,9.797484e-002
5.882072e+003,1.000024e-001
5.885929e+003,1.007029e-001
5.889786e+003,9.827895e-002
5.893643e+003,9.533854e-002
5.897500e+003,9.520646e-002
5.901357e+003,9.333120e-002
5.905214e+003,9.162786e-002
5.909072e+003,9.294385e-002
5.912929e+003,9.508374e-002
5.916786e+003,9.524149e-002
5.920643e+003,9.452932e-002
5.924500e+003,9.486133e-002
5.928357e+003,9.491142e-002
5.932214e+003,9.520539e-002
5.936071e+003,9.676069e-002
5.939928e+003,9.565493e-002
5.943786e+003,9.332102e-002
5.947643e+003,9.355880e-002
5.951500e+003,9.424087e-002
5.955357e+003,9.309614e-002
5.959214e+003,9.222512e-002
5.963071e+003,9.476756e-002
5.966928e+003,9.642868e-002
5.970785e+003,9.789097e-002
5.974642e+003,1.007073e-001
5.978500e+003,1.010663e-001
5.982356e+003,9.925610e-002
5.986213e+003,9.930632e-002
5.990071e+003,1.004506e-001
5.993928e+003,9.968647e-002
5.997785e+003,1.010894e-001
6.001642e+003,1.024940e-001
6.005499e+003,1.023432e-001
6.009356e+003,1.019548e-001
6.013213e+003,1.025877e-001
6.017070e+003,1.037778e-001
6.020927e+003,1.046722e-001
6.024785e+003,1.029018e-001
6.028642e+003,1.010666e-001
6.032499e+003,1.000302e-001
6.036356e+003,1.020221e-001
6.040213e+003,1.033851e-001
6.044070e+003,9.952365e-002
6.047927e+003,9.833396e-002
6.051784e+003,9.862939e-002
6.055641e+003,9.932306e-002
6.059499e+003,9.940103e-002
6.063355e+003,9.751293e-002
6.067212e+003,9.730677e-002
6.071070e+003,9.729520e-002
6.074927e+003,9.670099e-002
6.078784e+003,9.571085e-002
6.082641e+003,9.626988e-002
6.086498e+003,9.614455e-002
6.090355e+003,9.547037e-002
6.094212e+003,9.716472e-002
6.098069e+003,9.833600e-002
6.101926e+003,9.653303e-002
6.105784e+003,9.618221e-002
6.109641e+003,9.917703e-002
6.113498e+003,1.007427e-001
6.117355e+003,9.933873e-002
6.121212e+003,9.962366e-002
6.125069e+003,1.017463e-001
6.128926e+003,1.031914e-001
6.132783e+003,1.043683e-001
6.136640e+003,1.047333e-001
6.140498e+003,1.058700e-001
6.144354e+003,1.066026e-001
6.148211e+003,1.056885e-001
6.152069e+003,1.041714e-001
6.155926e+003,1.029903e-001
6.159783e+003,9.893762e-002
6.163640e+003,1.005731e-001
6.167497e+003,1.035724e-001
6.171354e+003,1.044198e-001
6.175211e+003,1.064309e-001
6.179068e+003,1.062856e-001
6.182925e+003,1.042899e-001
6.186783e+003,1.042119e-001
6.190640e+003,1.038157e-001
6.194497e+003,1.021701e-001
6.198354e+003,1.016810e-001
6.202211e+003,1.033846e-001
6.206068e+003,1.016418e-001
6.209925e+003,1.017537e-001
6.213782e+003,1.014770e-001
6.217639e+003,1.004910e-001
6.221497e+003,9.977943e-002
6.225354e+003,9.991362e-002
6.229210e+003,9.927784e-002
6.233068e+003,9.815636e-002
6.236925e+003,9.862198e-002
6.240782e+003,9.854627e-002
6.244639e+003,9.486429e-002
6.248496e+003,9.732186e-002
6.252353e+003,1.022916e-001
6.256210e+003,1.016731e-001
6.260067e+003,1.023695e-001
6.263924e+003,1.041714e-001
6.267782e+003,1.084484e-001
6.271639e+003,1.092954e-001
6.275496e+003,1.100414e-001
6.279353e+003,1.090447e-001
6.283210e+003,1.088684e-001
6.287067e+003,1.103690e-001
6.290924e+003,1.083344e-001
6.294781e+003,1.088802e-001
6.298638e+003,1.119663e-001
6.302496e+003,1.143542e-001
6.306353e+003,1.139477e-001
6.310209e+003,1.146083e-001
6.314067e+003,1.148318e-001
6.317924e+003,1.128182e-001
6.321781e+003,1.105654e-001
6.325638e+003,1.106418e-001
6.329495e+003,1.100328e-001
6.333352e+003,1.076427e-001
6.337209e+003,1.058224e-001
6.341066e+003,1.043597e-001
6.344923e+003,1.068534e-001
6.348780e+003,1.079387e-001
6.352638e+003,1.082937e-001
6.356495e+003,1.084909e-001
6.360352e+003,1.052706e-001
6.364209e+003,1.028764e-001
6.368066e+003,1.037353e-001
6.371923e+003,1.037947e-001
6.375780e+003,1.058097e-001
6.379637e+003,1.067020e-001
6.383494e+003,1.064767e-001
6.387352e+003,1.061016e-001
6.391208e+003,1.052574e-001
6.395065e+003,1.086040e-001
6.398923e+003,1.061913e-001
6.402780e+003,1.061237e-001
6.406637e+003,1.097657e-001
6.410494e+003,1.079532e-001
6.414351e+003,1.071543e-001
6.418208e+003,1.093375e-001
6.422065e+003,1.153908e-001
6.425922e+003,1.172645e-001
6.429779e+003,1.167344e-001
6.433637e+003,1.159118e-001
6.437494e+003,1.147653e-001
6.441351e+003,1.132509e-001
6.445208e+003,1.132397e-001
6.449065e+003,1.132541e-001
6.452922e+003,1.147359e-001
6.456779e+003,1.184201e-001
6.460636e+003,1.194932e-001
6.464493e+003,1.202940e-001
6.468351e+003,1.169251e-001
6.472208e+003,1.131618e-001
6.476064e+003,1.143212e-001
6.479922e+003,1.154102e-001
6.483779e+003,1.154152e-001
6.487636e+003,1.114370e-001
6.491493e+003,1.054935e-001
6.495350e+003,1.024747e-001
6.499207e+003,1.038787e-001
6.503064e+003,1.044844e-001
6.506921e+003,1.052628e-001
6.510778e+003,1.052695e-001
6.514636e+003,1.033732e-001
6.518493e+003,1.059155e-001
6.522350e+003,1.102774e-001
6.526207e+003,1.111484e-001
6.530064e+003,1.070412e-001
6.533921e+003,1.066831e-001
6.537778e+003,1.090873e-001
6.541635e+003,1.102358e-001
6.545492e+003,1.077752e-001
6.549350e+003,1.084604e-001
6.553207e+003,1.113328e-001
6.557063e+003,1.112134e-001
6.560921e+003,1.117966e-001
6.564778e+003,1.140202e-001
6.568635e+003,1.164954e-001
6.572492e+003,1.122728e-001
6.576349e+003,1.121674e-001
6.580206e+003,1.143116e-001
6.584063e+003,1.161814e-001
6.587920e+003,1.186510e-001
6.591777e+003,1.201320e-001
6.595635e+003,1.208413e-001
6.599492e+003,1.195608e-001
6.603349e+003,1.213082e-001
6.607206e+003,1.245952e-001
6.611063e+003,1.195028e-001
6.614920e+003,1.170916e-001
6.618777e+003,1.246188e-001
6.622634e+003,1.279999e-001
6.626491e+003,1.241655e-001
6.630349e+003,1.153320e-001
6.634206e+003,1.094193e-001
6.638063e+003,1.111269e-001
6.641920e+003,1.154413e-001
6.645777e+003,1.170739e-001
6.649634e+003,1.134774e-001
6.653491e+003,1.133121e-001
6.657348e+003,1.145608e-001
6.661205e+003,1.137089e-001
6.665063e+003,1.131304e-001
6.668919e+003,1.111306e-001
6.672776e+003,1.102915e-001
6.676634e+003,1.139864e-001
6.680491e+003,1.127441e-001
6.684348e+003,1.104716e-001
6.688205e+003,1.136962e-001
6.692062e+003,1.202733e-001
6.695919e+003,1.252217e-001
6.699776e+003,1.254199e-001
6.703633e+003,1.257447e-001
6.707490e+003,1.254457e-001
6.711348e+003,1.235348e-001
6.715205e+003,1.267127e-001
6.719062e+003,1.286329e-001
6.722919e+003,1.342535e-001
6.726776e+003,1.396444e-001
6.730633e+003,1.323616e-001
6.734490e+003,1.299149e-001
6.738347e+003,1.340698e-001
6.742204e+003,1.323207e-001
6.746062e+003,1.313466e-001
6.749918e+003,1.309021e-001
6.753775e+003,1.309869e-001
6.757633e+003,1.284195e-001
6.761490e+003,1.304996e-001
6.765347e+003,1.292376e-001
6.769204e+003,1.294190e-001
6.773061e+003,1.313261e-001
6.776918e+003,1.284606e-001
6.780775e+003,1.249048e-001
6.784632e+003,1.235776e-001
6.788489e+003,1.282508e-001
6.792347e+003,1.292240e-001
6.796204e+003,1.265682e-001
6.800061e+003,1.301203e-001
6.803918e+003,1.299344e-001
6.807775e+003,1.278171e-001
6.811632e+003,1.310995e-001
6.815489e+003,1.278674e-001
6.819346e+003,1.259539e-001
6.823203e+003,1.211536e-001
6.827061e+003,1.160223e-001
6.830917e+003,1.188176e-001
6.834774e+003,1.205612e-001
6.838632e+003,1.233346e-001
6.842489e+003,1.249592e-001
6.846346e+003,1.206467e-001
6.850203e+003,1.251002e-001
6.854060e+003,1.322842e-001
6.857917e+003,1.346433e-001
6.861774e+003,1.326570e-001
6.865631e+003,1.340216e-001
6.869488e+003,1.369072e-001
6.873346e+003,1.334466e-001
6.877203e+003,1.282845e-001
6.881060e+003,1.264554e-001
6.884917e+003,1.294525e-001
6.888774e+003,1.336547e-001
6.892631e+003,1.395139e-001
6.896488e+003,1.451812e-001
6.900345e+003,1.466900e-001
6.904202e+003,1.441604e-001
6.908060e+003,1.384605e-001
6.911917e+003,1.318420e-001
6.915773e+003,1.329502e-001
6.919631e+003,1.388118e-001
6.923488e+003,1.373495e-001
6.927345e+003,1.352798e-001
6.931202e+003,1.349560e-001
6.935059e+003,1.393001e-001
6.938916e+003,1.388427e-001
6.942773e+003,1.361208e-001
6.946630e+003,1.362336e-001
6.950487e+003,1.294212e-001
6.954345e+003,1.285626e-001
6.958202e+003,1.327164e-001
6.962059e+003,1.325403e-001
6.965916e+003,1.341038e-001
6.969773e+003,1.350488e-001
6.973630e+003,1.367018e-001
6.977487e+003,1.381695e-001
6.981344e+003,1.387495e-001
6.985201e+003,1.408717e-001
6.989059e+003,1.339296e-001
6.992916e+003,1.269276e-001
6.996772e+003,1.352330e-001
7.000630e+003,1.418763e-001
7.004487e+003,1.392499e-001
7.008344e+003,1.333392e-001
7.012201e+003,1.380894e-001
7.016058e+003,1.429506e-001
7.019915e+003,1.465624e-001
7.023772e+003,1.487887e-001
7.027629e+003,1.467679e-001
7.031486e+003,1.435266e-001
7.035344e+003,1.477171e-001
7.039201e+003,1.564311e-001
7.043058e+003,1.571320e-001
7.046915e+003,1.486203e-001
7.050772e+003,1.395212e-001
7.054629e+003,1.350289e-001
7.058486e+003,1.417134e-001
7.062343e+003,1.512533e-001
7.066200e+003,1.508702e-001
7.070058e+003,1.441491e-001
7.073915e+003,1.371084e-001
7.077771e+003,1.353701e-001
7.081629e+003,1.421356e-001
7.085486e+003,1.434681e-001
7.089343e+003,1.385602e-001
7.093200e+003,1.440809e-001
7.097057e+003,1.433718e-001
7.100914e+003,1.341668e-001
7.104771e+003,1.361667e-001
7.108628e+003,1.360450e-001
7.112485e+003,1.442426e-001
7.116343e+003,1.472894e-001
7.120200e+003,1.479461e-001
7.124057e+003,1.465630e-001
7.127914e+003,1.454264e-001
7.131771e+003,1.416529e-001
7.135628e+003,1.443194e-001
7.139485e+003,1.502596e-001
7.143342e+003,1.525366e-001
7.147199e+003,1.509211e-001
7.151057e+003,1.491381e-001
7.154914e+003,1.520179e-001
7.158771e+003,1.518416e-001
7.162628e+003,1.521174e-001
7.166485e+003,1.557272e-001
7.170342e+003,1.516864e-001
7.174199e+003,1.457997e-001
7.178056e+003,1.512989e-001
7.181913e+003,1.605189e-001
7.185771e+003,1.651755e-001
7.189627e+003,1.577559e-001
7.193484e+003,1.460796e-001
7.197342e+003,1.456623e-001
7.201199e+003,1.501314e-001
7.205056e+003,1.473733e-001
7.208913e+003,1.425167e-001
7.212770e+003,1.443808e-001
7.216627e+003,1.532405e-001
7.220484e+003,1.528378e-001
7.224341e+003,1.546748e-001
7.228198e+003,1.512985e-001
7.232056e+003,1.517759e-001
7.235913e+003,1.520408e-001
7.239770e+003,1.448855e-001
7.243627e+003,1.468253e-001
7.247484e+003,1.502361e-001
7.251341e+003,1.506597e-001
7.255198e+003,1.488955e-001
7.259055e+003,1.431600e-001
7.262912e+003,1.392091e-001
7.266770e+003,1.382871e-001
7.270626e+003,1.427573e-001
7.274483e+003,1.456311e-001
7.278341e+003,1.414173e-001
7.282198e+003,1.329763e-001
7.286055e+003,1.420631e-001
7.289912e+003,1.605018e-001
7.293769e+003,1.594465e-001
7.297626e+003,1.625244e-001
7.301483e+003,1.631267e-001
7.305340e+003,1.453032e-001
7.309197e+003,1.395582e-001
7.313055e+003,1.542732e-001
7.316912e+003,1.619246e-001
7.320769e+003,1.579511e-001
7.324626e+003,1.530079e-001
7.328483e+003,1.515429e-001
7.332340e+003,1.563540e-001
7.336197e+003,1.601687e-001
7.340054e+003,1.610346e-001
7.343911e+003,1.506646e-001
7.347769e+003,1.470426e-001
7.351625e+003,1.501760e-001
7.355482e+003,1.447660e-001
7.359340e+003,1.423881e-001
7.363197e+003,1.504222e-001
7.367054e+003,1.536885e-001
7.370911e+003,1.560842e-001
7.374768e+003,1.466522e-001
7.378625e+003,1.419901e-001
7.382482e+003,1.418774e-001
7.386339e+003,1.429359e-001
7.390196e+003,1.492277e-001
7.394054e+003,1.527753e-001
7.397911e+003,1.559589e-001
7.401768e+003,1.457316e-001
7.405625e+003,1.383933e-001
7.409482e+003,1.369435e-001
7.413339e+003,1.403589e-001
7.417196e+003,1.445812e-001
7.421053e+003,1.482684e-001
7.424910e+003,1.458326e-001
7.428768e+003,1.401577e-001
7.432625e+003,1.480332e-001
7.436481e+003,1.495605e-001
7.440339e+003,1.499285e-001
7.444196e+003,1.484739e-001
7.448053e+003,1.456119e-001
7.451910e+003,1.408323e-001
7.455767e+003,1.353310e-001
7.459624e+003,1.409254e-001
7.463481e+003,1.554205e-001
7.467338e+003,1.601869e-001
7.471195e+003,1.441954e-001
7.475053e+003,1.373187e-001
7.478910e+003,1.462999e-001
7.482767e+003,1.466877e-001
7.486624e+003,1.457642e-001
7.490481e+003,1.471303e-001
7.494338e+003,1.465610e-001
7.498195e+003,1.483080e-001
7.502052e+003,1.483766e-001
7.505909e+003,1.443543e-001
7.509767e+003,1.438677e-001
7.513624e+003,1.403429e-001
7.517480e+003,1.415501e-001
7.521338e+003,1.377158e-001
7.525195e+003,1.338726e-001
7.529052e+003,1.379701e-001
7.532909e+003,1.460972e-001
7.536766e+003,1.472160e-001
7.540623e+003,1.513683e-001
7.544480e+003,1.413276e-001
7.548337e+003,1.369606e-001
7.552194e+003,1.409218e-001
7.556052e+003,1.430756e-001
7.559909e+003,1.452591e-001
7.563766e+003,1.459838e-001
7.567623e+003,1.365606e-001
7.571480e+003,1.369759e-001
7.575337e+003,1.470591e-001
7.579194e+003,1.406977e-001
7.583051e+003,1.499043e-001
7.586908e+003,1.655110e-001
7.590766e+003,1.530097e-001
7.594623e+003,1.439929e-001
7.598479e+003,1.458672e-001
7.602337e+003,1.507341e-001
7.606194e+003,1.509471e-001
7.610051e+003,1.498733e-001
7.613908e+003,1.628949e-001
7.617765e+003,1.745912e-001
7.621622e+003,1.726245e-001
7.625479e+003,1.620146e-001
7.629336e+003,1.508310e-001
7.633193e+003,1.502182e-001
7.637051e+003,1.642485e-001
7.640908e+003,1.626882e-001
7.644765e+003,1.429483e-001
7.648622e+003,1.442546e-001
7.652479e+003,1.640496e-001
7.656336e+003,1.710814e-001
7.660193e+003,1.654275e-001
7.664050e+003,1.515229e-001
7.667907e+003,1.445682e-001
7.671765e+003,1.439822e-001
7.675622e+003,1.312658e-001
7.679479e+003,1.305864e-001
7.683336e+003,1.406678e-001
7.687193e+003,1.467940e-001
7.691050e+003,1.566431e-001
7.694907e+003,1.616698e-001
7.698764e+003,1.531907e-001
7.702621e+003,1.508607e-001
7.706479e+003,1.572691e-001
7.710335e+003,1.600858e-001
7.714192e+003,1.539680e-001
7.718050e+003,1.579310e-001
7.721907e+003,1.601891e-001
7.725764e+003,1.499825e-001
7.729621e+003,1.424696e-001
7.733478e+003,1.514205e-001
7.737335e+003,1.580171e-001
7.741192e+003,1.612517e-001
7.745049e+003,1.682944e-001
7.748906e+003,1.683014e-001
7.752764e+003,1.712682e-001
7.756621e+003,1.615787e-001
7.760478e+003,1.738956e-001
7.764335e+003,1.737364e-001
7.768192e+003,1.506564e-001
7.772049e+003,1.532112e-001
7.775906e+003,1.588369e-001
7.779763e+003,1.520592e-001
7.783620e+003,1.603797e-001
7.787478e+003,1.602303e-001
7.791334e+003,1.648896e-001
7.795191e+003,1.712304e-001
7.799049e+003,1.701659e-001
7.802906e+003,1.769197e-001
7.806763e+003,1.853224e-001
7.810620e+003,1.685651e-001
7.814477e+003,1.574130e-001
7.818334e+003,1.698273e-001
7.822191e+003,1.653100e-001
7.826048e+003,1.609056e-001
7.829905e+003,1.645671e-001
7.833763e+003,1.647341e-001
7.837620e+003,1.631560e-001
7.841477e+003,1.547798e-001
7.845334e+003,1.403160e-001
7.849191e+003,1.402845e-001
7.853048e+003,1.617423e-001
7.856905e+003,1.761291e-001
7.860762e+003,1.886646e-001
7.864619e+003,1.714823e-001
7.868477e+003,1.567363e-001
7.872333e+003,1.563671e-001
7.876190e+003,1.530707e-001
7.880048e+003,1.552944e-001
7.883905e+003,1.759220e-001
7.887762e+003,1.677453e-001
7.891619e+003,1.426722e-001
7.895476e+003,1.250305e-001
7.899333e+003,1.145798e-001
7.903190e+003,1.356805e-001
7.907047e+003,1.579357e-001
7.910904e+003,1.612519e-001
7.914762e+003,1.857813e-001
7.918619e+003,1.902144e-001
7.922476e+003,1.627577e-001
7.926333e+003,1.416052e-001
7.930190e+003,1.453333e-001
7.934047e+003,1.550987e-001
7.937904e+003,1.752833e-001
7.941761e+003,1.626546e-001
7.945618e+003,1.399624e-001
7.949476e+003,1.617634e-001
7.953333e+003,1.687553e-001
7.957189e+003,1.659472e-001
7.961047e+003,1.676644e-001
7.964904e+003,1.687851e-001
7.968761e+003,1.770217e-001
7.972618e+003,1.590038e-001
7.976475e+003,1.352830e-001
7.980332e+003,1.518021e-001
7.984189e+003,1.776285e-001
7.988046e+003,1.857886e-001
7.991903e+003,1.686005e-001
7.995761e+003,1.444262e-001
7.999618e+003,1.698865e-001
