4.011380e+002,-5.572331e-001
4.049951e+002,5.283460e-001
4.088522e+002,6.000000e+000
4.127093e+002,6.000000e+000
4.165664e+002,6.000000e+000
4.204235e+002,6.000000e+000
4.242806e+002,6.000000e+000
4.281377e+002,6.000000e+000
4.319948e+002,6.000000e+000
4.358519e+002,-2.697483e+000
4.397090e+002,6.000000e+000
4.435661e+002,6.000000e+000
4.474232e+002,-1.730796e-001
4.512803e+002,-1.573376e+000
4.551374e+002,6.000000e+000
4.589945e+002,8.312724e-002
4.628516e+002,5.213990e-001
4.667087e+002,6.000000e+000
4.705658e+002,5.198709e-001
4.744229e+002,7.869558e-001
4.782800e+002,6.000000e+000
4.821371e+002,2.514517e-001
4.859941e+002,3.375699e+000
4.898513e+002,-1.443564e+000
4.937083e+002,-1.150285e-001
4.975654e+002,5.055773e-001
5.014225e+002,6.000000e+000
5.052796e+002,6.000000e+000
5.091367e+002,6.000000e+000
5.129938e+002,4.659508e-001
5.168509e+002,6.000000e+000
5.207080e+002,6.000000e+000
5.245651e+002,6.000000e+000
5.284222e+002,6.000000e+000
5.322793e+002,-5.671771e-001
5.361364e+002,1.198719e+000
5.399935e+002,6.000000e+000
5.438506e+002,-7.334496e-001
5.477077e+002,1.399532e-001
5.515648e+002,1.096806e+000
5.554219e+002,6.000000e+000
5.592790e+002,-1.109574e+000
5.631361e+002,6.000000e+000
5.669932e+002,6.000000e+000
5.708503e+002,6.000000e+000
5.747074e+002,6.000000e+000
5.785645e+002,-3.188671e-001
5.824216e+002,-6.318881e-002
5.862787e+002,5.530027e-001
5.901357e+002,6.301450e-001
5.939929e+002,6.000000e+000
5.978499e+002,4.436421e-001
6.017070e+002,3.243727e-001
6.055641e+002,2.690274e-001
6.094212e+002,-5.915469e-002
6.132783e+002,-8.340805e-001
6.171354e+002,6.000000e+000
6.209925e+002,6.000000e+000
6.248496e+002,6.000000e+000
6.287067e+002,6.000000e+000
6.325638e+002,6.000000e+000
6.364209e+002,6.000000e+000
6.402780e+002,3.192909e-001
6.441351e+002,-4.531654e-001
6.479922e+002,6.000000e+000
6.518493e+002,6.000000e+000
6.557064e+002,5.956837e-001
6.595635e+002,6.000000e+000
6.634205e+002,-3.582187e-001
6.672777e+002,6.000000e+000
6.711348e+002,-8.726662e-001
6.749918e+002,-1.159100e+000
6.788490e+002,-5.375698e-001
6.827061e+002,3.016643e-001
6.865631e+002,1.451103e-001
6.904203e+002,6.000000e+000
6.942773e+002,-3.667220e-001
6.981344e+002,6.000000e+000
7.019916e+002,6.000000e+000
7.058486e+002,-2.202902e-001
7.097057e+002,-7.951370e-001
7.135629e+002,-8.370132e-001
7.174199e+002,3.347231e-001
7.212770e+002,6.550679e-001
7.251342e+002,3.501708e-001
7.289912e+002,6.000000e+000
7.328483e+002,-3.555400e+000
7.367054e+002,6.000000e+000
7.405625e+002,6.000000e+000
7.444196e+002,6.000000e+000
7.482767e+002,6.000000e+000
7.521338e+002,6.000000e+000
7.559908e+002,4.174015e-001
7.598480e+002,-1.258456e+000
7.637051e+002,-4.432317e-001
7.675621e+002,-1.515086e+000
7.714193e+002,-5.237811e-001
7.752764e+002,6.000000e+000
7.791334e+002,6.000000e+000
7.829905e+002,6.000000e+000
7.868477e+002,6.000000e+000
7.907047e+002,-6.166301e-002
7.945618e+002,-3.479616e-002
7.984189e+002,1.160395e+000
8.022760e+002,1.010911e+000
8.061331e+002,6.000000e+000
8.099902e+002,6.000000e+000
8.138473e+002,-1.467176e-001
8.177044e+002,8.001154e-001
8.215615e+002,6.595147e-001
8.254186e+002,4.107350e-001
8.292757e+002,1.271326e+000
8.331328e+002,6.000000e+000
8.369899e+002,6.000000e+000
8.408470e+002,6.000000e+000
8.447041e+002,1.229649e+000
8.485612e+002,6.000000e+000
8.524183e+002,6.000000e+000
8.562754e+002,6.000000e+000
8.601324e+002,6.000000e+000
8.639896e+002,1.415581e+000
8.678467e+002,6.000000e+000
8.717037e+002,6.000000e+000
8.755609e+002,1.303426e+000
8.794180e+002,1.209873e+000
8.832750e+002,1.495881e+000
8.871321e+002,1.450498e+000
8.909893e+002,1.191991e+000
8.948463e+002,1.153586e+000
8.987034e+002,1.164002e+000
9.025605e+002,1.349941e+000
9.064176e+002,1.405882e+000
9.102747e+002,1.288194e+000
9.141318e+002,1.249098e+000
9.179889e+002,1.384690e+000
9.218461e+002,1.656435e+000
9.257031e+002,1.886338e+000
9.295602e+002,1.984808e+000
9.334174e+002,2.560156e+000
9.372744e+002,6.000000e+000
9.411315e+002,2.044820e+000
9.449886e+002,1.615535e+000
9.488457e+002,1.615985e+000
9.527028e+002,2.042215e+000
9.565599e+002,6.000000e+000
9.604170e+002,6.000000e+000
9.642740e+002,6.000000e+000
9.681312e+002,6.000000e+000
9.719883e+002,3.964672e+000
9.758453e+002,1.708143e+000
9.797025e+002,2.356786e+000
9.835596e+002,6.000000e+000
9.874166e+002,2.939884e+000
9.912738e+002,6.000000e+000
9.951309e+002,6.000000e+000
9.989879e+002,6.000000e+000
1.002845e+003,6.000000e+000
1.006702e+003,3.141770e+000
1.010559e+003,2.376437e+000
1.014416e+003,1.900282e+000
1.018273e+003,1.796428e+000
1.022130e+003,1.742369e+000
1.025988e+003,1.877755e+000
1.029845e+003,1.801538e+000
1.033702e+003,1.941266e+000
1.037559e+003,2.172188e+000
1.041416e+003,1.982821e+000
1.045273e+003,1.943830e+000
1.049130e+003,2.024617e+000
1.052987e+003,1.970625e+000
1.056844e+003,1.940280e+000
1.060702e+003,1.957758e+000
1.064559e+003,1.830639e+000
1.068416e+003,1.875008e+000
1.072273e+003,1.876473e+000
1.076130e+003,1.692439e+000
1.079987e+003,1.685191e+000
1.083844e+003,1.687115e+000
1.087701e+003,1.811551e+000
1.091558e+003,1.759296e+000
1.095415e+003,1.584101e+000
1.099272e+003,1.512292e+000
1.103130e+003,1.615509e+000
1.106987e+003,1.711208e+000
1.110844e+003,1.646193e+000
1.114701e+003,1.508232e+000
1.118558e+003,1.396235e+000
1.122415e+003,1.448789e+000
1.126272e+003,1.524124e+000
1.130129e+003,1.459469e+000
1.133986e+003,1.425629e+000
1.137843e+003,1.402750e+000
1.141701e+003,1.415464e+000
1.145558e+003,1.421576e+000
1.149415e+003,1.416624e+000
1.153272e+003,1.377682e+000
1.157129e+003,1.354796e+000
1.160986e+003,1.417885e+000
1.164843e+003,1.448689e+000
1.168700e+003,1.442954e+000
1.172557e+003,1.416717e+000
1.176414e+003,1.366303e+000
1.180271e+003,1.377763e+000
1.184129e+003,1.381012e+000
1.187986e+003,1.349894e+000
1.191843e+003,1.310232e+000
1.195700e+003,1.299780e+000
1.199557e+003,1.296107e+000
1.203414e+003,1.282417e+000
1.207271e+003,1.271750e+000
1.211128e+003,1.283571e+000
1.214985e+003,1.285851e+000
1.218842e+003,1.225312e+000
1.222699e+003,1.145342e+000
1.226557e+003,1.098403e+000
1.230414e+003,1.077075e+000
1.234271e+003,1.021859e+000
1.238128e+003,9.751142e-001
1.241985e+003,9.537480e-001
1.245842e+003,9.198099e-001
1.249699e+003,8.855849e-001
1.253556e+003,8.617043e-001
1.257413e+003,8.274915e-001
1.261271e+003,7.957725e-001
1.265128e+003,7.833398e-001
1.268985e+003,7.657717e-001
1.272842e+003,7.446409e-001
1.276699e+003,7.277383e-001
1.280556e+003,7.062985e-001
1.284413e+003,6.911345e-001
1.288270e+003,6.818760e-001
1.292127e+003,6.665483e-001
1.295984e+003,6.558568e-001
1.299841e+003,6.513397e-001
1.303698e+003,6.435957e-001
1.307556e+003,6.338602e-001
1.311413e+003,6.245115e-001
1.315270e+003,6.187232e-001
1.319127e+003,6.128432e-001
1.322984e+003,6.084973e-001
1.326841e+003,6.064851e-001
1.330698e+003,6.026656e-001
1.334555e+003,5.992986e-001
1.338412e+003,5.972129e-001
1.342270e+003,5.938327e-001
1.346127e+003,5.932663e-001
1.349984e+003,5.980309e-001
1.353841e+003,6.005965e-001
1.357698e+003,6.058292e-001
1.361555e+003,6.140015e-001
1.365412e+003,6.178246e-001
1.369269e+003,6.214628e-001
1.373126e+003,6.270599e-001
1.376983e+003,6.367284e-001
1.380840e+003,6.491230e-001
1.384698e+003,6.584818e-001
1.388555e+003,6.746356e-001
1.392412e+003,6.992733e-001
1.396269e+003,7.156355e-001
1.400126e+003,7.252252e-001
1.403983e+003,7.422911e-001
1.407840e+003,7.608944e-001
1.411697e+003,7.805657e-001
1.415554e+003,7.974157e-001
1.419411e+003,8.177180e-001
1.423269e+003,8.286572e-001
1.427126e+003,8.322427e-001
1.430983e+003,8.374237e-001
1.434840e+003,8.404536e-001
1.438697e+003,8.329154e-001
1.442554e+003,8.214380e-001
1.446411e+003,8.127636e-001
1.450268e+003,8.020210e-001
1.454125e+003,7.951522e-001
1.457982e+003,7.931993e-001
1.461839e+003,7.900787e-001
1.465697e+003,7.877768e-001
1.469554e+003,7.776253e-001
1.473411e+003,7.778970e-001
1.477268e+003,7.932788e-001
1.481125e+003,8.015269e-001
1.484982e+003,8.078267e-001
1.488839e+003,8.198391e-001
1.492696e+003,8.339950e-001
1.496553e+003,8.406652e-001
1.500411e+003,8.470701e-001
1.504268e+003,8.507454e-001
1.508125e+003,8.463479e-001
1.511982e+003,8.368961e-001
1.515839e+003,8.318119e-001
1.519696e+003,8.299640e-001
1.523553e+003,8.247931e-001
1.527410e+003,8.206639e-001
1.531267e+003,8.073319e-001
1.535124e+003,7.926670e-001
1.538981e+003,7.830979e-001
1.542839e+003,7.648874e-001
1.546696e+003,7.436773e-001
1.550553e+003,7.309904e-001
1.554410e+003,7.234094e-001
1.558267e+003,7.143152e-001
1.562124e+003,7.085201e-001
1.565981e+003,7.001567e-001
1.569838e+003,6.914803e-001
1.573695e+003,6.898102e-001
1.577552e+003,6.818842e-001
1.581410e+003,6.750792e-001
1.585267e+003,6.767918e-001
1.589124e+003,6.791587e-001
1.592981e+003,6.849523e-001
1.596838e+003,6.931268e-001
1.600695e+003,7.069398e-001
1.604552e+003,7.290389e-001
1.608409e+003,7.527723e-001
1.612266e+003,7.773045e-001
1.616123e+003,8.000825e-001
1.619980e+003,8.261466e-001
1.623838e+003,8.552554e-001
1.627695e+003,8.738176e-001
1.631552e+003,8.886250e-001
1.635409e+003,8.942128e-001
1.639266e+003,8.940955e-001
1.643123e+003,8.921385e-001
1.646980e+003,8.823088e-001
1.650837e+003,8.689003e-001
1.654694e+003,8.560238e-001
1.658551e+003,8.386680e-001
1.662409e+003,8.256097e-001
1.666266e+003,8.145577e-001
1.670123e+003,7.890410e-001
1.673980e+003,7.598855e-001
1.677837e+003,7.369444e-001
1.681694e+003,7.154769e-001
1.685551e+003,6.947594e-001
1.689408e+003,6.784064e-001
1.693265e+003,6.670096e-001
1.697122e+003,6.569834e-001
1.700979e+003,6.459861e-001
1.704837e+003,6.350197e-001
1.708694e+003,6.290804e-001
1.712551e+003,6.189353e-001
1.716408e+003,6.064882e-001
1.720265e+003,5.998732e-001
1.724122e+003,5.970498e-001
1.727979e+003,5.945775e-001
1.731836e+003,5.884126e-001
1.735693e+003,5.853022e-001
1.739550e+003,5.831956e-001
1.743408e+003,5.822408e-001
1.747265e+003,5.834551e-001
1.751122e+003,5.804110e-001
1.754979e+003,5.800245e-001
1.758836e+003,5.787196e-001
1.762693e+003,5.786195e-001
1.766550e+003,5.816469e-001
1.770407e+003,5.805790e-001
1.774264e+003,5.746574e-001
1.778121e+003,5.711628e-001
1.781979e+003,5.702440e-001
1.785836e+003,5.684053e-001
1.789693e+003,5.686975e-001
1.793550e+003,5.668421e-001
1.797407e+003,5.674194e-001
1.801264e+003,5.666974e-001
1.805121e+003,5.603331e-001
1.808978e+003,5.580252e-001
1.812835e+003,5.565912e-001
1.816692e+003,5.567929e-001
1.820549e+003,5.616245e-001
1.824407e+003,5.638084e-001
1.828264e+003,5.606850e-001
1.832121e+003,5.630246e-001
1.835978e+003,5.656776e-001
1.839835e+003,5.602115e-001
1.843692e+003,5.548832e-001
1.847549e+003,5.528315e-001
1.851406e+003,5.533242e-001
1.855263e+003,5.502595e-001
1.859120e+003,5.453932e-001
1.862978e+003,5.435829e-001
1.866835e+003,5.408156e-001
1.870692e+003,5.372905e-001
1.874549e+003,5.373678e-001
1.878406e+003,5.351350e-001
1.882263e+003,5.328318e-001
1.886120e+003,5.324691e-001
1.889977e+003,5.289023e-001
1.893834e+003,5.287856e-001
1.897691e+003,5.306855e-001
1.901548e+003,5.331295e-001
1.905406e+003,5.330790e-001
1.909263e+003,5.328805e-001
1.913120e+003,5.346592e-001
1.916977e+003,5.362154e-001
1.920834e+003,5.364142e-001
1.924691e+003,5.337520e-001
1.928548e+003,5.262989e-001
1.932405e+003,5.199080e-001
1.936262e+003,5.178291e-001
1.940119e+003,5.187792e-001
1.943977e+003,5.161183e-001
1.947834e+003,5.119468e-001
1.951691e+003,5.082159e-001
1.955548e+003,5.081211e-001
1.959405e+003,5.083589e-001
1.963262e+003,5.035982e-001
1.967119e+003,5.051622e-001
1.970976e+003,5.111905e-001
1.974833e+003,5.092370e-001
1.978690e+003,5.064234e-001
1.982547e+003,5.064728e-001
1.986405e+003,5.068920e-001
1.990262e+003,5.066653e-001
1.994119e+003,5.064715e-001
1.997976e+003,5.071771e-001
2.001833e+003,5.086188e-001
2.005690e+003,5.079435e-001
2.009547e+003,5.029643e-001
2.013404e+003,5.004690e-001
2.017261e+003,5.012965e-001
2.021118e+003,5.010618e-001
2.024976e+003,4.986773e-001
2.028833e+003,4.955848e-001
2.032690e+003,4.948114e-001
2.036547e+003,4.927161e-001
2.040404e+003,4.865811e-001
2.044261e+003,4.840402e-001
2.048118e+003,4.860933e-001
2.051975e+003,4.881983e-001
2.055832e+003,4.869981e-001
2.059689e+003,4.871371e-001
2.063546e+003,4.862402e-001
2.067404e+003,4.818685e-001
2.071261e+003,4.790228e-001
2.075118e+003,4.753920e-001
2.078975e+003,4.790757e-001
2.082832e+003,4.814877e-001
2.086689e+003,4.762761e-001
2.090546e+003,4.752097e-001
2.094403e+003,4.771467e-001
2.098260e+003,4.755006e-001
2.102117e+003,4.755951e-001
2.105975e+003,4.760695e-001
2.109832e+003,4.748443e-001
2.113689e+003,4.741348e-001
2.117546e+003,4.755862e-001
2.121403e+003,4.767031e-001
2.125260e+003,4.797797e-001
2.129117e+003,4.787636e-001
2.132974e+003,4.774879e-001
2.136831e+003,4.787249e-001
2.140688e+003,4.797221e-001
2.144545e+003,4.821465e-001
2.148403e+003,4.828610e-001
2.152260e+003,4.809864e-001
2.156117e+003,4.789651e-001
2.159974e+003,4.774539e-001
2.163831e+003,4.788577e-001
2.167688e+003,4.800328e-001
2.171545e+003,4.755399e-001
2.175402e+003,4.731344e-001
2.179259e+003,4.758914e-001
2.183116e+003,4.746381e-001
2.186974e+003,4.749816e-001
2.190831e+003,4.794845e-001
2.194688e+003,4.799543e-001
2.198545e+003,4.814488e-001
2.202402e+003,4.806134e-001
2.206259e+003,4.800523e-001
2.210116e+003,4.834175e-001
2.213973e+003,4.829707e-001
2.217830e+003,4.819901e-001
2.221688e+003,4.830351e-001
2.225544e+003,4.826149e-001
2.229402e+003,4.845774e-001
2.233259e+003,4.860197e-001
2.237116e+003,4.851350e-001
2.240973e+003,4.857667e-001
2.244830e+003,4.854310e-001
2.248687e+003,4.845128e-001
2.252544e+003,4.865645e-001
2.256401e+003,4.912854e-001
2.260258e+003,4.908601e-001
2.264115e+003,4.877626e-001
2.267973e+003,4.893195e-001
2.271830e+003,4.901090e-001
2.275687e+003,4.872305e-001
2.279544e+003,4.897421e-001
2.283401e+003,4.934063e-001
2.287258e+003,4.917395e-001
2.291115e+003,4.889678e-001
2.294972e+003,4.885124e-001
2.298829e+003,4.895644e-001
2.302687e+003,4.910757e-001
2.306543e+003,4.936933e-001
2.310401e+003,4.950657e-001
2.314258e+003,4.939456e-001
2.318115e+003,4.924920e-001
2.321972e+003,4.953547e-001
2.325829e+003,4.970200e-001
2.329686e+003,4.973969e-001
2.333543e+003,4.989015e-001
2.337400e+003,4.916114e-001
2.341257e+003,4.909434e-001
2.345115e+003,4.936887e-001
2.348972e+003,4.949346e-001
2.352829e+003,4.964047e-001
2.356686e+003,4.962343e-001
2.360543e+003,4.976493e-001
2.364400e+003,4.975305e-001
2.368257e+003,4.987595e-001
2.372114e+003,5.011246e-001
2.375971e+003,4.974389e-001
2.379828e+003,4.948559e-001
2.383686e+003,4.922470e-001
2.387542e+003,4.914811e-001
2.391400e+003,4.908940e-001
2.395257e+003,4.872235e-001
2.399114e+003,4.860252e-001
2.402971e+003,4.884343e-001
2.406828e+003,4.903512e-001
2.410685e+003,4.903163e-001
2.414542e+003,4.903736e-001
2.418399e+003,4.908657e-001
2.422256e+003,4.878771e-001
2.426114e+003,4.847144e-001
2.429971e+003,4.848672e-001
2.433828e+003,4.835545e-001
2.437685e+003,4.830140e-001
2.441542e+003,4.854209e-001
2.445399e+003,4.858868e-001
2.449256e+003,4.825076e-001
2.453113e+003,4.831979e-001
2.456970e+003,4.847128e-001
2.460827e+003,4.819997e-001
2.464684e+003,4.817455e-001
2.468542e+003,4.798229e-001
2.472399e+003,4.797263e-001
2.476256e+003,4.770153e-001
2.480113e+003,4.748685e-001
2.483970e+003,4.754960e-001
2.487827e+003,4.754103e-001
2.491684e+003,4.717176e-001
2.495541e+003,4.706184e-001
2.499398e+003,4.701743e-001
2.503255e+003,4.716611e-001
2.507113e+003,4.759178e-001
2.510969e+003,4.752907e-001
2.514827e+003,4.718297e-001
2.518684e+003,4.701325e-001
2.522541e+003,4.721008e-001
2.526398e+003,4.756239e-001
2.530255e+003,4.772895e-001
2.534112e+003,4.762142e-001
2.537969e+003,4.767779e-001
2.541826e+003,4.830202e-001
2.545683e+003,4.862812e-001
2.549541e+003,4.829262e-001
2.553398e+003,4.814817e-001
2.557255e+003,4.801405e-001
2.561112e+003,4.787893e-001
2.564969e+003,4.807367e-001
2.568826e+003,4.836644e-001
2.572683e+003,4.847741e-001
2.576540e+003,4.868830e-001
2.580397e+003,4.847199e-001
2.584254e+003,4.857882e-001
2.588112e+003,4.876310e-001
2.591969e+003,4.902953e-001
2.595826e+003,4.938334e-001
2.599683e+003,4.987213e-001
2.603540e+003,5.040922e-001
2.607397e+003,5.059807e-001
2.611254e+003,5.053461e-001
2.615111e+003,5.060150e-001
2.618968e+003,5.053996e-001
2.622825e+003,5.021821e-001
2.626682e+003,5.030541e-001
2.630540e+003,5.065244e-001
2.634397e+003,5.083997e-001
2.638254e+003,5.098069e-001
2.642111e+003,5.139833e-001
2.645968e+003,5.156085e-001
2.649825e+003,5.156692e-001
2.653682e+003,5.224346e-001
2.657539e+003,5.272568e-001
2.661396e+003,5.282955e-001
2.665253e+003,5.278106e-001
2.669111e+003,5.274909e-001
2.672968e+003,5.301876e-001
2.676825e+003,5.351154e-001
2.680682e+003,5.352148e-001
2.684539e+003,5.357031e-001
2.688396e+003,5.386466e-001
2.692253e+003,5.395726e-001
2.696110e+003,5.431656e-001
2.699967e+003,5.480503e-001
2.703824e+003,5.524397e-001
2.707681e+003,5.535225e-001
2.711539e+003,5.552392e-001
2.715396e+003,5.588096e-001
2.719253e+003,5.591672e-001
2.723110e+003,5.589447e-001
2.726967e+003,5.648111e-001
2.730824e+003,5.691143e-001
2.734681e+003,5.677297e-001
2.738538e+003,5.660646e-001
2.742395e+003,5.687259e-001
2.746252e+003,5.740689e-001
2.750110e+003,5.799330e-001
2.753967e+003,5.825561e-001
2.757824e+003,5.828585e-001
2.761681e+003,5.926329e-001
2.765538e+003,6.012490e-001
2.769395e+003,6.000855e-001
2.773252e+003,5.975035e-001
2.777109e+003,6.014349e-001
2.780966e+003,6.091061e-001
2.784823e+003,6.135659e-001
2.788680e+003,6.146514e-001
2.792538e+003,6.176490e-001
2.796395e+003,6.246828e-001
2.800252e+003,6.276702e-001
2.804109e+003,6.300299e-001
2.807966e+003,6.324673e-001
2.811823e+003,6.355773e-001
2.815680e+003,6.368429e-001
2.819537e+003,6.415122e-001
2.823394e+003,6.508194e-001
2.827251e+003,6.553491e-001
2.831109e+003,6.577473e-001
2.834966e+003,6.591843e-001
2.838823e+003,6.606216e-001
2.842680e+003,6.703203e-001
2.846537e+003,6.745588e-001
2.850394e+003,6.726555e-001
2.854251e+003,6.753082e-001
2.858108e+003,6.830157e-001
2.861965e+003,6.890807e-001
2.865823e+003,6.899586e-001
2.869679e+003,6.917474e-001
2.873537e+003,6.935661e-001
2.877394e+003,6.982085e-001
2.881251e+003,7.037679e-001
2.885108e+003,7.067779e-001
2.888965e+003,7.078853e-001
2.892822e+003,7.119492e-001
2.896679e+003,7.169896e-001
2.900536e+003,7.254025e-001
2.904393e+003,7.289541e-001
2.908250e+003,7.304125e-001
2.912108e+003,7.339311e-001
2.915965e+003,7.396309e-001
2.919822e+003,7.477960e-001
2.923679e+003,7.478995e-001
2.927536e+003,7.506545e-001
2.931393e+003,7.689745e-001
2.935250e+003,7.821032e-001
2.939107e+003,7.787008e-001
2.942964e+003,7.733415e-001
2.946822e+003,7.714515e-001
2.950678e+003,7.772791e-001
2.954536e+003,7.878461e-001
2.958393e+003,7.940889e-001
2.962250e+003,8.040493e-001
2.966107e+003,8.084593e-001
2.969964e+003,8.041402e-001
2.973821e+003,8.087015e-001
2.977678e+003,8.109408e-001
2.981535e+003,8.119847e-001
2.985392e+003,8.178785e-001
2.989250e+003,8.291521e-001
2.993107e+003,8.342906e-001
2.996964e+003,8.350579e-001
3.000821e+003,8.454443e-001
3.004678e+003,8.569739e-001
3.008535e+003,8.535833e-001
3.012392e+003,8.479871e-001
3.016249e+003,8.555273e-001
3.020106e+003,8.592762e-001
3.023963e+003,8.557757e-001
3.027821e+003,8.656952e-001
3.031677e+003,8.761582e-001
3.035535e+003,8.860938e-001
3.039392e+003,8.857870e-001
3.043249e+003,8.913762e-001
3.047106e+003,9.029713e-001
3.050963e+003,8.986284e-001
3.054820e+003,8.995720e-001
3.058677e+003,9.026604e-001
3.062534e+003,9.131601e-001
3.066391e+003,9.254363e-001
3.070249e+003,9.272786e-001
3.074106e+003,9.303520e-001
3.077963e+003,9.342530e-001
3.081820e+003,9.325901e-001
3.085677e+003,9.352596e-001
3.089534e+003,9.447556e-001
3.093391e+003,9.510045e-001
3.097248e+003,9.616101e-001
3.101105e+003,9.773584e-001
3.104962e+003,9.719586e-001
3.108820e+003,9.691386e-001
3.112677e+003,9.764731e-001
3.116534e+003,9.811425e-001
3.120391e+003,9.888256e-001
3.124248e+003,9.982663e-001
3.128105e+003,1.004578e+000
3.131962e+003,1.006755e+000
3.135819e+003,1.018133e+000
3.139676e+003,1.028592e+000
3.143533e+003,1.025685e+000
3.147390e+003,1.022418e+000
3.151248e+003,1.019459e+000
3.155105e+003,1.015755e+000
3.158962e+003,1.026991e+000
3.162819e+003,1.026565e+000
3.166676e+003,1.028668e+000
3.170533e+003,1.038541e+000
3.174390e+003,1.042668e+000
3.178247e+003,1.054366e+000
3.182104e+003,1.064500e+000
3.185961e+003,1.071969e+000
3.189819e+003,1.075531e+000
3.193676e+003,1.080921e+000
3.197533e+003,1.085459e+000
3.201390e+003,1.084671e+000
3.205247e+003,1.087624e+000
3.209104e+003,1.088608e+000
3.212961e+003,1.091015e+000
3.216818e+003,1.088948e+000
3.220675e+003,1.098529e+000
3.224532e+003,1.102579e+000
3.228389e+003,1.107339e+000
3.232247e+003,1.109594e+000
3.236104e+003,1.114295e+000
3.239961e+003,1.117614e+000
3.243818e+003,1.124452e+000
3.247675e+003,1.125573e+000
3.251532e+003,1.120437e+000
3.255389e+003,1.123622e+000
3.259246e+003,1.130630e+000
3.263103e+003,1.125597e+000
3.266960e+003,1.120238e+000
3.270818e+003,1.137727e+000
3.274675e+003,1.147389e+000
3.278532e+003,1.157138e+000
3.282389e+003,1.154350e+000
3.286246e+003,1.146710e+000
3.290103e+003,1.161521e+000
3.293960e+003,1.160327e+000
3.297817e+003,1.154926e+000
3.301674e+003,1.164248e+000
3.305531e+003,1.151383e+000
3.309388e+003,1.160554e+000
3.313246e+003,1.172486e+000
3.317103e+003,1.164248e+000
3.320960e+003,1.143730e+000
3.324817e+003,1.141178e+000
3.328674e+003,1.168833e+000
3.332531e+003,1.182525e+000
3.336388e+003,1.191418e+000
3.340245e+003,1.193188e+000
3.344102e+003,1.193739e+000
3.347959e+003,1.188070e+000
3.351817e+003,1.193260e+000
3.355674e+003,1.205211e+000
3.359531e+003,1.208963e+000
3.363388e+003,1.212697e+000
3.367245e+003,1.215789e+000
3.371102e+003,1.203918e+000
3.374959e+003,1.199660e+000
3.378816e+003,1.205585e+000
3.382673e+003,1.201650e+000
3.386530e+003,1.200234e+000
3.390387e+003,1.205105e+000
3.394245e+003,1.215221e+000
3.398102e+003,1.224665e+000
3.401959e+003,1.223670e+000
3.405816e+003,1.218447e+000
3.409673e+003,1.206804e+000
3.413530e+003,1.208531e+000
3.417387e+003,1.210685e+000
3.421244e+003,1.223062e+000
3.425101e+003,1.239712e+000
3.428958e+003,1.244840e+000
3.432815e+003,1.243631e+000
3.436673e+003,1.241330e+000
3.440530e+003,1.242514e+000
3.444387e+003,1.258080e+000
3.448244e+003,1.263642e+000
3.452101e+003,1.251921e+000
3.455958e+003,1.273520e+000
3.459815e+003,1.285648e+000
3.463672e+003,1.254082e+000
3.467529e+003,1.243680e+000
3.471386e+003,1.220337e+000
3.475244e+003,1.225926e+000
3.479101e+003,1.250898e+000
3.482958e+003,1.243430e+000
3.486815e+003,1.251904e+000
3.490672e+003,1.248300e+000
3.494529e+003,1.234497e+000
3.498386e+003,1.251012e+000
3.502243e+003,1.258045e+000
3.506100e+003,1.243357e+000
3.509958e+003,1.251839e+000
3.513814e+003,1.268546e+000
3.517672e+003,1.250252e+000
3.521529e+003,1.245334e+000
3.525386e+003,1.264258e+000
3.529243e+003,1.261064e+000
3.533100e+003,1.242852e+000
3.536957e+003,1.236595e+000
3.540814e+003,1.238699e+000
3.544671e+003,1.230612e+000
3.548528e+003,1.233168e+000
3.552385e+003,1.253513e+000
3.556243e+003,1.244122e+000
3.560100e+003,1.228010e+000
3.563957e+003,1.225831e+000
3.567814e+003,1.221990e+000
3.571671e+003,1.213416e+000
3.575528e+003,1.204754e+000
3.579385e+003,1.204206e+000
3.583242e+003,1.207765e+000
3.587099e+003,1.204868e+000
3.590957e+003,1.186534e+000
3.594813e+003,1.174273e+000
3.598671e+003,1.163492e+000
3.602528e+003,1.143093e+000
3.606385e+003,1.128281e+000
3.610242e+003,1.115744e+000
3.614099e+003,1.078811e+000
3.617956e+003,1.033671e+000
3.621813e+003,1.008421e+000
3.625670e+003,9.769925e-001
3.629527e+003,9.339945e-001
3.633385e+003,8.977388e-001
3.637242e+003,8.599624e-001
3.641099e+003,8.139467e-001
3.644956e+003,7.652640e-001
3.648813e+003,7.181334e-001
3.652670e+003,6.739579e-001
3.656527e+003,6.284559e-001
3.660384e+003,5.858697e-001
3.664241e+003,5.494004e-001
3.668098e+003,5.173988e-001
3.671956e+003,4.892424e-001
3.675813e+003,4.637099e-001
3.679670e+003,4.421470e-001
3.683527e+003,4.195042e-001
3.687384e+003,4.017752e-001
3.691241e+003,3.913120e-001
3.695098e+003,3.827058e-001
3.698955e+003,3.721758e-001
3.702812e+003,3.615116e-001
3.706669e+003,3.512963e-001
3.710526e+003,3.426629e-001
3.714384e+003,3.370853e-001
3.718241e+003,3.307437e-001
3.722098e+003,3.261583e-001
3.725955e+003,3.215363e-001
3.729812e+003,3.164527e-001
3.733669e+003,3.128685e-001
3.737526e+003,3.101326e-001
3.741383e+003,3.058339e-001
3.745240e+003,3.053817e-001
3.749097e+003,3.055357e-001
3.752955e+003,3.037466e-001
3.756812e+003,3.038637e-001
3.760669e+003,3.045752e-001
3.764526e+003,3.016205e-001
3.768383e+003,2.971046e-001
3.772240e+003,2.950140e-001
3.776097e+003,2.951885e-001
3.779954e+003,2.953768e-001
3.783811e+003,2.939003e-001
3.787668e+003,2.928444e-001
3.791525e+003,2.921616e-001
3.795383e+003,2.915092e-001
3.799240e+003,2.898222e-001
3.803097e+003,2.876734e-001
3.806954e+003,2.894771e-001
3.810811e+003,2.900545e-001
3.814668e+003,2.875827e-001
3.818525e+003,2.864141e-001
3.822382e+003,2.836845e-001
3.826239e+003,2.805688e-001
3.830096e+003,2.836660e-001
3.833954e+003,2.874300e-001
3.837811e+003,2.877268e-001
3.841668e+003,2.862811e-001
3.845525e+003,2.866336e-001
3.849382e+003,2.905451e-001
3.853239e+003,2.904964e-001
3.857096e+003,2.876615e-001
3.860953e+003,2.860236e-001
3.864810e+003,2.861842e-001
3.868667e+003,2.862116e-001
3.872524e+003,2.850496e-001
3.876382e+003,2.857864e-001
3.880239e+003,2.846520e-001
3.884096e+003,2.817802e-001
3.887953e+003,2.812074e-001
3.891810e+003,2.812489e-001
3.895667e+003,2.806256e-001
3.899524e+003,2.797879e-001
3.903381e+003,2.807643e-001
3.907238e+003,2.824864e-001
3.911095e+003,2.813403e-001
3.914953e+003,2.794789e-001
3.918810e+003,2.830664e-001
3.922667e+003,2.856094e-001
3.926524e+003,2.848361e-001
3.930381e+003,2.821585e-001
3.934238e+003,2.815799e-001
3.938095e+003,2.848922e-001
3.941952e+003,2.838697e-001
3.945809e+003,2.835621e-001
3.949667e+003,2.861230e-001
3.953523e+003,2.887316e-001
3.957381e+003,2.862599e-001
3.961238e+003,2.831444e-001
3.965095e+003,2.861270e-001
3.968952e+003,2.827234e-001
3.972809e+003,2.777961e-001
3.976666e+003,2.794260e-001
3.980523e+003,2.784955e-001
3.984380e+003,2.778562e-001
3.988237e+003,2.793333e-001
3.992094e+003,2.811688e-001
3.995952e+003,2.828832e-001
3.999809e+003,2.841210e-001
4.003666e+003,2.829554e-001
4.007523e+003,2.802201e-001
4.011380e+003,2.796134e-001
4.015237e+003,2.794486e-001
4.019094e+003,2.808561e-001
4.022951e+003,2.780795e-001
4.026808e+003,2.740707e-001
4.030666e+003,2.726589e-001
4.034522e+003,2.730616e-001
4.038380e+003,2.765437e-001
4.042237e+003,2.762319e-001
4.046094e+003,2.759677e-001
4.049951e+003,2.773694e-001
4.053808e+003,2.771469e-001
4.057665e+003,2.754323e-001
4.061522e+003,2.754084e-001
4.065379e+003,2.779759e-001
4.069236e+003,2.729464e-001
4.073094e+003,2.700396e-001
4.076951e+003,2.777341e-001
4.080808e+003,2.807167e-001
4.084665e+003,2.797352e-001
4.088522e+003,2.778768e-001
4.092379e+003,2.769342e-001
4.096236e+003,2.752100e-001
4.100093e+003,2.751780e-001
4.103950e+003,2.756139e-001
4.107808e+003,2.765080e-001
4.111665e+003,2.770274e-001
4.115521e+003,2.721473e-001
4.119379e+003,2.689839e-001
4.123236e+003,2.696552e-001
4.127093e+003,2.721859e-001
4.130950e+003,2.721936e-001
4.134807e+003,2.717392e-001
4.138664e+003,2.697831e-001
4.142521e+003,2.693141e-001
4.146378e+003,2.702245e-001
4.150235e+003,2.719981e-001
4.154093e+003,2.753035e-001
4.157950e+003,2.771086e-001
4.161807e+003,2.766353e-001
4.165664e+003,2.745922e-001
4.169521e+003,2.744159e-001
4.173378e+003,2.724801e-001
4.177235e+003,2.699690e-001
4.181092e+003,2.701298e-001
4.184949e+003,2.724321e-001
4.188807e+003,2.721559e-001
4.192664e+003,2.746467e-001
4.196521e+003,2.736582e-001
4.200378e+003,2.678719e-001
4.204235e+003,2.675210e-001
4.208092e+003,2.679394e-001
4.211949e+003,2.685030e-001
4.215806e+003,2.659788e-001
4.219663e+003,2.705791e-001
4.223521e+003,2.741489e-001
4.227377e+003,2.722044e-001
4.231234e+003,2.715902e-001
4.235092e+003,2.731843e-001
4.238949e+003,2.731780e-001
4.242806e+003,2.720596e-001
4.246663e+003,2.677177e-001
4.250520e+003,2.688292e-001
4.254377e+003,2.741912e-001
4.258234e+003,2.734669e-001
4.262091e+003,2.721485e-001
4.265948e+003,2.762379e-001
4.269806e+003,2.756292e-001
4.273663e+003,2.751868e-001
4.277520e+003,2.741436e-001
4.281377e+003,2.719647e-001
4.285234e+003,2.731203e-001
4.289091e+003,2.739518e-001
4.292948e+003,2.743331e-001
4.296805e+003,2.721383e-001
4.300662e+003,2.685539e-001
4.304520e+003,2.707500e-001
4.308376e+003,2.750412e-001
4.312233e+003,2.732201e-001
4.316091e+003,2.697917e-001
4.319948e+003,2.733546e-001
4.323805e+003,2.767691e-001
4.327662e+003,2.777439e-001
4.331519e+003,2.761472e-001
4.335376e+003,2.783136e-001
4.339233e+003,2.779700e-001
4.343090e+003,2.699223e-001
4.346947e+003,2.679840e-001
4.350805e+003,2.733494e-001
4.354662e+003,2.743025e-001
4.358519e+003,2.770947e-001
4.362376e+003,2.825567e-001
4.366233e+003,2.814962e-001
4.370090e+003,2.765481e-001
4.373947e+003,2.772235e-001
4.377804e+003,2.787100e-001
4.381661e+003,2.763935e-001
4.385519e+003,2.779984e-001
4.389375e+003,2.779184e-001
4.393232e+003,2.771976e-001
4.397090e+003,2.803129e-001
4.400947e+003,2.835812e-001
4.404804e+003,2.825403e-001
4.408661e+003,2.768560e-001
4.412518e+003,2.754979e-001
4.416375e+003,2.803504e-001
4.420232e+003,2.818350e-001
4.424089e+003,2.787617e-001
4.427946e+003,2.801496e-001
4.431804e+003,2.790192e-001
4.435661e+003,2.788562e-001
4.439518e+003,2.824095e-001
4.443375e+003,2.816442e-001
4.447232e+003,2.804065e-001
4.451089e+003,2.794104e-001
4.454946e+003,2.823589e-001
4.458803e+003,2.853043e-001
4.462660e+003,2.861124e-001
4.466518e+003,2.863941e-001
4.470375e+003,2.868611e-001
4.474231e+003,2.876959e-001
4.478089e+003,2.851395e-001
4.481946e+003,2.793986e-001
4.485803e+003,2.785459e-001
4.489660e+003,2.780052e-001
4.493517e+003,2.821746e-001
4.497375e+003,2.845615e-001
4.501231e+003,2.861174e-001
4.505088e+003,2.896779e-001
4.508946e+003,2.912809e-001
4.512803e+003,2.912013e-001
4.516660e+003,2.920258e-001
4.520517e+003,2.913823e-001
4.524374e+003,2.868406e-001
4.528231e+003,2.848092e-001
4.532088e+003,2.841653e-001
4.535945e+003,2.809828e-001
4.539802e+003,2.808220e-001
4.543660e+003,2.849841e-001
4.547517e+003,2.887673e-001
4.551374e+003,2.894482e-001
4.555231e+003,2.889285e-001
4.559088e+003,2.869220e-001
4.562945e+003,2.873965e-001
4.566802e+003,2.873133e-001
4.570659e+003,2.933713e-001
4.574516e+003,2.957011e-001
4.578374e+003,2.890536e-001
4.582230e+003,2.859041e-001
4.586087e+003,2.840742e-001
4.589945e+003,2.860815e-001
4.593802e+003,2.905140e-001
4.597659e+003,2.927938e-001
4.601516e+003,2.909692e-001
4.605373e+003,2.844546e-001
4.609230e+003,2.847574e-001
4.613087e+003,2.905212e-001
4.616944e+003,2.931435e-001
4.620801e+003,2.863709e-001
4.624659e+003,2.834816e-001
4.628516e+003,2.830914e-001
4.632373e+003,2.794723e-001
4.636230e+003,2.817032e-001
4.640087e+003,2.847583e-001
4.643944e+003,2.881069e-001
4.647801e+003,2.885999e-001
4.651658e+003,2.856100e-001
4.655515e+003,2.851634e-001
4.659373e+003,2.894109e-001
4.663229e+003,2.933826e-001
4.667086e+003,2.905607e-001
4.670944e+003,2.936152e-001
4.674801e+003,2.985722e-001
4.678658e+003,2.891497e-001
4.682515e+003,2.839565e-001
4.686372e+003,2.899735e-001
4.690229e+003,2.910448e-001
4.694086e+003,2.861795e-001
4.697943e+003,2.880542e-001
4.701800e+003,2.858776e-001
4.705658e+003,2.866838e-001
4.709515e+003,2.912067e-001
4.713372e+003,2.865316e-001
4.717229e+003,2.845779e-001
4.721086e+003,2.872993e-001
4.724943e+003,2.844895e-001
4.728800e+003,2.814200e-001
4.732657e+003,2.851252e-001
4.736514e+003,2.885838e-001
4.740372e+003,2.937728e-001
4.744229e+003,3.014326e-001
4.748085e+003,2.973732e-001
4.751943e+003,2.928861e-001
4.755800e+003,2.904361e-001
4.759657e+003,2.912129e-001
4.763514e+003,2.939129e-001
4.767371e+003,2.953755e-001
4.771228e+003,3.004278e-001
4.775085e+003,3.011265e-001
4.778942e+003,3.019711e-001
4.782799e+003,2.961023e-001
4.786657e+003,2.907216e-001
4.790514e+003,2.952207e-001
4.794371e+003,3.019469e-001
4.798228e+003,3.062602e-001
4.802085e+003,3.030517e-001
4.805942e+003,2.951084e-001
4.809799e+003,2.933225e-001
4.813656e+003,2.973698e-001
4.817513e+003,3.034166e-001
4.821371e+003,3.021854e-001
4.825228e+003,2.985709e-001
4.829084e+003,2.952787e-001
4.832942e+003,2.968011e-001
4.836799e+003,3.016868e-001
4.840656e+003,3.043962e-001
4.844513e+003,3.022194e-001
4.848370e+003,2.978720e-001
4.852227e+003,2.915592e-001
4.856084e+003,2.872816e-001
4.859941e+003,2.894350e-001
4.863798e+003,2.935622e-001
4.867656e+003,2.978965e-001
4.871513e+003,2.965741e-001
4.875370e+003,2.915927e-001
4.879227e+003,2.893615e-001
4.883084e+003,2.987198e-001
4.886941e+003,3.014646e-001
4.890798e+003,2.927020e-001
4.894655e+003,2.954887e-001
4.898512e+003,2.993425e-001
4.902370e+003,2.996590e-001
4.906227e+003,2.966188e-001
4.910083e+003,2.993106e-001
4.913941e+003,3.058282e-001
4.917798e+003,3.033758e-001
4.921655e+003,3.028606e-001
4.925512e+003,3.038406e-001
4.929369e+003,3.058880e-001
4.933226e+003,3.038376e-001
4.937083e+003,3.027785e-001
4.940940e+003,3.033524e-001
4.944797e+003,3.060441e-001
4.948655e+003,3.116030e-001
4.952512e+003,3.078939e-001
4.956369e+003,3.026463e-001
4.960226e+003,3.018217e-001
4.964083e+003,3.065936e-001
4.967940e+003,3.090973e-001
4.971797e+003,3.089291e-001
4.975654e+003,3.089200e-001
4.979511e+003,3.068251e-001
4.983369e+003,3.072588e-001
4.987226e+003,3.118003e-001
4.991083e+003,3.166217e-001
4.994940e+003,3.136452e-001
4.998797e+003,3.133835e-001
5.002654e+003,3.168218e-001
5.006511e+003,3.141986e-001
5.010368e+003,3.167244e-001
5.014225e+003,3.167953e-001
5.018083e+003,3.193800e-001
5.021939e+003,3.142249e-001
5.025796e+003,3.090841e-001
5.029654e+003,3.141232e-001
5.033511e+003,3.157583e-001
5.037368e+003,3.138345e-001
5.041225e+003,3.063383e-001
5.045082e+003,3.091161e-001
5.048939e+003,3.145440e-001
5.052796e+003,3.136722e-001
5.056653e+003,3.160583e-001
5.060510e+003,3.225483e-001
5.064368e+003,3.225850e-001
5.068225e+003,3.157351e-001
5.072082e+003,3.189972e-001
5.075939e+003,3.249056e-001
5.079796e+003,3.217050e-001
5.083653e+003,3.200068e-001
5.087510e+003,3.236471e-001
5.091367e+003,3.245037e-001
5.095224e+003,3.250533e-001
5.099082e+003,3.250311e-001
5.102938e+003,3.172543e-001
5.106795e+003,3.153965e-001
5.110653e+003,3.230247e-001
5.114510e+003,3.264585e-001
5.118367e+003,3.257725e-001
5.122224e+003,3.201814e-001
5.126081e+003,3.185716e-001
5.129938e+003,3.183169e-001
5.133795e+003,3.185564e-001
5.137652e+003,3.241261e-001
5.141509e+003,3.214353e-001
5.145367e+003,3.217924e-001
5.149224e+003,3.243173e-001
5.153081e+003,3.267126e-001
5.156938e+003,3.301367e-001
5.160795e+003,3.345235e-001
5.164652e+003,3.286081e-001
5.168509e+003,3.244856e-001
5.172366e+003,3.270423e-001
5.176223e+003,3.276796e-001
5.180081e+003,3.287671e-001
5.183938e+003,3.263484e-001
5.187794e+003,3.242863e-001
5.191652e+003,3.267973e-001
5.195509e+003,3.268986e-001
5.199366e+003,3.291825e-001
5.203223e+003,3.295154e-001
5.207080e+003,3.262684e-001
5.210937e+003,3.222448e-001
5.214794e+003,3.178002e-001
5.218651e+003,3.152580e-001
5.222508e+003,3.201551e-001
5.226366e+003,3.260351e-001
5.230223e+003,3.316344e-001
5.234080e+003,3.307454e-001
5.237937e+003,3.244896e-001
5.241794e+003,3.257922e-001
5.245651e+003,3.254870e-001
5.249508e+003,3.221727e-001
5.253365e+003,3.255022e-001
5.257222e+003,3.325215e-001
5.261080e+003,3.260356e-001
5.264937e+003,3.221918e-001
5.268793e+003,3.218375e-001
5.272651e+003,3.213624e-001
5.276508e+003,3.232324e-001
5.280365e+003,3.235415e-001
5.284222e+003,3.225349e-001
5.288079e+003,3.234721e-001
5.291936e+003,3.228505e-001
5.295793e+003,3.195461e-001
5.299650e+003,3.204318e-001
5.303507e+003,3.206338e-001
5.307365e+003,3.228605e-001
5.311222e+003,3.322748e-001
5.315079e+003,3.358060e-001
5.318936e+003,3.279770e-001
5.322793e+003,3.223096e-001
5.326650e+003,3.253400e-001
5.330507e+003,3.293652e-001
5.334364e+003,3.281771e-001
5.338221e+003,3.292459e-001
5.342079e+003,3.325907e-001
5.345936e+003,3.250847e-001
5.349792e+003,3.226020e-001
5.353650e+003,3.240920e-001
5.357507e+003,3.214726e-001
5.361364e+003,3.192272e-001
5.365221e+003,3.268971e-001
5.369078e+003,3.343649e-001
5.372935e+003,3.264844e-001
5.376792e+003,3.219737e-001
5.380649e+003,3.276229e-001
5.384506e+003,3.250396e-001
5.388364e+003,3.193062e-001
5.392221e+003,3.210394e-001
5.396078e+003,3.185116e-001
5.399935e+003,3.195289e-001
5.403792e+003,3.266212e-001
5.407649e+003,3.243259e-001
5.411506e+003,3.287491e-001
5.415363e+003,3.333132e-001
5.419220e+003,3.237238e-001
5.423078e+003,3.278958e-001
5.426935e+003,3.281741e-001
5.430792e+003,3.176454e-001
5.434649e+003,3.215381e-001
5.438506e+003,3.282458e-001
5.442363e+003,3.261281e-001
5.446220e+003,3.273314e-001
5.450077e+003,3.227931e-001
5.453934e+003,3.167803e-001
5.457792e+003,3.222660e-001
5.461648e+003,3.244936e-001
5.465505e+003,3.243011e-001
5.469363e+003,3.209702e-001
5.473220e+003,3.203008e-001
5.477077e+003,3.184393e-001
5.480934e+003,3.176454e-001
5.484791e+003,3.186484e-001
5.488648e+003,3.236817e-001
5.492505e+003,3.293485e-001
5.496362e+003,3.280484e-001
5.500219e+003,3.257888e-001
5.504077e+003,3.256359e-001
5.507934e+003,3.236795e-001
5.511791e+003,3.173186e-001
5.515648e+003,3.230700e-001
5.519505e+003,3.334880e-001
5.523362e+003,3.305802e-001
5.527219e+003,3.272617e-001
5.531076e+003,3.294181e-001
5.534933e+003,3.253866e-001
5.538791e+003,3.225587e-001
5.542647e+003,3.262699e-001
5.546504e+003,3.283079e-001
5.550362e+003,3.289957e-001
5.554219e+003,3.230798e-001
5.558076e+003,3.214846e-001
5.561933e+003,3.261734e-001
5.565790e+003,3.213498e-001
5.569647e+003,3.196783e-001
5.573504e+003,3.245487e-001
5.577361e+003,3.329512e-001
5.581218e+003,3.368312e-001
5.585076e+003,3.387865e-001
5.588933e+003,3.365068e-001
5.592790e+003,3.258339e-001
5.596647e+003,3.252046e-001
5.600504e+003,3.241925e-001
5.604361e+003,3.212177e-001
5.608218e+003,3.197497e-001
5.612075e+003,3.251920e-001
5.615932e+003,3.318872e-001
5.619790e+003,3.343471e-001
5.623646e+003,3.320106e-001
5.627503e+003,3.230527e-001
5.631361e+003,3.224560e-001
5.635218e+003,3.276203e-001
5.639075e+003,3.195713e-001
5.642932e+003,3.197516e-001
5.646789e+003,3.328685e-001
5.650646e+003,3.378962e-001
5.654503e+003,3.372160e-001
5.658360e+003,3.337856e-001
5.662217e+003,3.366935e-001
5.666075e+003,3.382671e-001
5.669932e+003,3.304430e-001
5.673789e+003,3.312069e-001
5.677646e+003,3.359289e-001
5.681503e+003,3.293750e-001
5.685360e+003,3.353056e-001
5.689217e+003,3.442234e-001
5.693074e+003,3.454776e-001
5.696931e+003,3.365382e-001
5.700789e+003,3.308633e-001
5.704646e+003,3.363009e-001
5.708502e+003,3.382080e-001
5.712360e+003,3.340761e-001
5.716217e+003,3.310139e-001
5.720074e+003,3.269109e-001
5.723931e+003,3.235300e-001
5.727788e+003,3.288731e-001
5.731645e+003,3.273185e-001
5.735502e+003,3.205308e-001
5.739359e+003,3.224376e-001
5.743216e+003,3.307979e-001
5.747074e+003,3.346812e-001
5.750931e+003,3.334634e-001
5.754788e+003,3.330585e-001
5.758645e+003,3.236264e-001
5.762502e+003,3.240559e-001
5.766359e+003,3.211130e-001
5.770216e+003,3.196894e-001
5.774073e+003,3.297512e-001
5.777930e+003,3.403952e-001
5.781788e+003,3.322615e-001
5.785645e+003,3.291706e-001
5.789501e+003,3.200217e-001
5.793359e+003,3.121307e-001
5.797216e+003,3.202798e-001
5.801073e+003,3.265681e-001
5.804930e+003,3.290160e-001
5.808787e+003,3.303180e-001
5.812644e+003,3.298307e-001
5.816501e+003,3.291779e-001
5.820358e+003,3.226868e-001
5.824215e+003,3.173868e-001
5.828073e+003,3.157660e-001
5.831930e+003,3.203800e-001
5.835787e+003,3.262273e-001
5.839644e+003,3.310941e-001
5.843501e+003,3.387494e-001
5.847358e+003,3.361245e-001
5.851215e+003,3.385246e-001
5.855072e+003,3.305818e-001
5.858929e+003,3.187997e-001
5.862787e+003,3.247138e-001
5.866644e+003,3.204829e-001
5.870500e+003,3.120917e-001
5.874358e+003,3.169785e-001
5.878215e+003,3.200502e-001
5.882072e+003,3.173682e-001
5.885929e+003,3.122110e-001
5.889786e+003,3.111097e-001
5.893643e+003,3.271443e-001
5.897500e+003,3.405758e-001
5.901357e+003,3.290632e-001
5.905214e+003,3.199515e-001
5.909072e+003,3.335963e-001
5.912929e+003,3.372730e-001
5.916786e+003,3.249682e-001
5.920643e+003,3.217116e-001
5.924500e+003,3.280205e-001
5.928357e+003,3.289574e-001
5.932214e+003,3.255735e-001
5.936071e+003,3.223936e-001
5.939928e+003,3.242966e-001
5.943786e+003,3.305587e-001
5.947643e+003,3.291464e-001
5.951500e+003,3.308391e-001
5.955357e+003,3.305444e-001
5.959214e+003,3.234696e-001
5.963071e+003,3.182791e-001
5.966928e+003,3.153827e-001
5.970785e+003,3.183869e-001
5.974642e+003,3.236867e-001
5.978500e+003,3.250977e-001
5.982356e+003,3.327171e-001
5.986213e+003,3.381456e-001
5.990071e+003,3.257002e-001
5.993928e+003,3.173033e-001
5.997785e+003,3.136189e-001
6.001642e+003,3.048390e-001
6.005499e+003,3.085539e-001
6.009356e+003,3.131489e-001
6.013213e+003,3.079506e-001
6.017070e+003,3.125290e-001
6.020927e+003,3.082101e-001
6.024785e+003,3.079198e-001
6.028642e+003,3.135920e-001
6.032499e+003,3.202140e-001
6.036356e+003,3.237982e-001
6.040213e+003,3.188363e-001
6.044070e+003,3.148746e-001
6.047927e+003,3.162619e-001
6.051784e+003,3.172656e-001
6.055641e+003,3.242967e-001
6.059499e+003,3.283409e-001
6.063355e+003,3.246337e-001
6.067212e+003,3.287130e-001
6.071070e+003,3.355984e-001
6.074927e+003,3.320155e-001
6.078784e+003,3.235621e-001
6.082641e+003,3.113683e-001
6.086498e+003,3.131286e-001
6.090355e+003,3.205612e-001
6.094212e+003,3.173893e-001
6.098069e+003,3.158474e-001
6.101926e+003,3.120640e-001
6.105784e+003,3.165253e-001
6.109641e+003,3.187445e-001
6.113498e+003,3.157724e-001
6.117355e+003,3.205756e-001
6.121212e+003,3.305139e-001
6.125069e+003,3.320598e-001
6.128926e+003,3.185210e-001
6.132783e+003,3.139775e-001
6.136640e+003,3.176468e-001
6.140498e+003,3.190508e-001
6.144354e+003,3.099776e-001
6.148211e+003,3.040142e-001
6.152069e+003,3.073772e-001
6.155926e+003,3.142468e-001
6.159783e+003,3.027184e-001
6.163640e+003,2.947064e-001
6.167497e+003,3.045446e-001
6.171354e+003,3.230686e-001
6.175211e+003,3.233951e-001
6.179068e+003,3.127284e-001
6.182925e+003,3.112050e-001
6.186783e+003,3.116559e-001
6.190640e+003,3.054489e-001
6.194497e+003,3.005415e-001
6.198354e+003,3.000580e-001
6.202211e+003,3.063932e-001
6.206068e+003,3.159999e-001
6.209925e+003,3.179923e-001
6.213782e+003,3.256591e-001
6.217639e+003,3.345499e-001
6.221497e+003,3.218081e-001
6.225354e+003,3.108810e-001
6.229210e+003,3.185219e-001
6.233068e+003,3.156915e-001
6.236925e+003,3.180921e-001
6.240782e+003,3.179445e-001
6.244639e+003,3.090575e-001
6.248496e+003,3.088359e-001
6.252353e+003,3.124660e-001
6.256210e+003,3.069323e-001
6.260067e+003,3.116716e-001
6.263924e+003,3.208675e-001
6.267782e+003,3.238722e-001
6.271639e+003,3.127100e-001
6.275496e+003,3.059919e-001
6.279353e+003,3.063481e-001
6.283210e+003,3.090445e-001
6.287067e+003,3.173381e-001
6.290924e+003,3.254218e-001
6.294781e+003,3.305318e-001
6.298638e+003,3.265007e-001
6.302496e+003,3.233700e-001
6.306353e+003,3.218212e-001
6.310209e+003,3.167544e-001
6.314067e+003,3.126571e-001
6.317924e+003,3.130720e-001
6.321781e+003,3.182498e-001
6.325638e+003,3.224618e-001
6.329495e+003,3.152002e-001
6.333352e+003,3.097243e-001
6.337209e+003,2.943952e-001
6.341066e+003,2.863255e-001
6.344923e+003,3.026786e-001
6.348780e+003,3.071033e-001
6.352638e+003,3.048028e-001
6.356495e+003,3.106444e-001
6.360352e+003,3.051739e-001
6.364209e+003,2.957828e-001
6.368066e+003,2.920219e-001
6.371923e+003,3.030325e-001
6.375780e+003,3.134078e-001
6.379637e+003,3.094361e-001
6.383494e+003,3.092913e-001
6.387352e+003,3.079129e-001
6.391208e+003,2.987393e-001
6.395065e+003,3.097809e-001
6.398923e+003,3.138279e-001
6.402780e+003,3.015346e-001
6.406637e+003,2.922842e-001
6.410494e+003,2.955195e-001
6.414351e+003,3.010119e-001
6.418208e+003,3.182268e-001
6.422065e+003,3.149179e-001
6.425922e+003,3.050101e-001
6.429779e+003,3.038665e-001
6.433637e+003,3.075337e-001
6.437494e+003,3.077755e-001
6.441351e+003,3.035392e-001
6.445208e+003,3.032357e-001
6.449065e+003,2.992703e-001
6.452922e+003,2.986523e-001
6.456779e+003,3.101802e-001
6.460636e+003,3.234569e-001
6.464493e+003,3.256928e-001
6.468351e+003,3.156531e-001
6.472208e+003,3.111915e-001
6.476064e+003,3.071863e-001
6.479922e+003,2.909971e-001
6.483779e+003,2.855240e-001
6.487636e+003,2.903977e-001
6.491493e+003,2.894966e-001
6.495350e+003,2.909173e-001
6.499207e+003,2.836566e-001
6.503064e+003,2.836891e-001
6.506921e+003,3.020428e-001
6.510778e+003,3.039675e-001
6.514636e+003,2.984098e-001
6.518493e+003,3.071627e-001
6.522350e+003,3.063054e-001
6.526207e+003,2.865348e-001
6.530064e+003,3.061263e-001
6.533921e+003,3.192702e-001
6.537778e+003,3.201364e-001
6.541635e+003,3.093694e-001
6.545492e+003,2.981320e-001
6.549350e+003,2.972741e-001
6.553207e+003,2.966915e-001
6.557063e+003,2.794856e-001
6.560921e+003,2.778300e-001
6.564778e+003,2.860445e-001
6.568635e+003,2.930511e-001
6.572492e+003,3.132263e-001
6.576349e+003,3.151601e-001
6.580206e+003,2.981219e-001
6.584063e+003,2.932302e-001
6.587920e+003,3.003159e-001
6.591777e+003,2.923776e-001
6.595635e+003,2.794948e-001
6.599492e+003,2.830067e-001
6.603349e+003,2.870396e-001
6.607206e+003,2.873816e-001
6.611063e+003,3.014154e-001
6.614920e+003,3.090925e-001
6.618777e+003,3.079355e-001
6.622634e+003,3.111126e-001
6.626491e+003,3.024765e-001
6.630349e+003,3.053614e-001
6.634206e+003,2.913437e-001
6.638063e+003,2.707535e-001
6.641920e+003,2.772448e-001
6.645777e+003,2.847152e-001
6.649634e+003,2.833103e-001
6.653491e+003,2.993462e-001
6.657348e+003,3.088584e-001
6.661205e+003,3.045746e-001
6.665063e+003,2.957296e-001
6.668919e+003,2.810335e-001
6.672776e+003,2.939965e-001
6.676634e+003,3.031096e-001
6.680491e+003,3.038518e-001
6.684348e+003,2.959355e-001
6.688205e+003,2.834779e-001
6.692062e+003,2.886184e-001
6.695919e+003,2.970897e-001
6.699776e+003,2.960486e-001
6.703633e+003,2.873036e-001
6.707490e+003,2.807852e-001
6.711348e+003,2.866619e-001
6.715205e+003,2.946832e-001
6.719062e+003,3.144425e-001
6.722919e+003,3.152512e-001
6.726776e+003,3.039042e-001
6.730633e+003,3.060179e-001
6.734490e+003,2.984377e-001
6.738347e+003,2.786719e-001
6.742204e+003,2.775280e-001
6.746062e+003,2.864318e-001
6.749918e+003,2.877017e-001
6.753775e+003,2.824575e-001
6.757633e+003,2.938721e-001
6.761490e+003,3.026321e-001
6.765347e+003,2.980557e-001
6.769204e+003,2.949262e-001
6.773061e+003,2.932198e-001
6.776918e+003,2.871478e-001
6.780775e+003,2.920768e-001
6.784632e+003,2.875385e-001
6.788489e+003,2.821467e-001
6.792347e+003,2.973644e-001
6.796204e+003,3.094240e-001
6.800061e+003,3.050726e-001
6.803918e+003,3.027472e-001
6.807775e+003,3.016580e-001
6.811632e+003,2.902763e-001
6.815489e+003,2.757111e-001
6.819346e+003,2.737294e-001
6.823203e+003,2.686673e-001
6.827061e+003,2.862125e-001
6.830917e+003,3.080046e-001
6.834774e+003,2.986364e-001
6.838632e+003,3.048766e-001
6.842489e+003,3.137830e-001
6.846346e+003,3.011993e-001
6.850203e+003,2.909920e-001
6.854060e+003,2.719385e-001
6.857917e+003,2.730342e-001
6.861774e+003,2.832215e-001
6.865631e+003,2.846262e-001
6.869488e+003,2.982988e-001
6.873346e+003,3.123367e-001
6.877203e+003,3.063951e-001
6.881060e+003,2.938955e-001
6.884917e+003,3.020256e-001
6.888774e+003,3.042909e-001
6.892631e+003,2.984019e-001
6.896488e+003,2.986604e-001
6.900345e+003,2.857879e-001
6.904202e+003,2.693663e-001
6.908060e+003,2.697352e-001
6.911917e+003,2.991289e-001
6.915773e+003,2.840582e-001
6.919631e+003,2.695180e-001
6.923488e+003,2.782345e-001
6.927345e+003,2.804210e-001
6.931202e+003,2.801456e-001
6.935059e+003,2.954764e-001
6.938916e+003,2.907652e-001
6.942773e+003,2.636181e-001
6.946630e+003,2.524953e-001
6.950487e+003,2.588600e-001
6.954345e+003,2.751636e-001
6.958202e+003,3.050413e-001
6.962059e+003,3.152677e-001
6.965916e+003,2.925208e-001
6.969773e+003,2.627902e-001
6.973630e+003,2.685884e-001
6.977487e+003,2.745298e-001
6.981344e+003,2.817398e-001
6.985201e+003,2.955444e-001
6.989059e+003,3.064345e-001
6.992916e+003,2.901953e-001
6.996772e+003,2.731562e-001
7.000630e+003,2.595629e-001
7.004487e+003,2.695785e-001
7.008344e+003,2.952447e-001
7.012201e+003,2.845057e-001
7.016058e+003,2.703091e-001
7.019915e+003,2.871806e-001
7.023772e+003,2.819490e-001
7.027629e+003,2.843827e-001
7.031486e+003,3.140695e-001
7.035344e+003,3.185629e-001
7.039201e+003,2.981069e-001
7.043058e+003,2.931942e-001
7.046915e+003,2.867635e-001
7.050772e+003,2.779111e-001
7.054629e+003,2.788701e-001
7.058486e+003,2.907112e-001
7.062343e+003,2.887248e-001
7.066200e+003,2.877011e-001
7.070058e+003,2.801180e-001
7.073915e+003,2.704807e-001
7.077771e+003,2.628951e-001
7.081629e+003,2.681278e-001
7.085486e+003,2.765011e-001
7.089343e+003,2.847129e-001
7.093200e+003,2.598481e-001
7.097057e+003,2.473229e-001
7.100914e+003,2.998379e-001
7.104771e+003,3.169960e-001
7.108628e+003,2.734844e-001
7.112485e+003,2.634007e-001
7.116343e+003,2.800421e-001
7.120200e+003,2.694848e-001
7.124057e+003,2.666408e-001
7.127914e+003,2.858142e-001
7.131771e+003,3.009603e-001
7.135628e+003,3.080111e-001
7.139485e+003,3.034506e-001
7.143342e+003,2.982852e-001
7.147199e+003,2.884826e-001
7.151057e+003,2.663818e-001
7.154914e+003,2.718261e-001
7.158771e+003,2.811132e-001
7.162628e+003,2.656660e-001
7.166485e+003,2.679467e-001
7.170342e+003,2.822329e-001
7.174199e+003,2.945510e-001
7.178056e+003,2.974221e-001
7.181913e+003,2.905177e-001
7.185771e+003,2.706322e-001
7.189627e+003,2.587008e-001
7.193484e+003,2.816878e-001
7.197342e+003,2.802650e-001
7.201199e+003,3.070551e-001
7.205056e+003,3.147979e-001
7.208913e+003,2.748315e-001
7.212770e+003,2.893942e-001
7.216627e+003,3.117602e-001
7.220484e+003,2.877236e-001
7.224341e+003,2.635295e-001
7.228198e+003,2.725711e-001
7.232056e+003,2.809943e-001
7.235913e+003,2.825501e-001
7.239770e+003,3.003327e-001
7.243627e+003,3.229612e-001
7.247484e+003,2.927144e-001
7.251341e+003,2.784236e-001
7.255198e+003,2.942978e-001
7.259055e+003,3.016861e-001
7.262912e+003,2.873511e-001
7.266770e+003,2.852149e-001
7.270626e+003,2.881139e-001
7.274483e+003,2.841443e-001
7.278341e+003,2.753040e-001
7.282198e+003,2.561053e-001
7.286055e+003,2.494533e-001
7.289912e+003,2.540942e-001
7.293769e+003,2.952283e-001
7.297626e+003,3.161266e-001
7.301483e+003,2.988676e-001
7.305340e+003,2.724323e-001
7.309197e+003,2.512330e-001
7.313055e+003,2.629988e-001
7.316912e+003,2.675120e-001
7.320769e+003,2.735712e-001
7.324626e+003,2.705115e-001
7.328483e+003,2.640071e-001
7.332340e+003,2.789278e-001
7.336197e+003,2.592957e-001
7.340054e+003,2.589687e-001
7.343911e+003,2.934957e-001
7.347769e+003,3.082483e-001
7.351625e+003,3.290864e-001
7.355482e+003,3.214963e-001
7.359340e+003,2.897798e-001
7.363197e+003,2.827693e-001
7.367054e+003,2.842873e-001
7.370911e+003,2.840474e-001
7.374768e+003,2.723022e-001
7.378625e+003,2.802794e-001
7.382482e+003,3.092497e-001
7.386339e+003,2.891500e-001
7.390196e+003,2.898203e-001
7.394054e+003,2.932798e-001
7.397911e+003,2.630098e-001
7.401768e+003,2.560925e-001
7.405625e+003,2.372867e-001
7.409482e+003,2.650343e-001
7.413339e+003,2.757920e-001
7.417196e+003,2.562426e-001
7.421053e+003,2.439385e-001
7.424910e+003,2.755437e-001
7.428768e+003,3.044101e-001
7.432625e+003,2.907303e-001
7.436481e+003,2.757819e-001
7.440339e+003,2.768987e-001
7.444196e+003,2.520911e-001
7.448053e+003,2.782370e-001
7.451910e+003,3.051132e-001
7.455767e+003,2.944348e-001
7.459624e+003,2.789714e-001
7.463481e+003,2.971084e-001
7.467338e+003,2.713024e-001
7.471195e+003,2.528061e-001
7.475053e+003,2.877780e-001
7.478910e+003,2.725299e-001
7.482767e+003,2.480151e-001
7.486624e+003,2.620381e-001
7.490481e+003,2.725780e-001
7.494338e+003,2.820389e-001
7.498195e+003,2.541534e-001
7.502052e+003,2.496534e-001
7.505909e+003,2.746160e-001
7.509767e+003,2.740302e-001
7.513624e+003,2.536274e-001
7.517480e+003,2.643695e-001
7.521338e+003,2.853057e-001
7.525195e+003,2.717564e-001
7.529052e+003,2.925921e-001
7.532909e+003,3.622763e-001
7.536766e+003,3.546744e-001
7.540623e+003,2.924791e-001
7.544480e+003,2.525523e-001
7.548337e+003,2.248555e-001
7.552194e+003,2.417108e-001
7.556052e+003,2.557092e-001
7.559909e+003,2.821000e-001
7.563766e+003,3.061351e-001
7.567623e+003,2.748530e-001
7.571480e+003,2.314095e-001
7.575337e+003,2.628367e-001
7.579194e+003,2.587168e-001
7.583051e+003,2.455364e-001
7.586908e+003,2.598825e-001
7.590766e+003,2.467519e-001
7.594623e+003,2.566576e-001
7.598479e+003,2.731768e-001
7.602337e+003,2.591121e-001
7.606194e+003,2.383958e-001
7.610051e+003,2.500169e-001
7.613908e+003,3.039371e-001
7.617765e+003,3.478514e-001
7.621622e+003,3.278042e-001
7.625479e+003,3.441005e-001
7.629336e+003,3.151885e-001
7.633193e+003,2.493897e-001
7.637051e+003,2.507462e-001
7.640908e+003,2.768416e-001
7.644765e+003,2.877159e-001
7.648622e+003,3.093061e-001
7.652479e+003,3.152439e-001
7.656336e+003,3.214396e-001
7.660193e+003,2.809736e-001
7.664050e+003,2.660138e-001
7.667907e+003,2.987196e-001
7.671765e+003,3.038970e-001
7.675622e+003,2.786056e-001
7.679479e+003,2.982669e-001
7.683336e+003,3.494652e-001
7.687193e+003,3.326735e-001
7.691050e+003,2.873206e-001
7.694907e+003,2.837314e-001
7.698764e+003,3.003551e-001
7.702621e+003,3.269607e-001
7.706479e+003,2.405540e-001
7.710335e+003,2.237894e-001
7.714192e+003,2.496316e-001
7.718050e+003,2.106581e-001
7.721907e+003,2.384780e-001
7.725764e+003,2.883987e-001
7.729621e+003,2.558665e-001
7.733478e+003,1.936844e-001
7.737335e+003,2.443447e-001
7.741192e+003,3.183667e-001
7.745049e+003,2.923292e-001
7.748906e+003,2.477051e-001
7.752764e+003,2.413782e-001
7.756621e+003,3.014528e-001
7.760478e+003,3.022085e-001
7.764335e+003,2.298395e-001
7.768192e+003,2.413279e-001
7.772049e+003,3.411483e-001
7.775906e+003,3.339419e-001
7.779763e+003,2.887288e-001
7.783620e+003,2.580795e-001
7.787478e+003,2.513515e-001
7.791334e+003,2.727907e-001
7.795191e+003,2.540415e-001
7.799049e+003,2.786811e-001
7.802906e+003,3.603230e-001
7.806763e+003,3.229323e-001
7.810620e+003,2.664009e-001
7.814477e+003,2.572026e-001
7.818334e+003,2.239293e-001
7.822191e+003,1.774372e-001
7.826048e+003,2.061609e-001
7.829905e+003,2.507629e-001
7.833763e+003,2.637583e-001
7.837620e+003,3.086740e-001
7.841477e+003,3.756295e-001
7.845334e+003,3.673666e-001
7.849191e+003,2.993713e-001
7.853048e+003,2.849257e-001
7.856905e+003,3.365322e-001
7.860762e+003,2.947583e-001
7.864619e+003,2.480540e-001
7.868477e+003,3.010161e-001
7.872333e+003,3.884251e-001
7.876190e+003,3.253225e-001
7.880048e+003,2.508207e-001
7.883905e+003,2.250773e-001
7.887762e+003,1.947473e-001
7.891619e+003,1.760192e-001
7.895476e+003,2.351917e-001
7.899333e+003,2.336897e-001
7.903190e+003,2.663282e-001
7.907047e+003,3.704846e-001
7.910904e+003,3.565101e-001
7.914762e+003,3.323003e-001
7.918619e+003,3.154009e-001
7.922476e+003,2.728797e-001
7.926333e+003,2.973324e-001
7.930190e+003,3.328657e-001
7.934047e+003,3.218285e-001
7.937904e+003,2.719308e-001
7.941761e+003,2.804203e-001
7.945618e+003,2.945008e-001
7.949476e+003,2.539281e-001
7.953333e+003,2.576620e-001
7.957189e+003,2.304755e-001
7.961047e+003,2.013092e-001
7.964904e+003,2.019217e-001
7.968761e+003,2.198270e-001
7.972618e+003,2.535459e-001
7.976475e+003,2.610430e-001
7.980332e+003,3.276483e-001
7.984189e+003,4.309970e-001
7.988046e+003,3.697285e-001
7.991903e+003,2.401273e-001
7.995761e+003,2.350836e-001
7.999618e+003,2.998003e-001
