4.011380e+002,6.000000e+000
4.049951e+002,6.000000e+000
4.088522e+002,6.000000e+000
4.127093e+002,6.000000e+000
4.165664e+002,-1.374091e-001
4.204235e+002,8.732260e-001
4.242806e+002,6.000000e+000
4.281377e+002,6.000000e+000
4.319948e+002,-3.707558e-001
4.358519e+002,6.000000e+000
4.397090e+002,2.748127e+000
4.435661e+002,4.902858e-001
4.474232e+002,6.000000e+000
4.512803e+002,3.097847e-001
4.551374e+002,6.715513e-001
4.589945e+002,3.815165e-001
4.628516e+002,6.000000e+000
4.667087e+002,6.000000e+000
4.705658e+002,6.000000e+000
4.744229e+002,1.061014e-001
4.782800e+002,6.000000e+000
4.821371e+002,6.000000e+000
4.859941e+002,6.000000e+000
4.898513e+002,6.000000e+000
4.937083e+002,9.213737e-002
4.975654e+002,2.329857e-001
5.014225e+002,8.193729e-001
5.052796e+002,6.745321e-001
5.091367e+002,9.149156e-001
5.129938e+002,8.764721e-001
5.168509e+002,6.000000e+000
5.207080e+002,6.000000e+000
5.245651e+002,6.000000e+000
5.284222e+002,-3.110929e-001
5.322793e+002,-1.609557e-001
5.361364e+002,6.000000e+000
5.399935e+002,6.000000e+000
5.438506e+002,2.729112e-001
5.477077e+002,8.544853e-003
5.515648e+002,1.189388e-001
5.554219e+002,-1.618052e+000
5.592790e+002,6.000000e+000
5.631361e+002,6.000000e+000
5.669932e+002,-1.195569e+000
5.708503e+002,1.632436e-001
5.747074e+002,-4.029628e-002
5.785645e+002,-8.674681e-002
5.824216e+002,-5.187770e-001
5.862787e+002,1.635172e+000
5.901357e+002,6.669419e-001
5.939929e+002,8.954678e-003
5.978499e+002,-5.962406e-002
6.017070e+002,6.000000e+000
6.055641e+002,6.000000e+000
6.094212e+002,6.000000e+000
6.132783e+002,6.000000e+000
6.171354e+002,6.000000e+000
6.209925e+002,6.000000e+000
6.248496e+002,6.000000e+000
6.287067e+002,-3.113544e-001
6.325638e+002,-1.074466e+000
6.364209e+002,-7.874041e-001
6.402780e+002,1.308493e-001
6.441351e+002,-2.929782e-001
6.479922e+002,6.000000e+000
6.518493e+002,6.000000e+000
6.557064e+002,6.000000e+000
6.595635e+002,-1.119793e+000
6.634205e+002,-4.982421e-001
6.672777e+002,-1.859732e-001
6.711348e+002,-1.095457e-001
6.749918e+002,-1.681025e-001
6.788490e+002,-1.739038e-001
6.827061e+002,6.000000e+000
6.865631e+002,1.657834e+000
6.904203e+002,9.322487e-001
6.942773e+002,-2.151003e-001
6.981344e+002,-5.264490e-001
7.019916e+002,6.000000e+000
7.058486e+002,6.000000e+000
7.097057e+002,6.000000e+000
7.135629e+002,6.000000e+000
7.174199e+002,7.009938e-001
7.212770e+002,5.248754e-001
7.251342e+002,6.000000e+000
7.289912e+002,6.000000e+000
7.328483e+002,-1.014541e+000
7.367054e+002,6.000000e+000
7.405625e+002,2.130330e-001
7.444196e+002,3.853665e-002
7.482767e+002,6.000000e+000
7.521338e+002,6.000000e+000
7.559908e+002,6.000000e+000
7.598480e+002,6.000000e+000
7.637051e+002,6.000000e+000
7.675621e+002,6.000000e+000
7.714193e+002,6.000000e+000
7.752764e+002,1.206987e-001
7.791334e+002,6.000000e+000
7.829905e+002,6.000000e+000
7.868477e+002,6.000000e+000
7.907047e+002,6.000000e+000
7.945618e+002,6.000000e+000
7.984189e+002,2.846511e-001
8.022760e+002,6.000000e+000
8.061331e+002,6.000000e+000
8.099902e+002,6.000000e+000
8.138473e+002,6.000000e+000
8.177044e+002,6.000000e+000
8.215615e+002,6.000000e+000
8.254186e+002,6.000000e+000
8.292757e+002,6.999388e-001
8.331328e+002,7.573683e-001
8.369899e+002,1.864238e+000
8.408470e+002,6.000000e+000
8.447041e+002,1.570996e+000
8.485612e+002,5.263661e-001
8.524183e+002,9.751382e-001
8.562754e+002,1.113061e+000
8.601324e+002,1.490663e+000
8.639896e+002,2.178418e+000
8.678467e+002,1.678107e+000
8.717037e+002,1.158265e+000
8.755609e+002,1.126576e+000
8.794180e+002,8.455896e-001
8.832750e+002,9.953941e-001
8.871321e+002,1.757018e+000
8.909893e+002,6.000000e+000
8.948463e+002,1.075167e+000
8.987034e+002,1.211497e+000
9.025605e+002,6.000000e+000
9.064176e+002,6.000000e+000
9.102747e+002,2.093884e+000
9.141318e+002,1.516167e+000
9.179889e+002,1.539487e+000
9.218461e+002,6.000000e+000
9.257031e+002,6.000000e+000
9.295602e+002,2.217827e+000
9.334174e+002,2.116580e+000
9.372744e+002,2.366027e+000
9.411315e+002,1.977238e+000
9.449886e+002,1.530573e+000
9.488457e+002,1.594175e+000
9.527028e+002,6.000000e+000
9.565599e+002,6.000000e+000
9.604170e+002,1.714681e+000
9.642740e+002,1.666507e+000
9.681312e+002,2.163700e+000
9.719883e+002,2.605171e+000
9.758453e+002,6.000000e+000
9.797025e+002,6.000000e+000
9.835596e+002,6.000000e+000
9.874166e+002,6.000000e+000
9.912738e+002,6.000000e+000
9.951309e+002,2.009115e+000
9.989879e+002,1.538025e+000
1.002845e+003,1.670680e+000
1.006702e+003,2.053765e+000
1.010559e+003,1.794718e+000
1.014416e+003,1.988811e+000
1.018273e+003,6.000000e+000
1.022130e+003,2.049757e+000
1.025988e+003,1.862700e+000
1.029845e+003,2.507427e+000
1.033702e+003,6.000000e+000
1.037559e+003,2.011580e+000
1.041416e+003,1.659156e+000
1.045273e+003,1.814856e+000
1.049130e+003,1.674498e+000
1.052987e+003,1.458416e+000
1.056844e+003,1.436621e+000
1.060702e+003,1.708479e+000
1.064559e+003,1.725994e+000
1.068416e+003,1.505569e+000
1.072273e+003,1.403904e+000
1.076130e+003,1.453274e+000
1.079987e+003,1.511190e+000
1.083844e+003,1.523994e+000
1.087701e+003,1.514564e+000
1.091558e+003,1.415740e+000
1.095415e+003,1.295265e+000
1.099272e+003,1.274553e+000
1.103130e+003,1.384390e+000
1.106987e+003,1.308014e+000
1.110844e+003,1.247445e+000
1.114701e+003,1.318120e+000
1.118558e+003,1.313199e+000
1.122415e+003,1.289231e+000
1.126272e+003,1.238118e+000
1.130129e+003,1.189747e+000
1.133986e+003,1.217897e+000
1.137843e+003,1.219763e+000
1.141701e+003,1.228338e+000
1.145558e+003,1.272967e+000
1.149415e+003,1.268377e+000
1.153272e+003,1.233535e+000
1.157129e+003,1.241148e+000
1.160986e+003,1.205527e+000
1.164843e+003,1.165084e+000
1.168700e+003,1.122677e+000
1.172557e+003,1.119577e+000
1.176414e+003,1.160839e+000
1.180271e+003,1.170014e+000
1.184129e+003,1.191607e+000
1.187986e+003,1.223977e+000
1.191843e+003,1.182814e+000
1.195700e+003,1.154624e+000
1.199557e+003,1.157498e+000
1.203414e+003,1.096507e+000
1.207271e+003,1.039338e+000
1.211128e+003,9.883054e-001
1.214985e+003,9.128771e-001
1.218842e+003,8.481545e-001
1.222699e+003,7.685457e-001
1.226557e+003,7.056499e-001
1.230414e+003,6.638711e-001
1.234271e+003,6.176193e-001
1.238128e+003,5.766459e-001
1.241985e+003,5.463054e-001
1.245842e+003,5.376810e-001
1.249699e+003,5.156961e-001
1.253556e+003,4.810922e-001
1.257413e+003,4.541093e-001
1.261271e+003,4.410021e-001
1.265128e+003,4.274597e-001
1.268985e+003,4.116574e-001
1.272842e+003,3.958392e-001
1.276699e+003,3.950682e-001
1.280556e+003,3.865444e-001
1.284413e+003,3.672503e-001
1.288270e+003,3.617124e-001
1.292127e+003,3.622153e-001
1.295984e+003,3.556863e-001
1.299841e+003,3.511031e-001
1.303698e+003,3.514175e-001
1.307556e+003,3.433293e-001
1.311413e+003,3.394055e-001
1.315270e+003,3.368789e-001
1.319127e+003,3.331766e-001
1.322984e+003,3.296375e-001
1.326841e+003,3.299308e-001
1.330698e+003,3.328928e-001
1.334555e+003,3.293653e-001
1.338412e+003,3.288839e-001
1.342270e+003,3.249596e-001
1.346127e+003,3.258899e-001
1.349984e+003,3.370002e-001
1.353841e+003,3.378302e-001
1.357698e+003,3.418292e-001
1.361555e+003,3.465185e-001
1.365412e+003,3.469225e-001
1.369269e+003,3.509874e-001
1.373126e+003,3.625354e-001
1.376983e+003,3.693980e-001
1.380840e+003,3.796941e-001
1.384698e+003,3.904766e-001
1.388555e+003,3.945960e-001
1.392412e+003,4.003567e-001
1.396269e+003,4.145134e-001
1.400126e+003,4.256418e-001
1.403983e+003,4.359581e-001
1.407840e+003,4.475207e-001
1.411697e+003,4.554668e-001
1.415554e+003,4.648393e-001
1.419411e+003,4.673101e-001
1.423269e+003,4.842687e-001
1.427126e+003,4.904135e-001
1.430983e+003,4.873019e-001
1.434840e+003,4.923604e-001
1.438697e+003,4.917041e-001
1.442554e+003,4.866962e-001
1.446411e+003,4.814470e-001
1.450268e+003,4.765700e-001
1.454125e+003,4.727497e-001
1.457982e+003,4.673602e-001
1.461839e+003,4.642359e-001
1.465697e+003,4.672334e-001
1.469554e+003,4.686103e-001
1.473411e+003,4.702003e-001
1.477268e+003,4.680110e-001
1.481125e+003,4.656159e-001
1.484982e+003,4.729168e-001
1.488839e+003,4.819048e-001
1.492696e+003,4.911632e-001
1.496553e+003,5.120251e-001
1.500411e+003,5.212741e-001
1.504268e+003,5.165629e-001
1.508125e+003,5.193322e-001
1.511982e+003,5.230537e-001
1.515839e+003,5.198873e-001
1.519696e+003,5.138670e-001
1.523553e+003,5.102333e-001
1.527410e+003,5.006130e-001
1.531267e+003,4.899394e-001
1.535124e+003,4.822070e-001
1.538981e+003,4.698243e-001
1.542839e+003,4.607449e-001
1.546696e+003,4.591589e-001
1.550553e+003,4.498855e-001
1.554410e+003,4.337375e-001
1.558267e+003,4.288035e-001
1.562124e+003,4.271288e-001
1.565981e+003,4.171631e-001
1.569838e+003,4.078952e-001
1.573695e+003,4.034176e-001
1.577552e+003,4.031555e-001
1.581410e+003,4.054225e-001
1.585267e+003,4.061746e-001
1.589124e+003,4.100693e-001
1.592981e+003,4.164661e-001
1.596838e+003,4.261042e-001
1.600695e+003,4.358155e-001
1.604552e+003,4.475743e-001
1.608409e+003,4.710444e-001
1.612266e+003,4.898861e-001
1.616123e+003,5.038994e-001
1.619980e+003,5.309772e-001
1.623838e+003,5.487024e-001
1.627695e+003,5.556061e-001
1.631552e+003,5.727726e-001
1.635409e+003,5.844606e-001
1.639266e+003,5.828001e-001
1.643123e+003,5.787828e-001
1.646980e+003,5.727566e-001
1.650837e+003,5.631518e-001
1.654694e+003,5.457943e-001
1.658551e+003,5.301299e-001
1.662409e+003,5.107642e-001
1.666266e+003,4.847632e-001
1.670123e+003,4.704939e-001
1.673980e+003,4.522379e-001
1.677837e+003,4.318251e-001
1.681694e+003,4.239971e-001
1.685551e+003,4.175005e-001
1.689408e+003,4.057951e-001
1.693265e+003,3.951566e-001
1.697122e+003,3.876709e-001
1.700979e+003,3.818961e-001
1.704837e+003,3.776326e-001
1.708694e+003,3.682722e-001
1.712551e+003,3.583291e-001
1.716408e+003,3.589334e-001
1.720265e+003,3.594727e-001
1.724122e+003,3.539062e-001
1.727979e+003,3.553950e-001
1.731836e+003,3.576896e-001
1.735693e+003,3.523883e-001
1.739550e+003,3.467170e-001
1.743408e+003,3.444024e-001
1.747265e+003,3.482540e-001
1.751122e+003,3.543284e-001
1.754979e+003,3.560043e-001
1.758836e+003,3.506006e-001
1.762693e+003,3.492148e-001
1.766550e+003,3.504558e-001
1.770407e+003,3.478681e-001
1.774264e+003,3.432180e-001
1.778121e+003,3.404030e-001
1.781979e+003,3.400633e-001
1.785836e+003,3.418640e-001
1.789693e+003,3.398215e-001
1.793550e+003,3.394386e-001
1.797407e+003,3.377125e-001
1.801264e+003,3.338659e-001
1.805121e+003,3.306772e-001
1.808978e+003,3.279513e-001
1.812835e+003,3.254974e-001
1.816692e+003,3.228282e-001
1.820549e+003,3.199906e-001
1.824407e+003,3.192465e-001
1.828264e+003,3.191044e-001
1.832121e+003,3.193585e-001
1.835978e+003,3.226426e-001
1.839835e+003,3.265165e-001
1.843692e+003,3.233908e-001
1.847549e+003,3.198885e-001
1.851406e+003,3.220574e-001
1.855263e+003,3.227003e-001
1.859120e+003,3.209817e-001
1.862978e+003,3.201378e-001
1.866835e+003,3.212121e-001
1.870692e+003,3.218897e-001
1.874549e+003,3.225563e-001
1.878406e+003,3.208144e-001
1.882263e+003,3.209232e-001
1.886120e+003,3.165787e-001
1.889977e+003,3.118716e-001
1.893834e+003,3.144217e-001
1.897691e+003,3.161054e-001
1.901548e+003,3.162019e-001
1.905406e+003,3.123941e-001
1.909263e+003,3.108281e-001
1.913120e+003,3.084774e-001
1.916977e+003,3.086622e-001
1.920834e+003,3.134855e-001
1.924691e+003,3.147424e-001
1.928548e+003,3.068355e-001
1.932405e+003,3.009030e-001
1.936262e+003,3.014729e-001
1.940119e+003,3.025361e-001
1.943977e+003,2.985226e-001
1.947834e+003,2.945198e-001
1.951691e+003,2.925810e-001
1.955548e+003,2.941504e-001
1.959405e+003,2.942343e-001
1.963262e+003,2.923963e-001
1.967119e+003,2.965893e-001
1.970976e+003,2.982045e-001
1.974833e+003,2.937237e-001
1.978690e+003,2.924468e-001
1.982547e+003,2.925127e-001
1.986405e+003,2.861923e-001
1.990262e+003,2.826481e-001
1.994119e+003,2.837487e-001
1.997976e+003,2.860007e-001
2.001833e+003,2.868370e-001
2.005690e+003,2.860069e-001
2.009547e+003,2.876855e-001
2.013404e+003,2.897131e-001
2.017261e+003,2.947360e-001
2.021118e+003,2.950969e-001
2.024976e+003,2.922740e-001
2.028833e+003,2.918462e-001
2.032690e+003,2.899763e-001
2.036547e+003,2.858045e-001
2.040404e+003,2.857053e-001
2.044261e+003,2.837894e-001
2.048118e+003,2.831823e-001
2.051975e+003,2.834378e-001
2.055832e+003,2.802296e-001
2.059689e+003,2.759676e-001
2.063546e+003,2.740564e-001
2.067404e+003,2.748484e-001
2.071261e+003,2.763444e-001
2.075118e+003,2.749193e-001
2.078975e+003,2.747313e-001
2.082832e+003,2.720389e-001
2.086689e+003,2.708567e-001
2.090546e+003,2.735037e-001
2.094403e+003,2.758938e-001
2.098260e+003,2.724479e-001
2.102117e+003,2.694020e-001
2.105975e+003,2.699198e-001
2.109832e+003,2.689310e-001
2.113689e+003,2.714327e-001
2.117546e+003,2.752877e-001
2.121403e+003,2.771463e-001
2.125260e+003,2.801928e-001
2.129117e+003,2.797576e-001
2.132974e+003,2.750930e-001
2.136831e+003,2.734419e-001
2.140688e+003,2.795586e-001
2.144545e+003,2.824517e-001
2.148403e+003,2.834736e-001
2.152260e+003,2.846539e-001
2.156117e+003,2.799931e-001
2.159974e+003,2.754585e-001
2.163831e+003,2.766362e-001
2.167688e+003,2.796935e-001
2.171545e+003,2.794549e-001
2.175402e+003,2.802004e-001
2.179259e+003,2.786581e-001
2.183116e+003,2.800976e-001
2.186974e+003,2.801054e-001
2.190831e+003,2.793946e-001
2.194688e+003,2.797505e-001
2.198545e+003,2.747905e-001
2.202402e+003,2.736703e-001
2.206259e+003,2.758232e-001
2.210116e+003,2.737313e-001
2.213973e+003,2.711464e-001
2.217830e+003,2.716616e-001
2.221688e+003,2.752681e-001
2.225544e+003,2.766740e-001
2.229402e+003,2.779343e-001
2.233259e+003,2.791480e-001
2.237116e+003,2.798892e-001
2.240973e+003,2.797922e-001
2.244830e+003,2.835519e-001
2.248687e+003,2.845982e-001
2.252544e+003,2.834014e-001
2.256401e+003,2.823222e-001
2.260258e+003,2.831477e-001
2.264115e+003,2.904623e-001
2.267973e+003,2.941151e-001
2.271830e+003,2.915308e-001
2.275687e+003,2.914111e-001
2.279544e+003,2.950451e-001
2.283401e+003,2.939538e-001
2.287258e+003,2.895927e-001
2.291115e+003,2.887073e-001
2.294972e+003,2.912793e-001
2.298829e+003,2.909311e-001
2.302687e+003,2.916059e-001
2.306543e+003,2.922351e-001
2.310401e+003,2.901086e-001
2.314258e+003,2.840768e-001
2.318115e+003,2.803662e-001
2.321972e+003,2.805877e-001
2.325829e+003,2.796671e-001
2.329686e+003,2.795361e-001
2.333543e+003,2.820828e-001
2.337400e+003,2.828824e-001
2.341257e+003,2.802801e-001
2.345115e+003,2.842159e-001
2.348972e+003,2.846244e-001
2.352829e+003,2.787762e-001
2.356686e+003,2.675138e-001
2.360543e+003,2.671231e-001
2.364400e+003,2.690763e-001
2.368257e+003,2.710342e-001
2.372114e+003,2.758782e-001
2.375971e+003,2.755611e-001
2.379828e+003,2.771743e-001
2.383686e+003,2.834824e-001
2.387542e+003,2.834089e-001
2.391400e+003,2.809365e-001
2.395257e+003,2.809030e-001
2.399114e+003,2.852428e-001
2.402971e+003,2.928608e-001
2.406828e+003,2.919942e-001
2.410685e+003,2.832866e-001
2.414542e+003,2.814195e-001
2.418399e+003,2.853324e-001
2.422256e+003,2.899715e-001
2.426114e+003,2.905689e-001
2.429971e+003,2.905041e-001
2.433828e+003,2.907601e-001
2.437685e+003,2.954821e-001
2.441542e+003,2.940357e-001
2.445399e+003,2.867963e-001
2.449256e+003,2.858948e-001
2.453113e+003,2.873521e-001
2.456970e+003,2.844090e-001
2.460827e+003,2.818509e-001
2.464684e+003,2.860524e-001
2.468542e+003,2.908108e-001
2.472399e+003,2.885752e-001
2.476256e+003,2.866489e-001
2.480113e+003,2.847187e-001
2.483970e+003,2.813221e-001
2.487827e+003,2.784641e-001
2.491684e+003,2.769135e-001
2.495541e+003,2.810076e-001
2.499398e+003,2.844319e-001
2.503255e+003,2.838232e-001
2.507113e+003,2.808843e-001
2.510969e+003,2.814177e-001
2.514827e+003,2.853093e-001
2.518684e+003,2.854745e-001
2.522541e+003,2.833270e-001
2.526398e+003,2.825620e-001
2.530255e+003,2.829670e-001
2.534112e+003,2.850154e-001
2.537969e+003,2.868893e-001
2.541826e+003,2.880094e-001
2.545683e+003,2.901634e-001
2.549541e+003,2.920180e-001
2.553398e+003,2.923381e-001
2.557255e+003,2.941093e-001
2.561112e+003,2.955329e-001
2.564969e+003,2.978772e-001
2.568826e+003,2.982451e-001
2.572683e+003,2.981492e-001
2.576540e+003,3.014410e-001
2.580397e+003,3.006164e-001
2.584254e+003,2.986549e-001
2.588112e+003,2.995873e-001
2.591969e+003,3.020265e-001
2.595826e+003,3.059480e-001
2.599683e+003,3.071237e-001
2.603540e+003,3.044399e-001
2.607397e+003,3.054995e-001
2.611254e+003,3.081032e-001
2.615111e+003,3.077947e-001
2.618968e+003,3.077032e-001
2.622825e+003,3.111399e-001
2.626682e+003,3.120486e-001
2.630540e+003,3.080038e-001
2.634397e+003,3.101479e-001
2.638254e+003,3.130486e-001
2.642111e+003,3.164755e-001
2.645968e+003,3.191195e-001
2.649825e+003,3.179923e-001
2.653682e+003,3.179889e-001
2.657539e+003,3.208451e-001
2.661396e+003,3.240403e-001
2.665253e+003,3.279790e-001
2.669111e+003,3.327463e-001
2.672968e+003,3.333457e-001
2.676825e+003,3.321749e-001
2.680682e+003,3.309463e-001
2.684539e+003,3.317688e-001
2.688396e+003,3.360224e-001
2.692253e+003,3.386905e-001
2.696110e+003,3.413004e-001
2.699967e+003,3.495431e-001
2.703824e+003,3.516239e-001
2.707681e+003,3.537005e-001
2.711539e+003,3.573381e-001
2.715396e+003,3.547202e-001
2.719253e+003,3.546737e-001
2.723110e+003,3.585505e-001
2.726967e+003,3.598090e-001
2.730824e+003,3.621460e-001
2.734681e+003,3.664872e-001
2.738538e+003,3.622879e-001
2.742395e+003,3.650630e-001
2.746252e+003,3.709947e-001
2.750110e+003,3.758337e-001
2.753967e+003,3.781321e-001
2.757824e+003,3.774633e-001
2.761681e+003,3.764795e-001
2.765538e+003,3.781587e-001
2.769395e+003,3.803857e-001
2.773252e+003,3.825391e-001
2.777109e+003,3.895828e-001
2.780966e+003,3.900125e-001
2.784823e+003,3.907162e-001
2.788680e+003,3.941041e-001
2.792538e+003,4.000763e-001
2.796395e+003,4.077757e-001
2.800252e+003,4.072151e-001
2.804109e+003,4.050340e-001
2.807966e+003,4.106843e-001
2.811823e+003,4.136294e-001
2.815680e+003,4.160705e-001
2.819537e+003,4.205185e-001
2.823394e+003,4.212706e-001
2.827251e+003,4.255807e-001
2.831109e+003,4.300927e-001
2.834966e+003,4.323258e-001
2.838823e+003,4.366740e-001
2.842680e+003,4.382915e-001
2.846537e+003,4.395430e-001
2.850394e+003,4.419378e-001
2.854251e+003,4.459648e-001
2.858108e+003,4.490635e-001
2.861965e+003,4.474466e-001
2.865823e+003,4.473155e-001
2.869679e+003,4.560595e-001
2.873537e+003,4.617319e-001
2.877394e+003,4.608187e-001
2.881251e+003,4.619178e-001
2.885108e+003,4.638231e-001
2.888965e+003,4.720067e-001
2.892822e+003,4.773439e-001
2.896679e+003,4.804198e-001
2.900536e+003,4.840717e-001
2.904393e+003,4.858642e-001
2.908250e+003,4.847716e-001
2.912108e+003,4.879317e-001
2.915965e+003,4.878633e-001
2.919822e+003,4.861391e-001
2.923679e+003,4.944606e-001
2.927536e+003,4.983648e-001
2.931393e+003,5.031893e-001
2.935250e+003,5.122686e-001
2.939107e+003,5.154656e-001
2.942964e+003,5.152106e-001
2.946822e+003,5.222241e-001
2.950678e+003,5.230372e-001
2.954536e+003,5.269011e-001
2.958393e+003,5.326465e-001
2.962250e+003,5.330469e-001
2.966107e+003,5.377498e-001
2.969964e+003,5.472393e-001
2.973821e+003,5.548884e-001
2.977678e+003,5.542763e-001
2.981535e+003,5.534936e-001
2.985392e+003,5.578225e-001
2.989250e+003,5.664902e-001
2.993107e+003,5.671981e-001
2.996964e+003,5.592554e-001
3.000821e+003,5.590566e-001
3.004678e+003,5.638720e-001
3.008535e+003,5.681521e-001
3.012392e+003,5.778438e-001
3.016249e+003,5.849898e-001
3.020106e+003,5.906892e-001
3.023963e+003,5.934488e-001
3.027821e+003,5.959410e-001
3.031677e+003,5.975620e-001
3.035535e+003,6.024695e-001
3.039392e+003,6.071004e-001
3.043249e+003,6.032148e-001
3.047106e+003,6.076533e-001
3.050963e+003,6.200887e-001
3.054820e+003,6.299747e-001
3.058677e+003,6.357969e-001
3.062534e+003,6.418560e-001
3.066391e+003,6.395792e-001
3.070249e+003,6.420817e-001
3.074106e+003,6.483698e-001
3.077963e+003,6.440210e-001
3.081820e+003,6.452547e-001
3.085677e+003,6.539919e-001
3.089534e+003,6.643556e-001
3.093391e+003,6.711805e-001
3.097248e+003,6.677797e-001
3.101105e+003,6.708613e-001
3.104962e+003,6.811022e-001
3.108820e+003,6.873506e-001
3.112677e+003,6.882231e-001
3.116534e+003,6.919810e-001
3.120391e+003,7.041149e-001
3.124248e+003,7.041783e-001
3.128105e+003,6.987767e-001
3.131962e+003,7.010087e-001
3.135819e+003,7.171278e-001
3.139676e+003,7.397361e-001
3.143533e+003,7.381560e-001
3.147390e+003,7.299877e-001
3.151248e+003,7.354321e-001
3.155105e+003,7.559587e-001
3.158962e+003,7.583977e-001
3.162819e+003,7.489238e-001
3.166676e+003,7.586707e-001
3.170533e+003,7.713600e-001
3.174390e+003,7.826914e-001
3.178247e+003,7.866096e-001
3.182104e+003,7.804511e-001
3.185961e+003,7.783468e-001
3.189819e+003,7.918933e-001
3.193676e+003,8.085538e-001
3.197533e+003,8.098615e-001
3.201390e+003,8.069286e-001
3.205247e+003,8.177134e-001
3.209104e+003,8.318368e-001
3.212961e+003,8.259138e-001
3.216818e+003,8.201699e-001
3.220675e+003,8.205885e-001
3.224532e+003,8.364239e-001
3.228389e+003,8.477574e-001
3.232247e+003,8.360415e-001
3.236104e+003,8.409894e-001
3.239961e+003,8.569976e-001
3.243818e+003,8.637171e-001
3.247675e+003,8.631763e-001
3.251532e+003,8.468693e-001
3.255389e+003,8.429856e-001
3.259246e+003,8.525445e-001
3.263103e+003,8.546015e-001
3.266960e+003,8.556057e-001
3.270818e+003,8.535823e-001
3.274675e+003,8.611250e-001
3.278532e+003,8.685637e-001
3.282389e+003,8.862516e-001
3.286246e+003,8.906518e-001
3.290103e+003,8.694153e-001
3.293960e+003,8.881954e-001
3.297817e+003,9.272342e-001
3.301674e+003,9.279501e-001
3.305531e+003,9.188246e-001
3.309388e+003,9.150074e-001
3.313246e+003,9.136130e-001
3.317103e+003,9.179557e-001
3.320960e+003,9.344567e-001
3.324817e+003,9.395854e-001
3.328674e+003,9.356138e-001
3.332531e+003,9.305229e-001
3.336388e+003,9.233885e-001
3.340245e+003,9.272030e-001
3.344102e+003,9.468335e-001
3.347959e+003,9.616864e-001
3.351817e+003,9.499653e-001
3.355674e+003,9.548978e-001
3.359531e+003,9.729035e-001
3.363388e+003,9.916024e-001
3.367245e+003,1.003866e+000
3.371102e+003,1.005360e+000
3.374959e+003,1.005307e+000
3.378816e+003,1.005322e+000
3.382673e+003,1.014343e+000
3.386530e+003,1.011001e+000
3.390387e+003,9.913565e-001
3.394245e+003,9.976774e-001
3.398102e+003,1.018027e+000
3.401959e+003,1.020983e+000
3.405816e+003,1.022179e+000
3.409673e+003,1.028094e+000
3.413530e+003,1.014195e+000
3.417387e+003,9.954561e-001
3.421244e+003,1.007587e+000
3.425101e+003,1.020846e+000
3.428958e+003,1.025962e+000
3.432815e+003,1.034140e+000
3.436673e+003,1.040245e+000
3.440530e+003,1.055839e+000
3.444387e+003,1.065039e+000
3.448244e+003,1.038733e+000
3.452101e+003,1.017270e+000
3.455958e+003,1.026118e+000
3.459815e+003,1.023061e+000
3.463672e+003,1.012448e+000
3.467529e+003,1.050091e+000
3.471386e+003,1.063989e+000
3.475244e+003,1.046942e+000
3.479101e+003,1.053426e+000
3.482958e+003,1.059021e+000
3.486815e+003,1.051102e+000
3.490672e+003,1.050152e+000
3.494529e+003,1.061892e+000
3.498386e+003,1.063141e+000
3.502243e+003,1.051366e+000
3.506100e+003,1.064418e+000
3.509958e+003,1.082115e+000
3.513814e+003,1.074929e+000
3.517672e+003,1.088076e+000
3.521529e+003,1.080945e+000
3.525386e+003,1.054208e+000
3.529243e+003,1.054544e+000
3.533100e+003,1.039724e+000
3.536957e+003,1.039598e+000
3.540814e+003,1.039511e+000
3.544671e+003,1.027650e+000
3.548528e+003,1.042605e+000
3.552385e+003,1.057412e+000
3.556243e+003,1.037200e+000
3.560100e+003,1.027147e+000
3.563957e+003,1.003471e+000
3.567814e+003,9.863616e-001
3.571671e+003,9.792792e-001
3.575528e+003,9.772571e-001
3.579385e+003,9.867809e-001
3.583242e+003,9.660026e-001
3.587099e+003,9.504592e-001
3.590957e+003,9.260079e-001
3.594813e+003,9.112070e-001
3.598671e+003,9.021707e-001
3.602528e+003,8.761838e-001
3.606385e+003,8.502519e-001
3.610242e+003,8.228334e-001
3.614099e+003,7.904466e-001
3.617956e+003,7.677703e-001
3.621813e+003,7.386000e-001
3.625670e+003,7.041958e-001
3.629527e+003,6.583737e-001
3.633385e+003,6.122137e-001
3.637242e+003,5.849726e-001
3.641099e+003,5.602584e-001
3.644956e+003,5.256929e-001
3.648813e+003,4.948444e-001
3.652670e+003,4.622193e-001
3.656527e+003,4.280423e-001
3.660384e+003,4.043236e-001
3.664241e+003,3.861400e-001
3.668098e+003,3.621772e-001
3.671956e+003,3.327945e-001
3.675813e+003,3.136621e-001
3.679670e+003,3.068389e-001
3.683527e+003,2.963193e-001
3.687384e+003,2.844970e-001
3.691241e+003,2.740628e-001
3.695098e+003,2.641936e-001
3.698955e+003,2.529726e-001
3.702812e+003,2.432262e-001
3.706669e+003,2.384536e-001
3.710526e+003,2.337868e-001
3.714384e+003,2.350896e-001
3.718241e+003,2.333390e-001
3.722098e+003,2.281267e-001
3.725955e+003,2.276645e-001
3.729812e+003,2.282020e-001
3.733669e+003,2.264244e-001
3.737526e+003,2.236773e-001
3.741383e+003,2.224493e-001
3.745240e+003,2.263540e-001
3.749097e+003,2.300705e-001
3.752955e+003,2.271784e-001
3.756812e+003,2.286055e-001
3.760669e+003,2.299850e-001
3.764526e+003,2.285287e-001
3.768383e+003,2.296544e-001
3.772240e+003,2.305306e-001
3.776097e+003,2.312240e-001
3.779954e+003,2.281268e-001
3.783811e+003,2.253440e-001
3.787668e+003,2.241858e-001
3.791525e+003,2.242659e-001
3.795383e+003,2.220742e-001
3.799240e+003,2.222718e-001
3.803097e+003,2.197851e-001
3.806954e+003,2.183502e-001
3.810811e+003,2.195668e-001
3.814668e+003,2.170588e-001
3.818525e+003,2.146303e-001
3.822382e+003,2.136211e-001
3.826239e+003,2.110164e-001
3.830096e+003,2.109185e-001
3.833954e+003,2.123447e-001
3.837811e+003,2.110031e-001
3.841668e+003,2.127262e-001
3.845525e+003,2.125110e-001
3.849382e+003,2.094971e-001
3.853239e+003,2.052695e-001
3.857096e+003,2.069778e-001
3.860953e+003,2.147096e-001
3.864810e+003,2.152289e-001
3.868667e+003,2.150393e-001
3.872524e+003,2.138727e-001
3.876382e+003,2.082727e-001
3.880239e+003,2.101524e-001
3.884096e+003,2.135528e-001
3.887953e+003,2.163500e-001
3.891810e+003,2.144706e-001
3.895667e+003,2.153977e-001
3.899524e+003,2.186181e-001
3.903381e+003,2.161881e-001
3.907238e+003,2.201790e-001
3.911095e+003,2.217608e-001
3.914953e+003,2.222061e-001
3.918810e+003,2.216043e-001
3.922667e+003,2.201667e-001
3.926524e+003,2.204083e-001
3.930381e+003,2.227274e-001
3.934238e+003,2.282988e-001
3.938095e+003,2.243112e-001
3.941952e+003,2.204607e-001
3.945809e+003,2.226206e-001
3.949667e+003,2.197023e-001
3.953523e+003,2.135890e-001
3.957381e+003,2.135202e-001
3.961238e+003,2.113192e-001
3.965095e+003,2.071142e-001
3.968952e+003,2.091053e-001
3.972809e+003,2.110070e-001
3.976666e+003,2.049503e-001
3.980523e+003,2.036144e-001
3.984380e+003,2.066578e-001
3.988237e+003,2.086443e-001
3.992094e+003,2.099140e-001
3.995952e+003,2.060809e-001
3.999809e+003,2.041175e-001
4.003666e+003,2.043503e-001
4.007523e+003,2.028439e-001
4.011380e+003,2.035093e-001
4.015237e+003,2.095772e-001
4.019094e+003,2.158373e-001
4.022951e+003,2.202020e-001
4.026808e+003,2.204409e-001
4.030666e+003,2.212126e-001
4.034522e+003,2.206534e-001
4.038380e+003,2.167687e-001
4.042237e+003,2.149417e-001
4.046094e+003,2.133153e-001
4.049951e+003,2.150210e-001
4.053808e+003,2.165101e-001
4.057665e+003,2.144781e-001
4.061522e+003,2.130976e-001
4.065379e+003,2.133771e-001
4.069236e+003,2.167920e-001
4.073094e+003,2.214404e-001
4.076951e+003,2.198901e-001
4.080808e+003,2.141781e-001
4.084665e+003,2.155789e-001
4.088522e+003,2.159250e-001
4.092379e+003,2.126409e-001
4.096236e+003,2.156586e-001
4.100093e+003,2.178462e-001
4.103950e+003,2.118054e-001
4.107808e+003,2.072004e-001
4.111665e+003,2.039564e-001
4.115521e+003,2.027466e-001
4.119379e+003,2.034239e-001
4.123236e+003,2.090015e-001
4.127093e+003,2.083422e-001
4.130950e+003,2.043073e-001
4.134807e+003,2.086434e-001
4.138664e+003,2.125567e-001
4.142521e+003,2.068955e-001
4.146378e+003,2.001162e-001
4.150235e+003,1.985753e-001
4.154093e+003,2.048367e-001
4.157950e+003,2.137469e-001
4.161807e+003,2.149139e-001
4.165664e+003,2.081941e-001
4.169521e+003,2.045776e-001
4.173378e+003,2.059735e-001
4.177235e+003,2.084654e-001
4.181092e+003,2.172024e-001
4.184949e+003,2.197660e-001
4.188807e+003,2.159790e-001
4.192664e+003,2.152732e-001
4.196521e+003,2.156436e-001
4.200378e+003,2.118304e-001
4.204235e+003,2.102018e-001
4.208092e+003,2.106170e-001
4.211949e+003,2.129924e-001
4.215806e+003,2.107943e-001
4.219663e+003,2.086145e-001
4.223521e+003,2.099329e-001
4.227377e+003,2.160756e-001
4.231234e+003,2.129405e-001
4.235092e+003,2.100412e-001
4.238949e+003,2.059229e-001
4.242806e+003,2.010010e-001
4.246663e+003,1.986755e-001
4.250520e+003,1.986775e-001
4.254377e+003,1.971995e-001
4.258234e+003,2.005475e-001
4.262091e+003,2.054528e-001
4.265948e+003,2.087377e-001
4.269806e+003,2.105276e-001
4.273663e+003,2.049293e-001
4.277520e+003,2.033760e-001
4.281377e+003,2.043013e-001
4.285234e+003,2.021706e-001
4.289091e+003,2.005699e-001
4.292948e+003,2.040123e-001
4.296805e+003,2.065780e-001
4.300662e+003,2.001536e-001
4.304520e+003,2.038903e-001
4.308376e+003,2.127029e-001
4.312233e+003,2.149423e-001
4.316091e+003,2.139567e-001
4.319948e+003,2.107268e-001
4.323805e+003,2.101526e-001
4.327662e+003,2.127686e-001
4.331519e+003,2.100212e-001
4.335376e+003,2.092906e-001
4.339233e+003,2.109852e-001
4.343090e+003,2.119942e-001
4.346947e+003,2.159703e-001
4.350805e+003,2.155946e-001
4.354662e+003,2.111240e-001
4.358519e+003,2.148726e-001
4.362376e+003,2.207206e-001
4.366233e+003,2.161893e-001
4.370090e+003,2.120793e-001
4.373947e+003,2.149160e-001
4.377804e+003,2.162741e-001
4.381661e+003,2.103906e-001
4.385519e+003,2.069972e-001
4.389375e+003,2.087004e-001
4.393232e+003,2.140984e-001
4.397090e+003,2.112249e-001
4.400947e+003,2.095473e-001
4.404804e+003,2.121848e-001
4.408661e+003,2.128249e-001
4.412518e+003,2.105208e-001
4.416375e+003,2.096740e-001
4.420232e+003,2.100815e-001
4.424089e+003,2.087607e-001
4.427946e+003,2.068113e-001
4.431804e+003,2.078860e-001
4.435661e+003,2.091252e-001
4.439518e+003,2.086085e-001
4.443375e+003,2.062209e-001
4.447232e+003,2.048479e-001
4.451089e+003,2.052433e-001
4.454946e+003,2.083477e-001
4.458803e+003,2.118536e-001
4.462660e+003,2.139572e-001
4.466518e+003,2.144142e-001
4.470375e+003,2.093869e-001
4.474231e+003,2.175458e-001
4.478089e+003,2.268468e-001
4.481946e+003,2.200905e-001
4.485803e+003,2.111456e-001
4.489660e+003,2.062011e-001
4.493517e+003,2.130867e-001
4.497375e+003,2.212062e-001
4.501231e+003,2.185218e-001
4.505088e+003,2.146229e-001
4.508946e+003,2.100249e-001
4.512803e+003,2.091367e-001
4.516660e+003,2.040744e-001
4.520517e+003,1.941433e-001
4.524374e+003,1.944183e-001
4.528231e+003,2.041471e-001
4.532088e+003,2.060688e-001
4.535945e+003,2.052530e-001
4.539802e+003,2.071161e-001
4.543660e+003,2.091731e-001
4.547517e+003,2.083601e-001
4.551374e+003,2.034110e-001
4.555231e+003,2.019845e-001
4.559088e+003,2.070647e-001
4.562945e+003,2.075948e-001
4.566802e+003,2.026250e-001
4.570659e+003,1.985408e-001
4.574516e+003,2.004068e-001
4.578374e+003,2.036406e-001
4.582230e+003,2.025004e-001
4.586087e+003,1.955016e-001
4.589945e+003,1.970183e-001
4.593802e+003,2.017408e-001
4.597659e+003,2.049257e-001
4.601516e+003,2.034369e-001
4.605373e+003,2.031624e-001
4.609230e+003,1.972947e-001
4.613087e+003,1.997613e-001
4.616944e+003,2.064797e-001
4.620801e+003,2.054643e-001
4.624659e+003,2.047993e-001
4.628516e+003,2.092980e-001
4.632373e+003,2.067058e-001
4.636230e+003,2.027299e-001
4.640087e+003,2.040963e-001
4.643944e+003,2.098153e-001
4.647801e+003,2.201757e-001
4.651658e+003,2.185796e-001
4.655515e+003,2.086874e-001
4.659373e+003,2.053239e-001
4.663229e+003,2.069601e-001
4.667086e+003,2.098472e-001
4.670944e+003,2.119005e-001
4.674801e+003,2.127087e-001
4.678658e+003,2.133914e-001
4.682515e+003,2.097954e-001
4.686372e+003,2.111059e-001
4.690229e+003,2.199563e-001
4.694086e+003,2.181370e-001
4.697943e+003,2.065330e-001
4.701800e+003,2.003752e-001
4.705658e+003,2.017860e-001
4.709515e+003,2.081155e-001
4.713372e+003,2.073185e-001
4.717229e+003,2.050906e-001
4.721086e+003,2.052108e-001
4.724943e+003,2.003425e-001
4.728800e+003,2.020368e-001
4.732657e+003,2.073944e-001
4.736514e+003,2.048399e-001
4.740372e+003,2.035583e-001
4.744229e+003,2.003454e-001
4.748085e+003,2.014383e-001
4.751943e+003,2.054154e-001
4.755800e+003,2.060976e-001
4.759657e+003,2.103909e-001
4.763514e+003,2.089090e-001
4.767371e+003,2.073409e-001
4.771228e+003,2.079818e-001
4.775085e+003,2.071892e-001
4.778942e+003,2.126009e-001
4.782799e+003,2.085191e-001
4.786657e+003,2.058854e-001
4.790514e+003,2.080209e-001
4.794371e+003,2.135319e-001
4.798228e+003,2.113946e-001
4.802085e+003,2.106338e-001
4.805942e+003,2.156732e-001
4.809799e+003,2.142595e-001
4.813656e+003,2.084686e-001
4.817513e+003,2.074124e-001
4.821371e+003,2.090239e-001
4.825228e+003,2.064623e-001
4.829084e+003,2.036832e-001
4.832942e+003,2.044243e-001
4.836799e+003,2.084863e-001
4.840656e+003,2.070673e-001
4.844513e+003,2.064126e-001
4.848370e+003,2.108772e-001
4.852227e+003,2.106088e-001
4.856084e+003,1.984074e-001
4.859941e+003,1.979854e-001
4.863798e+003,2.101601e-001
4.867656e+003,2.131322e-001
4.871513e+003,2.167880e-001
4.875370e+003,2.196276e-001
4.879227e+003,2.141459e-001
4.883084e+003,2.069102e-001
4.886941e+003,2.043721e-001
4.890798e+003,2.020400e-001
4.894655e+003,2.064648e-001
4.898512e+003,2.097532e-001
4.902370e+003,2.099591e-001
4.906227e+003,2.097754e-001
4.910083e+003,2.165826e-001
4.913941e+003,2.188524e-001
4.917798e+003,2.149282e-001
4.921655e+003,2.062621e-001
4.925512e+003,2.047336e-001
4.929369e+003,2.054792e-001
4.933226e+003,2.050449e-001
4.937083e+003,2.102106e-001
4.940940e+003,2.094089e-001
4.944797e+003,2.083436e-001
4.948655e+003,2.088910e-001
4.952512e+003,2.103524e-001
4.956369e+003,2.049369e-001
4.960226e+003,2.077800e-001
4.964083e+003,2.127082e-001
4.967940e+003,2.136213e-001
4.971797e+003,2.083671e-001
4.975654e+003,1.994162e-001
4.979511e+003,1.982538e-001
4.983369e+003,2.015993e-001
4.987226e+003,2.093370e-001
4.991083e+003,2.105176e-001
4.994940e+003,2.048054e-001
4.998797e+003,2.031197e-001
5.002654e+003,2.067822e-001
5.006511e+003,2.149700e-001
5.010368e+003,2.129523e-001
5.014225e+003,2.012803e-001
5.018083e+003,2.065921e-001
5.021939e+003,2.141089e-001
5.025796e+003,2.137432e-001
5.029654e+003,2.169857e-001
5.033511e+003,2.203171e-001
5.037368e+003,2.236175e-001
5.041225e+003,2.218255e-001
5.045082e+003,2.147144e-001
5.048939e+003,2.084296e-001
5.052796e+003,2.055945e-001
5.056653e+003,2.038762e-001
5.060510e+003,2.105211e-001
5.064368e+003,2.168898e-001
5.068225e+003,2.216922e-001
5.072082e+003,2.286053e-001
5.075939e+003,2.277842e-001
5.079796e+003,2.278803e-001
5.083653e+003,2.253174e-001
5.087510e+003,2.242717e-001
5.091367e+003,2.250504e-001
5.095224e+003,2.212446e-001
5.099082e+003,2.172433e-001
5.102938e+003,2.170244e-001
5.106795e+003,2.202151e-001
5.110653e+003,2.154352e-001
5.114510e+003,2.112339e-001
5.118367e+003,2.132853e-001
5.122224e+003,2.140669e-001
5.126081e+003,2.131089e-001
5.129938e+003,2.121611e-001
5.133795e+003,2.168282e-001
5.137652e+003,2.176523e-001
5.141509e+003,2.040151e-001
5.145367e+003,2.012904e-001
5.149224e+003,2.125785e-001
5.153081e+003,2.189604e-001
5.156938e+003,2.237698e-001
5.160795e+003,2.256771e-001
5.164652e+003,2.240656e-001
5.168509e+003,2.022807e-001
5.172366e+003,1.891808e-001
5.176223e+003,2.097664e-001
5.180081e+003,2.218039e-001
5.183938e+003,2.240791e-001
5.187794e+003,2.260723e-001
5.191652e+003,2.268018e-001
5.195509e+003,2.208950e-001
5.199366e+003,2.092635e-001
5.203223e+003,2.061955e-001
5.207080e+003,2.148655e-001
5.210937e+003,2.296237e-001
5.214794e+003,2.246086e-001
5.218651e+003,2.182561e-001
5.222508e+003,2.133124e-001
5.226366e+003,2.132591e-001
5.230223e+003,2.315539e-001
5.234080e+003,2.384372e-001
5.237937e+003,2.253398e-001
5.241794e+003,2.148665e-001
5.245651e+003,2.175462e-001
5.249508e+003,2.202936e-001
5.253365e+003,2.121706e-001
5.257222e+003,2.090123e-001
5.261080e+003,2.196743e-001
5.264937e+003,2.220181e-001
5.268793e+003,2.070804e-001
5.272651e+003,2.015982e-001
5.276508e+003,1.938848e-001
5.280365e+003,1.891048e-001
5.284222e+003,1.989168e-001
5.288079e+003,2.096523e-001
5.291936e+003,2.040062e-001
5.295793e+003,1.988816e-001
5.299650e+003,1.975489e-001
5.303507e+003,1.980120e-001
5.307365e+003,2.092319e-001
5.311222e+003,2.111990e-001
5.315079e+003,2.043587e-001
5.318936e+003,2.051844e-001
5.322793e+003,2.133150e-001
5.326650e+003,2.166533e-001
5.330507e+003,2.223489e-001
5.334364e+003,2.195864e-001
5.338221e+003,2.143287e-001
5.342079e+003,2.097524e-001
5.345936e+003,2.146844e-001
5.349792e+003,2.321660e-001
5.353650e+003,2.266826e-001
5.357507e+003,2.202296e-001
5.361364e+003,2.235202e-001
5.365221e+003,2.182742e-001
5.369078e+003,2.096430e-001
5.372935e+003,2.147052e-001
5.376792e+003,2.190396e-001
5.380649e+003,2.179483e-001
5.384506e+003,2.138353e-001
5.388364e+003,2.061371e-001
5.392221e+003,2.024720e-001
5.396078e+003,2.085797e-001
5.399935e+003,2.138738e-001
5.403792e+003,2.231332e-001
5.407649e+003,2.120327e-001
5.411506e+003,1.999168e-001
5.415363e+003,2.049127e-001
5.419220e+003,2.230173e-001
5.423078e+003,2.251031e-001
5.426935e+003,2.085620e-001
5.430792e+003,1.989670e-001
5.434649e+003,2.051500e-001
5.438506e+003,2.081144e-001
5.442363e+003,2.097916e-001
5.446220e+003,2.066018e-001
5.450077e+003,1.988927e-001
5.453934e+003,2.062170e-001
5.457792e+003,2.158668e-001
5.461648e+003,2.089143e-001
5.465505e+003,2.050360e-001
5.469363e+003,2.109293e-001
5.473220e+003,2.134613e-001
5.477077e+003,2.145054e-001
5.480934e+003,2.184219e-001
5.484791e+003,2.213056e-001
5.488648e+003,2.157054e-001
5.492505e+003,2.051146e-001
5.496362e+003,1.965711e-001
5.500219e+003,2.019974e-001
5.504077e+003,2.150213e-001
5.507934e+003,2.265679e-001
5.511791e+003,2.271565e-001
5.515648e+003,2.120020e-001
5.519505e+003,2.099576e-001
5.523362e+003,2.086244e-001
5.527219e+003,2.028273e-001
5.531076e+003,2.219342e-001
5.534933e+003,2.254384e-001
5.538791e+003,2.081101e-001
5.542647e+003,2.083467e-001
5.546504e+003,2.116069e-001
5.550362e+003,1.992695e-001
5.554219e+003,1.981736e-001
5.558076e+003,2.038668e-001
5.561933e+003,2.087552e-001
5.565790e+003,2.135956e-001
5.569647e+003,2.037359e-001
5.573504e+003,1.952464e-001
5.577361e+003,1.979347e-001
5.581218e+003,2.000788e-001
5.585076e+003,2.081534e-001
5.588933e+003,2.080136e-001
5.592790e+003,1.965374e-001
5.596647e+003,1.964607e-001
5.600504e+003,2.044410e-001
5.604361e+003,1.997874e-001
5.608218e+003,1.952913e-001
5.612075e+003,2.049878e-001
5.615932e+003,2.141821e-001
5.619790e+003,2.314285e-001
5.623646e+003,2.333337e-001
5.627503e+003,2.256639e-001
5.631361e+003,2.125875e-001
5.635218e+003,2.005290e-001
5.639075e+003,1.990050e-001
5.642932e+003,2.032348e-001
5.646789e+003,2.010313e-001
5.650646e+003,2.044402e-001
5.654503e+003,2.115521e-001
5.658360e+003,2.153536e-001
5.662217e+003,2.113091e-001
5.666075e+003,2.127136e-001
5.669932e+003,2.118515e-001
5.673789e+003,2.028894e-001
5.677646e+003,2.017393e-001
5.681503e+003,2.098395e-001
5.685360e+003,2.227609e-001
5.689217e+003,2.198225e-001
5.693074e+003,2.121394e-001
5.696931e+003,2.090079e-001
5.700789e+003,1.997331e-001
5.704646e+003,1.903822e-001
5.708502e+003,1.977807e-001
5.712360e+003,2.068033e-001
5.716217e+003,2.098560e-001
5.720074e+003,2.268865e-001
5.723931e+003,2.321381e-001
5.727788e+003,2.151434e-001
5.731645e+003,2.012649e-001
5.735502e+003,2.084951e-001
5.739359e+003,2.155586e-001
5.743216e+003,2.114559e-001
5.747074e+003,2.107643e-001
5.750931e+003,2.119657e-001
5.754788e+003,2.175557e-001
5.758645e+003,2.232571e-001
5.762502e+003,2.289471e-001
5.766359e+003,2.164155e-001
5.770216e+003,1.958556e-001
5.774073e+003,2.023313e-001
5.777930e+003,2.055690e-001
5.781788e+003,2.030220e-001
5.785645e+003,2.088235e-001
5.789501e+003,2.094845e-001
5.793359e+003,2.140347e-001
5.797216e+003,2.158429e-001
5.801073e+003,2.164296e-001
5.804930e+003,2.149953e-001
5.808787e+003,2.081166e-001
5.812644e+003,2.145290e-001
5.816501e+003,2.171837e-001
5.820358e+003,1.964347e-001
5.824215e+003,2.031336e-001
5.828073e+003,2.207723e-001
5.831930e+003,2.139459e-001
5.835787e+003,2.092686e-001
5.839644e+003,2.058786e-001
5.843501e+003,1.999927e-001
5.847358e+003,1.991598e-001
5.851215e+003,2.030156e-001
5.855072e+003,2.095345e-001
5.858929e+003,2.172846e-001
5.862787e+003,2.062333e-001
5.866644e+003,1.955374e-001
5.870500e+003,1.985789e-001
5.874358e+003,2.058285e-001
5.878215e+003,2.144481e-001
5.882072e+003,2.280956e-001
5.885929e+003,2.260633e-001
5.889786e+003,2.099306e-001
5.893643e+003,2.005806e-001
5.897500e+003,2.035342e-001
5.901357e+003,2.115089e-001
5.905214e+003,2.171829e-001
5.909072e+003,2.231636e-001
5.912929e+003,2.296069e-001
5.916786e+003,2.184267e-001
5.920643e+003,2.044276e-001
5.924500e+003,2.016223e-001
5.928357e+003,1.999779e-001
5.932214e+003,2.030054e-001
5.936071e+003,2.066885e-001
5.939928e+003,2.045416e-001
5.943786e+003,2.114841e-001
5.947643e+003,2.144426e-001
5.951500e+003,2.204394e-001
5.955357e+003,2.273950e-001
5.959214e+003,2.171956e-001
5.963071e+003,2.208785e-001
5.966928e+003,2.372605e-001
5.970785e+003,2.326784e-001
5.974642e+003,2.174906e-001
5.978500e+003,1.950312e-001
5.982356e+003,1.873192e-001
5.986213e+003,2.036532e-001
5.990071e+003,2.081012e-001
5.993928e+003,2.181356e-001
5.997785e+003,2.352059e-001
6.001642e+003,2.279375e-001
6.005499e+003,2.160957e-001
6.009356e+003,2.104176e-001
6.013213e+003,2.170242e-001
6.017070e+003,2.169509e-001
6.020927e+003,2.073023e-001
6.024785e+003,2.070848e-001
6.028642e+003,2.025697e-001
6.032499e+003,2.056527e-001
6.036356e+003,2.159889e-001
6.040213e+003,2.016209e-001
6.044070e+003,1.891164e-001
6.047927e+003,2.049133e-001
6.051784e+003,2.151223e-001
6.055641e+003,2.155766e-001
6.059499e+003,2.191618e-001
6.063355e+003,2.079857e-001
6.067212e+003,2.054984e-001
6.071070e+003,2.045380e-001
6.074927e+003,2.124702e-001
6.078784e+003,2.219296e-001
6.082641e+003,2.115996e-001
6.086498e+003,2.036113e-001
6.090355e+003,2.022213e-001
6.094212e+003,1.937532e-001
6.098069e+003,2.128702e-001
6.101926e+003,2.124132e-001
6.105784e+003,2.002131e-001
6.109641e+003,2.153045e-001
6.113498e+003,2.110492e-001
6.117355e+003,2.034841e-001
6.121212e+003,2.140910e-001
6.125069e+003,2.228678e-001
6.128926e+003,2.155574e-001
6.132783e+003,2.023784e-001
6.136640e+003,1.824489e-001
6.140498e+003,1.835190e-001
6.144354e+003,1.986479e-001
6.148211e+003,2.160512e-001
6.152069e+003,2.245018e-001
6.155926e+003,2.105513e-001
6.159783e+003,2.035342e-001
6.163640e+003,2.112937e-001
6.167497e+003,2.147523e-001
6.171354e+003,2.146630e-001
6.175211e+003,2.150614e-001
6.179068e+003,2.123487e-001
6.182925e+003,2.067695e-001
6.186783e+003,1.996250e-001
6.190640e+003,2.004004e-001
6.194497e+003,2.054922e-001
6.198354e+003,2.056408e-001
6.202211e+003,2.021294e-001
6.206068e+003,2.011160e-001
6.209925e+003,2.010200e-001
6.213782e+003,1.948622e-001
6.217639e+003,1.906251e-001
6.221497e+003,1.889289e-001
6.225354e+003,2.137036e-001
6.229210e+003,2.542536e-001
6.233068e+003,2.430557e-001
6.236925e+003,2.183782e-001
6.240782e+003,2.161395e-001
6.244639e+003,2.210804e-001
6.248496e+003,2.047262e-001
6.252353e+003,2.071366e-001
6.256210e+003,2.025871e-001
6.260067e+003,1.896437e-001
6.263924e+003,1.999820e-001
6.267782e+003,2.127211e-001
6.271639e+003,2.038087e-001
6.275496e+003,1.898949e-001
6.279353e+003,1.919726e-001
6.283210e+003,2.093785e-001
6.287067e+003,2.183562e-001
6.290924e+003,2.191324e-001
6.294781e+003,2.209941e-001
6.298638e+003,2.181000e-001
6.302496e+003,2.089717e-001
6.306353e+003,2.130751e-001
6.310209e+003,2.223529e-001
6.314067e+003,2.183298e-001
6.317924e+003,1.936142e-001
6.321781e+003,1.946805e-001
6.325638e+003,1.990702e-001
6.329495e+003,2.004609e-001
6.333352e+003,2.083551e-001
6.337209e+003,2.124013e-001
6.341066e+003,2.180858e-001
6.344923e+003,2.099633e-001
6.348780e+003,1.904400e-001
6.352638e+003,1.827223e-001
6.356495e+003,1.858238e-001
6.360352e+003,2.001846e-001
6.364209e+003,2.170704e-001
6.368066e+003,2.259154e-001
6.371923e+003,2.247506e-001
6.375780e+003,2.207291e-001
6.379637e+003,2.275581e-001
6.383494e+003,2.262514e-001
6.387352e+003,2.232179e-001
6.391208e+003,2.207424e-001
6.395065e+003,2.211508e-001
6.398923e+003,2.198113e-001
6.402780e+003,2.068269e-001
6.406637e+003,2.015263e-001
6.410494e+003,2.068202e-001
6.414351e+003,2.017289e-001
6.418208e+003,1.905407e-001
6.422065e+003,1.868435e-001
6.425922e+003,1.841868e-001
6.429779e+003,1.919709e-001
6.433637e+003,2.094174e-001
6.437494e+003,2.021873e-001
6.441351e+003,1.861082e-001
6.445208e+003,1.885925e-001
6.449065e+003,2.171798e-001
6.452922e+003,2.326566e-001
6.456779e+003,2.192665e-001
6.460636e+003,2.208119e-001
6.464493e+003,2.320199e-001
6.468351e+003,2.178724e-001
6.472208e+003,2.075984e-001
6.476064e+003,1.990373e-001
6.479922e+003,2.169176e-001
6.483779e+003,2.122264e-001
6.487636e+003,1.886564e-001
6.491493e+003,1.942289e-001
6.495350e+003,2.022414e-001
6.499207e+003,1.873175e-001
6.503064e+003,2.039700e-001
6.506921e+003,2.240434e-001
6.510778e+003,2.239412e-001
6.514636e+003,2.137278e-001
6.518493e+003,1.892975e-001
6.522350e+003,1.814701e-001
6.526207e+003,1.896293e-001
6.530064e+003,1.865926e-001
6.533921e+003,1.790674e-001
6.537778e+003,1.734104e-001
6.541635e+003,1.814729e-001
6.545492e+003,2.000497e-001
6.549350e+003,1.949934e-001
6.553207e+003,1.802629e-001
6.557063e+003,1.784661e-001
6.560921e+003,2.007274e-001
6.564778e+003,2.224322e-001
6.568635e+003,2.062057e-001
6.572492e+003,1.869896e-001
6.576349e+003,2.010124e-001
6.580206e+003,1.914932e-001
6.584063e+003,1.889922e-001
6.587920e+003,1.986990e-001
6.591777e+003,1.935727e-001
6.595635e+003,1.996761e-001
6.599492e+003,1.983643e-001
6.603349e+003,1.865337e-001
6.607206e+003,1.844279e-001
6.611063e+003,1.926187e-001
6.614920e+003,2.065747e-001
6.618777e+003,2.324254e-001
6.622634e+003,2.549002e-001
6.626491e+003,2.559336e-001
6.630349e+003,2.499321e-001
6.634206e+003,2.412845e-001
6.638063e+003,2.220906e-001
6.641920e+003,2.033336e-001
6.645777e+003,2.028718e-001
6.649634e+003,2.186736e-001
6.653491e+003,2.438709e-001
6.657348e+003,2.439197e-001
6.661205e+003,2.157854e-001
6.665063e+003,2.097943e-001
6.668919e+003,2.172128e-001
6.672776e+003,2.188806e-001
6.676634e+003,2.089092e-001
6.680491e+003,1.875005e-001
6.684348e+003,1.964905e-001
6.688205e+003,2.266495e-001
6.692062e+003,2.343279e-001
6.695919e+003,2.016417e-001
6.699776e+003,1.815259e-001
6.703633e+003,1.722799e-001
6.707490e+003,1.933082e-001
6.711348e+003,2.198538e-001
6.715205e+003,2.075727e-001
6.719062e+003,1.999616e-001
6.722919e+003,2.084212e-001
6.726776e+003,2.040251e-001
6.730633e+003,2.161716e-001
6.734490e+003,2.000943e-001
6.738347e+003,1.781244e-001
6.742204e+003,1.854391e-001
6.746062e+003,1.982336e-001
6.749918e+003,2.025173e-001
6.753775e+003,1.946625e-001
6.757633e+003,1.863669e-001
6.761490e+003,1.945292e-001
6.765347e+003,2.139450e-001
6.769204e+003,2.033228e-001
6.773061e+003,1.829928e-001
6.776918e+003,1.972692e-001
6.780775e+003,2.124502e-001
6.784632e+003,2.310294e-001
6.788489e+003,2.142821e-001
6.792347e+003,2.006231e-001
6.796204e+003,2.255838e-001
6.800061e+003,2.183235e-001
6.803918e+003,2.035265e-001
6.807775e+003,1.936777e-001
6.811632e+003,1.936817e-001
6.815489e+003,2.004928e-001
6.819346e+003,2.276966e-001
6.823203e+003,2.544511e-001
6.827061e+003,2.341732e-001
6.830917e+003,2.029793e-001
6.834774e+003,2.125322e-001
6.838632e+003,1.996860e-001
6.842489e+003,1.962797e-001
6.846346e+003,2.006458e-001
6.850203e+003,2.097636e-001
6.854060e+003,1.961249e-001
6.857917e+003,2.108370e-001
6.861774e+003,2.212041e-001
6.865631e+003,2.196782e-001
6.869488e+003,2.098291e-001
6.873346e+003,1.845499e-001
6.877203e+003,1.781184e-001
6.881060e+003,1.989419e-001
6.884917e+003,1.907468e-001
6.888774e+003,1.890356e-001
6.892631e+003,2.051111e-001
6.896488e+003,2.434131e-001
6.900345e+003,2.487630e-001
6.904202e+003,2.226684e-001
6.908060e+003,2.218091e-001
6.911917e+003,2.411717e-001
6.915773e+003,2.352133e-001
6.919631e+003,2.279763e-001
6.923488e+003,2.002019e-001
6.927345e+003,2.023270e-001
6.931202e+003,2.414337e-001
6.935059e+003,2.571214e-001
6.938916e+003,2.131618e-001
6.942773e+003,1.909067e-001
6.946630e+003,1.965851e-001
6.950487e+003,2.128727e-001
6.954345e+003,2.115328e-001
6.958202e+003,1.780306e-001
6.962059e+003,1.793753e-001
6.965916e+003,2.006420e-001
6.969773e+003,2.105084e-001
6.973630e+003,2.271969e-001
6.977487e+003,2.569306e-001
6.981344e+003,2.467459e-001
6.985201e+003,2.051721e-001
6.989059e+003,2.050505e-001
6.992916e+003,2.092105e-001
6.996772e+003,1.806905e-001
7.000630e+003,1.716236e-001
7.004487e+003,2.286756e-001
7.008344e+003,2.656882e-001
7.012201e+003,2.274547e-001
7.016058e+003,2.257595e-001
7.019915e+003,2.395520e-001
7.023772e+003,2.231175e-001
7.027629e+003,1.870904e-001
7.031486e+003,1.846449e-001
7.035344e+003,1.909201e-001
7.039201e+003,2.169622e-001
7.043058e+003,2.286981e-001
7.046915e+003,1.883253e-001
7.050772e+003,1.768959e-001
7.054629e+003,1.998226e-001
7.058486e+003,1.811049e-001
7.062343e+003,1.712650e-001
7.066200e+003,2.094695e-001
7.070058e+003,1.999970e-001
7.073915e+003,1.624027e-001
7.077771e+003,1.575821e-001
7.081629e+003,1.564596e-001
7.085486e+003,2.039603e-001
7.089343e+003,2.426712e-001
7.093200e+003,2.270728e-001
7.097057e+003,1.978493e-001
7.100914e+003,2.121620e-001
7.104771e+003,2.312014e-001
7.108628e+003,2.453423e-001
7.112485e+003,2.378341e-001
7.116343e+003,2.437868e-001
7.120200e+003,2.727268e-001
7.124057e+003,2.967933e-001
7.127914e+003,2.625965e-001
7.131771e+003,2.310511e-001
7.135628e+003,2.314170e-001
7.139485e+003,2.162032e-001
7.143342e+003,1.850464e-001
7.147199e+003,1.512760e-001
7.151057e+003,1.509169e-001
7.154914e+003,1.392112e-001
7.158771e+003,1.433489e-001
7.162628e+003,2.222308e-001
7.166485e+003,2.297326e-001
7.170342e+003,1.917448e-001
7.174199e+003,2.192713e-001
7.178056e+003,2.317037e-001
7.181913e+003,1.886136e-001
7.185771e+003,2.053770e-001
7.189627e+003,1.932885e-001
7.193484e+003,1.848390e-001
7.197342e+003,2.416276e-001
7.201199e+003,2.176893e-001
7.205056e+003,2.077036e-001
7.208913e+003,2.063368e-001
7.212770e+003,2.120776e-001
7.216627e+003,2.507319e-001
7.220484e+003,1.913199e-001
7.224341e+003,1.586387e-001
7.228198e+003,1.950711e-001
7.232056e+003,2.047633e-001
7.235913e+003,1.889782e-001
7.239770e+003,1.777715e-001
7.243627e+003,1.875022e-001
7.247484e+003,2.042841e-001
7.251341e+003,2.071195e-001
7.255198e+003,1.852765e-001
7.259055e+003,2.015565e-001
7.262912e+003,2.387932e-001
7.266770e+003,2.139829e-001
7.270626e+003,2.163232e-001
7.274483e+003,2.197657e-001
7.278341e+003,2.139264e-001
7.282198e+003,2.378967e-001
7.286055e+003,2.308651e-001
7.289912e+003,2.161290e-001
7.293769e+003,1.967478e-001
7.297626e+003,1.652582e-001
7.301483e+003,1.435406e-001
7.305340e+003,1.661759e-001
7.309197e+003,2.033675e-001
7.313055e+003,2.136857e-001
7.316912e+003,2.376208e-001
7.320769e+003,2.379688e-001
7.324626e+003,2.318513e-001
7.328483e+003,2.231581e-001
7.332340e+003,2.043245e-001
7.336197e+003,2.049325e-001
7.340054e+003,2.098848e-001
7.343911e+003,1.933317e-001
7.347769e+003,1.323351e-001
7.351625e+003,1.344810e-001
7.355482e+003,1.861384e-001
7.359340e+003,1.735840e-001
7.363197e+003,1.541964e-001
7.367054e+003,2.291873e-001
7.370911e+003,2.225463e-001
7.374768e+003,1.495392e-001
7.378625e+003,1.623586e-001
7.382482e+003,1.909102e-001
7.386339e+003,1.645485e-001
7.390196e+003,1.848594e-001
7.394054e+003,2.401595e-001
7.397911e+003,2.234921e-001
7.401768e+003,1.844964e-001
7.405625e+003,1.638292e-001
7.409482e+003,1.875911e-001
7.413339e+003,2.068407e-001
7.417196e+003,1.785134e-001
7.421053e+003,1.637320e-001
7.424910e+003,1.604442e-001
7.428768e+003,2.052037e-001
7.432625e+003,2.225913e-001
7.436481e+003,2.193515e-001
7.440339e+003,2.125548e-001
7.444196e+003,2.159990e-001
7.448053e+003,2.351482e-001
7.451910e+003,2.559164e-001
7.455767e+003,2.254348e-001
7.459624e+003,1.918378e-001
7.463481e+003,1.694385e-001
7.467338e+003,1.893384e-001
7.471195e+003,1.876998e-001
7.475053e+003,2.032192e-001
7.478910e+003,1.892028e-001
7.482767e+003,1.564820e-001
7.486624e+003,1.455131e-001
7.490481e+003,2.068133e-001
7.494338e+003,2.811096e-001
7.498195e+003,2.265356e-001
7.502052e+003,1.703946e-001
7.505909e+003,1.967209e-001
7.509767e+003,2.298149e-001
7.513624e+003,2.005294e-001
7.517480e+003,1.624728e-001
7.521338e+003,1.943690e-001
7.525195e+003,2.129882e-001
7.529052e+003,2.073137e-001
7.532909e+003,2.224439e-001
7.536766e+003,1.763493e-001
7.540623e+003,1.140329e-001
7.544480e+003,1.235242e-001
7.548337e+003,1.889344e-001
7.552194e+003,1.808797e-001
7.556052e+003,1.859934e-001
7.559909e+003,2.095206e-001
7.563766e+003,2.363777e-001
7.567623e+003,2.820251e-001
7.571480e+003,2.393116e-001
7.575337e+003,1.417656e-001
7.579194e+003,1.714661e-001
7.583051e+003,1.579621e-001
7.586908e+003,1.121242e-001
7.590766e+003,1.561084e-001
7.594623e+003,1.730954e-001
7.598479e+003,1.677693e-001
7.602337e+003,2.155660e-001
7.606194e+003,2.282573e-001
7.610051e+003,2.313894e-001
7.613908e+003,2.556179e-001
7.617765e+003,1.780054e-001
7.621622e+003,1.065482e-001
7.625479e+003,1.293779e-001
7.629336e+003,1.647364e-001
7.633193e+003,2.090225e-001
7.637051e+003,2.426638e-001
7.640908e+003,2.011546e-001
7.644765e+003,1.770384e-001
7.648622e+003,2.155845e-001
7.652479e+003,2.466912e-001
7.656336e+003,2.057787e-001
7.660193e+003,1.856749e-001
7.664050e+003,2.672899e-001
7.667907e+003,2.511241e-001
7.671765e+003,2.647112e-001
7.675622e+003,2.345195e-001
7.679479e+003,1.458671e-001
7.683336e+003,1.622817e-001
7.687193e+003,1.691226e-001
7.691050e+003,2.374313e-001
7.694907e+003,2.778220e-001
7.698764e+003,2.242733e-001
7.702621e+003,1.664059e-001
7.706479e+003,1.975091e-001
7.710335e+003,1.748841e-001
7.714192e+003,1.349207e-001
7.718050e+003,1.474903e-001
7.721907e+003,1.711741e-001
7.725764e+003,2.096558e-001
7.729621e+003,1.910397e-001
7.733478e+003,1.612532e-001
7.737335e+003,2.366461e-001
7.741192e+003,2.338434e-001
7.745049e+003,1.497857e-001
7.748906e+003,1.147100e-001
7.752764e+003,2.052351e-001
7.756621e+003,3.094414e-001
7.760478e+003,2.986997e-001
7.764335e+003,2.127632e-001
7.768192e+003,2.424606e-001
7.772049e+003,2.137617e-001
7.775906e+003,1.824260e-001
7.779763e+003,2.381360e-001
7.783620e+003,1.895963e-001
7.787478e+003,1.568581e-001
7.791334e+003,2.021224e-001
7.795191e+003,2.298900e-001
7.799049e+003,1.736320e-001
7.802906e+003,1.575896e-001
7.806763e+003,1.753147e-001
7.810620e+003,1.726236e-001
7.814477e+003,1.445641e-001
7.818334e+003,1.521546e-001
7.822191e+003,1.244096e-001
7.826048e+003,3.115383e-002
7.829905e+003,3.730351e-002
7.833763e+003,1.926418e-001
7.837620e+003,1.679457e-001
7.841477e+003,1.241814e-001
7.845334e+003,1.899173e-001
7.849191e+003,2.706139e-001
7.853048e+003,3.149607e-001
7.856905e+003,2.983873e-001
7.860762e+003,2.158287e-001
7.864619e+003,1.710680e-001
7.868477e+003,2.009817e-001
7.872333e+003,1.983274e-001
7.876190e+003,1.557720e-001
7.880048e+003,1.175958e-001
7.883905e+003,7.883553e-002
7.887762e+003,5.813973e-002
7.891619e+003,5.482113e-002
7.895476e+003,1.550871e-001
7.899333e+003,2.684954e-001
7.903190e+003,2.522006e-001
7.907047e+003,2.415146e-001
7.910904e+003,3.399506e-001
7.914762e+003,3.257928e-001
7.918619e+003,2.312859e-001
7.922476e+003,2.017082e-001
7.926333e+003,1.440968e-001
7.930190e+003,1.021555e-001
7.934047e+003,2.005816e-001
7.937904e+003,3.094287e-001
7.941761e+003,2.695499e-001
7.945618e+003,2.200855e-001
7.949476e+003,2.268793e-001
7.953333e+003,2.387516e-001
7.957189e+003,2.279636e-001
7.961047e+003,1.573884e-001
7.964904e+003,2.536688e-001
7.968761e+003,2.800360e-001
7.972618e+003,2.120827e-001
7.976475e+003,9.743202e-002
7.980332e+003,2.189277e-002
7.984189e+003,2.511626e-001
7.988046e+003,4.259670e-001
7.991903e+003,2.830524e-001
7.995761e+003,2.304496e-001
7.999618e+003,2.169192e-001
