4.011380e+002,6.000000e+000
4.049951e+002,6.000000e+000
4.088522e+002,-5.381736e-001
4.127093e+002,6.000000e+000
4.165664e+002,-1.306153e+000
4.204235e+002,-1.329234e+000
4.242806e+002,6.000000e+000
4.281377e+002,6.000000e+000
4.319948e+002,6.000000e+000
4.358519e+002,3.148185e-001
4.397090e+002,6.000000e+000
4.435661e+002,6.000000e+000
4.474232e+002,1.532402e+000
4.512803e+002,6.000000e+000
4.551374e+002,6.000000e+000
4.589945e+002,-3.700280e-001
4.628516e+002,6.000000e+000
4.667087e+002,6.000000e+000
4.705658e+002,6.000000e+000
4.744229e+002,6.000000e+000
4.782800e+002,6.000000e+000
4.821371e+002,6.000000e+000
4.859941e+002,6.000000e+000
4.898513e+002,6.000000e+000
4.937083e+002,6.000000e+000
4.975654e+002,6.000000e+000
5.014225e+002,6.000000e+000
5.052796e+002,6.000000e+000
5.091367e+002,-4.306858e-001
5.129938e+002,2.289018e-001
5.168509e+002,1.662059e-001
5.207080e+002,6.078351e-001
5.245651e+002,1.424028e+000
5.284222e+002,6.000000e+000
5.322793e+002,1.592335e-001
5.361364e+002,-5.227066e-001
5.399935e+002,4.915292e-001
5.438506e+002,7.936772e-001
5.477077e+002,5.701596e-001
5.515648e+002,-1.346673e-001
5.554219e+002,6.000000e+000
5.592790e+002,6.000000e+000
5.631361e+002,6.000000e+000
5.669932e+002,6.000000e+000
5.708503e+002,6.000000e+000
5.747074e+002,-7.280378e-001
5.785645e+002,3.400192e-001
5.824216e+002,6.000000e+000
5.862787e+002,4.433207e-001
5.901357e+002,4.031950e-001
5.939929e+002,6.000000e+000
5.978499e+002,6.000000e+000
6.017070e+002,6.000000e+000
6.055641e+002,5.348476e-001
6.094212e+002,1.260602e-001
6.132783e+002,-5.676408e-003
6.171354e+002,-2.305090e-001
6.209925e+002,-5.491139e-001
6.248496e+002,6.000000e+000
6.287067e+002,6.000000e+000
6.325638e+002,-1.322497e-001
6.364209e+002,-7.796817e-001
6.402780e+002,-1.360544e-001
6.441351e+002,-2.339920e-001
6.479922e+002,6.000000e+000
6.518493e+002,1.857931e-001
6.557064e+002,-5.060368e-002
6.595635e+002,-1.883201e-001
6.634205e+002,6.637844e-002
6.672777e+002,1.373834e+000
6.711348e+002,6.000000e+000
6.749918e+002,-3.924500e-001
6.788490e+002,-7.536142e-002
6.827061e+002,6.000000e+000
6.865631e+002,6.000000e+000
6.904203e+002,6.000000e+000
6.942773e+002,6.000000e+000
6.981344e+002,6.000000e+000
7.019916e+002,-1.691912e+000
7.058486e+002,8.191063e-002
7.097057e+002,6.000000e+000
7.135629e+002,6.000000e+000
7.174199e+002,-9.016246e-002
7.212770e+002,6.000000e+000
7.251342e+002,2.962511e-001
7.289912e+002,6.000000e+000
7.328483e+002,6.000000e+000
7.367054e+002,6.000000e+000
7.405625e+002,6.000000e+000
7.444196e+002,6.000000e+000
7.482767e+002,6.000000e+000
7.521338e+002,6.000000e+000
7.559908e+002,6.000000e+000
7.598480e+002,6.000000e+000
7.637051e+002,7.795622e-001
7.675621e+002,6.000000e+000
7.714193e+002,6.000000e+000
7.752764e+002,-1.000661e+000
7.791334e+002,-5.756060e-001
7.829905e+002,-1.571552e-001
7.868477e+002,7.693144e-001
7.907047e+002,-2.374055e-001
7.945618e+002,-2.023168e-001
7.984189e+002,9.986208e-001
8.022760e+002,6.000000e+000
8.061331e+002,5.401219e-002
8.099902e+002,-3.510046e-001
8.138473e+002,-7.497172e-002
8.177044e+002,4.873790e-001
8.215615e+002,1.865886e+000
8.254186e+002,9.127191e-001
8.292757e+002,1.185416e+000
8.331328e+002,1.680194e+000
8.369899e+002,6.000000e+000
8.408470e+002,6.000000e+000
8.447041e+002,6.000000e+000
8.485612e+002,6.000000e+000
8.524183e+002,6.000000e+000
8.562754e+002,6.000000e+000
8.601324e+002,6.000000e+000
8.639896e+002,6.000000e+000
8.678467e+002,6.000000e+000
8.717037e+002,6.000000e+000
8.755609e+002,6.000000e+000
8.794180e+002,6.000000e+000
8.832750e+002,6.000000e+000
8.871321e+002,1.673358e+000
8.909893e+002,1.543338e+000
8.948463e+002,1.204501e+000
8.987034e+002,1.409361e+000
9.025605e+002,2.035789e+000
9.064176e+002,1.817705e+000
9.102747e+002,2.294645e+000
9.141318e+002,6.000000e+000
9.179889e+002,1.759872e+000
9.218461e+002,1.378083e+000
9.257031e+002,1.559988e+000
9.295602e+002,1.638764e+000
9.334174e+002,1.625917e+000
9.372744e+002,1.663715e+000
9.411315e+002,1.712131e+000
9.449886e+002,1.932198e+000
9.488457e+002,1.786792e+000
9.527028e+002,1.635732e+000
9.565599e+002,1.695614e+000
9.604170e+002,1.742518e+000
9.642740e+002,1.596246e+000
9.681312e+002,1.967020e+000
9.719883e+002,6.000000e+000
9.758453e+002,2.273503e+000
9.797025e+002,2.438616e+000
9.835596e+002,2.810223e+000
9.874166e+002,2.063829e+000
9.912738e+002,1.968461e+000
9.951309e+002,2.088228e+000
9.989879e+002,2.726392e+000
1.002845e+003,6.000000e+000
1.006702e+003,6.000000e+000
1.010559e+003,2.972045e+000
1.014416e+003,2.018839e+000
1.018273e+003,2.125050e+000
1.022130e+003,6.000000e+000
1.025988e+003,2.544901e+000
1.029845e+003,1.950338e+000
1.033702e+003,1.857137e+000
1.037559e+003,1.815765e+000
1.041416e+003,2.277742e+000
1.045273e+003,6.000000e+000
1.049130e+003,6.000000e+000
1.052987e+003,6.000000e+000
1.056844e+003,2.368827e+000
1.060702e+003,2.171296e+000
1.064559e+003,2.113569e+000
1.068416e+003,2.100261e+000
1.072273e+003,1.937385e+000
1.076130e+003,1.884445e+000
1.079987e+003,2.116973e+000
1.083844e+003,2.390809e+000
1.087701e+003,2.334925e+000
1.091558e+003,2.889161e+000
1.095415e+003,2.290153e+000
1.099272e+003,1.980093e+000
1.103130e+003,2.395320e+000
1.106987e+003,2.301243e+000
1.110844e+003,1.872116e+000
1.114701e+003,1.909444e+000
1.118558e+003,2.198221e+000
1.122415e+003,2.062330e+000
1.126272e+003,1.935572e+000
1.130129e+003,2.067018e+000
1.133986e+003,1.968784e+000
1.137843e+003,1.928706e+000
1.141701e+003,1.804605e+000
1.145558e+003,1.722169e+000
1.149415e+003,1.783289e+000
1.153272e+003,1.778379e+000
1.157129e+003,1.788427e+000
1.160986e+003,1.832245e+000
1.164843e+003,1.743014e+000
1.168700e+003,1.716020e+000
1.172557e+003,1.867133e+000
1.176414e+003,1.981487e+000
1.180271e+003,1.907064e+000
1.184129e+003,1.867993e+000
1.187986e+003,1.763692e+000
1.191843e+003,1.743692e+000
1.195700e+003,1.771646e+000
1.199557e+003,1.773424e+000
1.203414e+003,1.813723e+000
1.207271e+003,1.804581e+000
1.211128e+003,1.771596e+000
1.214985e+003,1.691895e+000
1.218842e+003,1.639069e+000
1.222699e+003,1.616390e+000
1.226557e+003,1.639357e+000
1.230414e+003,1.519732e+000
1.234271e+003,1.423364e+000
1.238128e+003,1.365638e+000
1.241985e+003,1.319120e+000
1.245842e+003,1.258219e+000
1.249699e+003,1.186737e+000
1.253556e+003,1.148847e+000
1.257413e+003,1.138610e+000
1.261271e+003,1.096291e+000
1.265128e+003,1.049466e+000
1.268985e+003,1.016504e+000
1.272842e+003,9.826752e-001
1.276699e+003,9.485350e-001
1.280556e+003,9.119877e-001
1.284413e+003,8.831466e-001
1.288270e+003,8.658629e-001
1.292127e+003,8.418565e-001
1.295984e+003,8.203915e-001
1.299841e+003,8.063378e-001
1.303698e+003,7.892786e-001
1.307556e+003,7.706978e-001
1.311413e+003,7.523172e-001
1.315270e+003,7.378374e-001
1.319127e+003,7.309553e-001
1.322984e+003,7.254038e-001
1.326841e+003,7.123867e-001
1.330698e+003,6.965375e-001
1.334555e+003,6.851289e-001
1.338412e+003,6.823670e-001
1.342270e+003,6.817276e-001
1.346127e+003,6.764148e-001
1.349984e+003,6.727387e-001
1.353841e+003,6.706334e-001
1.357698e+003,6.741663e-001
1.361555e+003,6.801935e-001
1.365412e+003,6.837037e-001
1.369269e+003,6.865133e-001
1.373126e+003,6.968862e-001
1.376983e+003,7.209975e-001
1.380840e+003,7.349549e-001
1.384698e+003,7.426398e-001
1.388555e+003,7.579750e-001
1.392412e+003,7.724823e-001
1.396269e+003,7.835332e-001
1.400126e+003,8.081237e-001
1.403983e+003,8.376140e-001
1.407840e+003,8.631141e-001
1.411697e+003,8.807248e-001
1.415554e+003,8.911473e-001
1.419411e+003,9.002040e-001
1.423269e+003,9.267696e-001
1.427126e+003,9.480067e-001
1.430983e+003,9.442327e-001
1.434840e+003,9.388911e-001
1.438697e+003,9.502996e-001
1.442554e+003,9.394039e-001
1.446411e+003,9.119052e-001
1.450268e+003,8.966943e-001
1.454125e+003,8.873892e-001
1.457982e+003,8.820266e-001
1.461839e+003,8.722728e-001
1.465697e+003,8.567792e-001
1.469554e+003,8.455054e-001
1.473411e+003,8.496770e-001
1.477268e+003,8.579407e-001
1.481125e+003,8.540666e-001
1.484982e+003,8.678679e-001
1.488839e+003,8.957178e-001
1.492696e+003,9.156639e-001
1.496553e+003,9.256935e-001
1.500411e+003,9.295879e-001
1.504268e+003,9.355177e-001
1.508125e+003,9.416001e-001
1.511982e+003,9.411062e-001
1.515839e+003,9.458616e-001
1.519696e+003,9.445341e-001
1.523553e+003,9.305168e-001
1.527410e+003,9.145209e-001
1.531267e+003,9.005137e-001
1.535124e+003,8.907390e-001
1.538981e+003,8.665608e-001
1.542839e+003,8.421391e-001
1.546696e+003,8.179096e-001
1.550553e+003,7.968620e-001
1.554410e+003,7.813423e-001
1.558267e+003,7.685282e-001
1.562124e+003,7.565954e-001
1.565981e+003,7.508116e-001
1.569838e+003,7.455960e-001
1.573695e+003,7.363804e-001
1.577552e+003,7.279134e-001
1.581410e+003,7.241471e-001
1.585267e+003,7.243617e-001
1.589124e+003,7.343951e-001
1.592981e+003,7.483687e-001
1.596838e+003,7.628071e-001
1.600695e+003,7.821341e-001
1.604552e+003,8.095349e-001
1.608409e+003,8.463183e-001
1.612266e+003,8.895157e-001
1.616123e+003,9.279122e-001
1.619980e+003,9.644298e-001
1.623838e+003,9.996969e-001
1.627695e+003,1.040200e+000
1.631552e+003,1.072069e+000
1.635409e+003,1.093303e+000
1.639266e+003,1.096965e+000
1.643123e+003,1.070403e+000
1.646980e+003,1.042595e+000
1.650837e+003,1.013658e+000
1.654694e+003,9.900653e-001
1.658551e+003,9.656643e-001
1.662409e+003,9.197741e-001
1.666266e+003,8.798909e-001
1.670123e+003,8.443831e-001
1.673980e+003,8.176720e-001
1.677837e+003,7.919667e-001
1.681694e+003,7.586690e-001
1.685551e+003,7.302123e-001
1.689408e+003,7.064144e-001
1.693265e+003,6.864476e-001
1.697122e+003,6.694143e-001
1.700979e+003,6.523094e-001
1.704837e+003,6.380072e-001
1.708694e+003,6.223356e-001
1.712551e+003,6.100945e-001
1.716408e+003,6.063972e-001
1.720265e+003,6.018735e-001
1.724122e+003,5.950650e-001
1.727979e+003,5.827332e-001
1.731836e+003,5.777419e-001
1.735693e+003,5.768269e-001
1.739550e+003,5.719978e-001
1.743408e+003,5.666322e-001
1.747265e+003,5.665768e-001
1.751122e+003,5.673077e-001
1.754979e+003,5.638692e-001
1.758836e+003,5.630142e-001
1.762693e+003,5.650529e-001
1.766550e+003,5.647401e-001
1.770407e+003,5.647693e-001
1.774264e+003,5.627100e-001
1.778121e+003,5.611909e-001
1.781979e+003,5.640261e-001
1.785836e+003,5.617785e-001
1.789693e+003,5.523905e-001
1.793550e+003,5.482298e-001
1.797407e+003,5.454442e-001
1.801264e+003,5.422865e-001
1.805121e+003,5.390105e-001
1.808978e+003,5.357698e-001
1.812835e+003,5.324114e-001
1.816692e+003,5.332921e-001
1.820549e+003,5.346327e-001
1.824407e+003,5.316195e-001
1.828264e+003,5.266986e-001
1.832121e+003,5.225158e-001
1.835978e+003,5.195009e-001
1.839835e+003,5.150115e-001
1.843692e+003,5.137908e-001
1.847549e+003,5.145859e-001
1.851406e+003,5.098811e-001
1.855263e+003,5.048923e-001
1.859120e+003,5.037178e-001
1.862978e+003,5.021179e-001
1.866835e+003,5.000986e-001
1.870692e+003,4.965326e-001
1.874549e+003,4.973805e-001
1.878406e+003,4.950092e-001
1.882263e+003,4.898946e-001
1.886120e+003,4.866453e-001
1.889977e+003,4.837202e-001
1.893834e+003,4.778056e-001
1.897691e+003,4.785840e-001
1.901548e+003,4.772643e-001
1.905406e+003,4.739449e-001
1.909263e+003,4.731816e-001
1.913120e+003,4.719744e-001
1.916977e+003,4.708889e-001
1.920834e+003,4.690534e-001
1.924691e+003,4.618437e-001
1.928548e+003,4.572940e-001
1.932405e+003,4.555415e-001
1.936262e+003,4.518979e-001
1.940119e+003,4.473517e-001
1.943977e+003,4.448367e-001
1.947834e+003,4.444923e-001
1.951691e+003,4.423842e-001
1.955548e+003,4.394775e-001
1.959405e+003,4.358414e-001
1.963262e+003,4.342994e-001
1.967119e+003,4.312110e-001
1.970976e+003,4.285954e-001
1.974833e+003,4.247194e-001
1.978690e+003,4.200600e-001
1.982547e+003,4.153848e-001
1.986405e+003,4.122940e-001
1.990262e+003,4.127354e-001
1.994119e+003,4.135922e-001
1.997976e+003,4.102705e-001
2.001833e+003,4.081063e-001
2.005690e+003,4.068857e-001
2.009547e+003,4.060273e-001
2.013404e+003,4.073043e-001
2.017261e+003,4.061512e-001
2.021118e+003,4.024544e-001
2.024976e+003,3.993819e-001
2.028833e+003,3.970156e-001
2.032690e+003,3.954763e-001
2.036547e+003,3.930464e-001
2.040404e+003,3.881712e-001
2.044261e+003,3.881152e-001
2.048118e+003,3.875813e-001
2.051975e+003,3.831696e-001
2.055832e+003,3.805710e-001
2.059689e+003,3.803054e-001
2.063546e+003,3.797647e-001
2.067404e+003,3.782081e-001
2.071261e+003,3.750179e-001
2.075118e+003,3.731621e-001
2.078975e+003,3.737439e-001
2.082832e+003,3.738587e-001
2.086689e+003,3.705469e-001
2.090546e+003,3.667155e-001
2.094403e+003,3.664881e-001
2.098260e+003,3.672577e-001
2.102117e+003,3.671528e-001
2.105975e+003,3.672926e-001
2.109832e+003,3.665478e-001
2.113689e+003,3.651581e-001
2.117546e+003,3.648875e-001
2.121403e+003,3.630985e-001
2.125260e+003,3.608330e-001
2.129117e+003,3.623937e-001
2.132974e+003,3.638274e-001
2.136831e+003,3.645189e-001
2.140688e+003,3.656222e-001
2.144545e+003,3.669206e-001
2.148403e+003,3.695091e-001
2.152260e+003,3.698277e-001
2.156117e+003,3.677993e-001
2.159974e+003,3.675123e-001
2.163831e+003,3.691092e-001
2.167688e+003,3.712913e-001
2.171545e+003,3.729382e-001
2.175402e+003,3.723230e-001
2.179259e+003,3.713936e-001
2.183116e+003,3.720622e-001
2.186974e+003,3.723362e-001
2.190831e+003,3.718207e-001
2.194688e+003,3.732030e-001
2.198545e+003,3.772939e-001
2.202402e+003,3.789911e-001
2.206259e+003,3.782111e-001
2.210116e+003,3.805129e-001
2.213973e+003,3.819317e-001
2.217830e+003,3.820193e-001
2.221688e+003,3.827971e-001
2.225544e+003,3.850081e-001
2.229402e+003,3.874342e-001
2.233259e+003,3.877232e-001
2.237116e+003,3.876043e-001
2.240973e+003,3.903303e-001
2.244830e+003,3.911986e-001
2.248687e+003,3.934229e-001
2.252544e+003,3.977342e-001
2.256401e+003,3.997432e-001
2.260258e+003,4.028576e-001
2.264115e+003,4.047034e-001
2.267973e+003,4.027513e-001
2.271830e+003,4.053561e-001
2.275687e+003,4.090714e-001
2.279544e+003,4.074515e-001
2.283401e+003,4.083620e-001
2.287258e+003,4.130841e-001
2.291115e+003,4.167962e-001
2.294972e+003,4.166527e-001
2.298829e+003,4.158697e-001
2.302687e+003,4.194074e-001
2.306543e+003,4.219372e-001
2.310401e+003,4.221284e-001
2.314258e+003,4.255812e-001
2.318115e+003,4.275033e-001
2.321972e+003,4.249055e-001
2.325829e+003,4.251149e-001
2.329686e+003,4.235148e-001
2.333543e+003,4.253535e-001
2.337400e+003,4.264076e-001
2.341257e+003,4.279254e-001
2.345115e+003,4.314866e-001
2.348972e+003,4.280446e-001
2.352829e+003,4.301685e-001
2.356686e+003,4.319489e-001
2.360543e+003,4.286271e-001
2.364400e+003,4.306922e-001
2.368257e+003,4.345503e-001
2.372114e+003,4.350793e-001
2.375971e+003,4.308661e-001
2.379828e+003,4.315336e-001
2.383686e+003,4.353650e-001
2.387542e+003,4.371938e-001
2.391400e+003,4.372356e-001
2.395257e+003,4.386654e-001
2.399114e+003,4.410560e-001
2.402971e+003,4.391572e-001
2.406828e+003,4.388234e-001
2.410685e+003,4.429078e-001
2.414542e+003,4.437970e-001
2.418399e+003,4.393657e-001
2.422256e+003,4.366767e-001
2.426114e+003,4.334860e-001
2.429971e+003,4.295579e-001
2.433828e+003,4.290679e-001
2.437685e+003,4.298038e-001
2.441542e+003,4.302230e-001
2.445399e+003,4.287206e-001
2.449256e+003,4.305817e-001
2.453113e+003,4.337292e-001
2.456970e+003,4.339454e-001
2.460827e+003,4.323975e-001
2.464684e+003,4.314141e-001
2.468542e+003,4.306116e-001
2.472399e+003,4.288474e-001
2.476256e+003,4.248602e-001
2.480113e+003,4.229447e-001
2.483970e+003,4.258965e-001
2.487827e+003,4.261537e-001
2.491684e+003,4.230987e-001
2.495541e+003,4.239470e-001
2.499398e+003,4.290662e-001
2.503255e+003,4.293626e-001
2.507113e+003,4.289547e-001
2.510969e+003,4.289510e-001
2.514827e+003,4.292501e-001
2.518684e+003,4.294429e-001
2.522541e+003,4.296367e-001
2.526398e+003,4.296175e-001
2.530255e+003,4.306748e-001
2.534112e+003,4.329119e-001
2.537969e+003,4.336845e-001
2.541826e+003,4.344416e-001
2.545683e+003,4.349865e-001
2.549541e+003,4.376659e-001
2.553398e+003,4.431734e-001
2.557255e+003,4.464403e-001
2.561112e+003,4.481910e-001
2.564969e+003,4.505799e-001
2.568826e+003,4.494151e-001
2.572683e+003,4.489046e-001
2.576540e+003,4.473991e-001
2.580397e+003,4.477792e-001
2.584254e+003,4.494464e-001
2.588112e+003,4.514302e-001
2.591969e+003,4.591618e-001
2.595826e+003,4.627194e-001
2.599683e+003,4.621887e-001
2.603540e+003,4.668718e-001
2.607397e+003,4.696569e-001
2.611254e+003,4.737342e-001
2.615111e+003,4.780507e-001
2.618968e+003,4.791694e-001
2.622825e+003,4.803122e-001
2.626682e+003,4.802002e-001
2.630540e+003,4.850263e-001
2.634397e+003,4.903769e-001
2.638254e+003,4.932239e-001
2.642111e+003,4.961856e-001
2.645968e+003,5.013518e-001
2.649825e+003,5.085539e-001
2.653682e+003,5.122832e-001
2.657539e+003,5.140801e-001
2.661396e+003,5.200686e-001
2.665253e+003,5.236079e-001
2.669111e+003,5.269707e-001
2.672968e+003,5.323166e-001
2.676825e+003,5.359924e-001
2.680682e+003,5.411206e-001
2.684539e+003,5.473568e-001
2.688396e+003,5.480767e-001
2.692253e+003,5.482442e-001
2.696110e+003,5.558242e-001
2.699967e+003,5.651579e-001
2.703824e+003,5.681428e-001
2.707681e+003,5.717939e-001
2.711539e+003,5.790932e-001
2.715396e+003,5.844434e-001
2.719253e+003,5.895738e-001
2.723110e+003,5.985341e-001
2.726967e+003,6.048402e-001
2.730824e+003,6.078894e-001
2.734681e+003,6.114634e-001
2.738538e+003,6.152426e-001
2.742395e+003,6.218308e-001
2.746252e+003,6.291320e-001
2.750110e+003,6.383560e-001
2.753967e+003,6.395214e-001
2.757824e+003,6.390663e-001
2.761681e+003,6.482203e-001
2.765538e+003,6.581440e-001
2.769395e+003,6.647581e-001
2.773252e+003,6.711719e-001
2.777109e+003,6.790017e-001
2.780966e+003,6.842541e-001
2.784823e+003,6.921182e-001
2.788680e+003,7.003369e-001
2.792538e+003,7.093582e-001
2.796395e+003,7.185816e-001
2.800252e+003,7.227608e-001
2.804109e+003,7.254588e-001
2.807966e+003,7.323091e-001
2.811823e+003,7.402918e-001
2.815680e+003,7.434419e-001
2.819537e+003,7.523276e-001
2.823394e+003,7.600964e-001
2.827251e+003,7.673821e-001
2.831109e+003,7.754749e-001
2.834966e+003,7.841229e-001
2.838823e+003,7.950821e-001
2.842680e+003,8.013255e-001
2.846537e+003,8.025239e-001
2.850394e+003,8.013173e-001
2.854251e+003,8.111956e-001
2.858108e+003,8.303736e-001
2.861965e+003,8.479399e-001
2.865823e+003,8.572354e-001
2.869679e+003,8.567207e-001
2.873537e+003,8.582045e-001
2.877394e+003,8.659822e-001
2.881251e+003,8.761972e-001
2.885108e+003,8.807823e-001
2.888965e+003,8.851152e-001
2.892822e+003,8.962068e-001
2.896679e+003,9.040333e-001
2.900536e+003,9.145476e-001
2.904393e+003,9.224420e-001
2.908250e+003,9.306512e-001
2.912108e+003,9.398332e-001
2.915965e+003,9.464086e-001
2.919822e+003,9.548640e-001
2.923679e+003,9.590834e-001
2.927536e+003,9.582757e-001
2.931393e+003,9.747456e-001
2.935250e+003,1.000848e+000
2.939107e+003,1.007354e+000
2.942964e+003,1.005731e+000
2.946822e+003,1.014815e+000
2.950678e+003,1.033120e+000
2.954536e+003,1.048847e+000
2.958393e+003,1.058559e+000
2.962250e+003,1.057240e+000
2.966107e+003,1.061765e+000
2.969964e+003,1.076405e+000
2.973821e+003,1.099598e+000
2.977678e+003,1.106568e+000
2.981535e+003,1.099720e+000
2.985392e+003,1.108914e+000
2.989250e+003,1.115856e+000
2.993107e+003,1.121695e+000
2.996964e+003,1.150059e+000
3.000821e+003,1.162619e+000
3.004678e+003,1.156068e+000
3.008535e+003,1.151471e+000
3.012392e+003,1.169575e+000
3.016249e+003,1.186297e+000
3.020106e+003,1.202465e+000
3.023963e+003,1.221045e+000
3.027821e+003,1.212179e+000
3.031677e+003,1.209525e+000
3.035535e+003,1.228705e+000
3.039392e+003,1.239798e+000
3.043249e+003,1.255853e+000
3.047106e+003,1.276556e+000
3.050963e+003,1.271483e+000
3.054820e+003,1.276624e+000
3.058677e+003,1.294167e+000
3.062534e+003,1.297836e+000
3.066391e+003,1.311164e+000
3.070249e+003,1.332929e+000
3.074106e+003,1.346564e+000
3.077963e+003,1.343168e+000
3.081820e+003,1.332548e+000
3.085677e+003,1.361739e+000
3.089534e+003,1.392805e+000
3.093391e+003,1.392186e+000
3.097248e+003,1.389553e+000
3.101105e+003,1.372414e+000
3.104962e+003,1.380449e+000
3.108820e+003,1.424522e+000
3.112677e+003,1.421019e+000
3.116534e+003,1.411736e+000
3.120391e+003,1.430835e+000
3.124248e+003,1.480696e+000
3.128105e+003,1.513246e+000
3.131962e+003,1.484837e+000
3.135819e+003,1.474923e+000
3.139676e+003,1.481971e+000
3.143533e+003,1.493173e+000
3.147390e+003,1.522783e+000
3.151248e+003,1.568981e+000
3.155105e+003,1.559837e+000
3.158962e+003,1.545316e+000
3.162819e+003,1.570852e+000
3.166676e+003,1.550135e+000
3.170533e+003,1.524183e+000
3.174390e+003,1.538955e+000
3.178247e+003,1.539846e+000
3.182104e+003,1.552794e+000
3.185961e+003,1.608157e+000
3.189819e+003,1.655389e+000
3.193676e+003,1.675761e+000
3.197533e+003,1.659911e+000
3.201390e+003,1.649230e+000
3.205247e+003,1.704044e+000
3.209104e+003,1.748387e+000
3.212961e+003,1.694046e+000
3.216818e+003,1.648886e+000
3.220675e+003,1.644885e+000
3.224532e+003,1.700979e+000
3.228389e+003,1.756100e+000
3.232247e+003,1.713033e+000
3.236104e+003,1.693902e+000
3.239961e+003,1.760335e+000
3.243818e+003,1.798493e+000
3.247675e+003,1.740600e+000
3.251532e+003,1.712656e+000
3.255389e+003,1.714224e+000
3.259246e+003,1.702316e+000
3.263103e+003,1.689791e+000
3.266960e+003,1.698917e+000
3.270818e+003,1.746438e+000
3.274675e+003,1.780596e+000
3.278532e+003,1.788057e+000
3.282389e+003,1.764849e+000
3.286246e+003,1.682747e+000
3.290103e+003,1.688904e+000
3.293960e+003,1.756424e+000
3.297817e+003,1.797582e+000
3.301674e+003,1.736315e+000
3.305531e+003,1.709205e+000
3.309388e+003,1.736257e+000
3.313246e+003,1.805821e+000
3.317103e+003,1.823182e+000
3.320960e+003,1.790537e+000
3.324817e+003,1.784804e+000
3.328674e+003,1.813738e+000
3.332531e+003,1.794826e+000
3.336388e+003,1.812022e+000
3.340245e+003,1.822614e+000
3.344102e+003,1.837870e+000
3.347959e+003,1.831259e+000
3.351817e+003,1.824441e+000
3.355674e+003,1.848999e+000
3.359531e+003,1.845602e+000
3.363388e+003,1.900123e+000
3.367245e+003,1.957630e+000
3.371102e+003,1.908138e+000
3.374959e+003,1.877614e+000
3.378816e+003,1.935845e+000
3.382673e+003,1.989473e+000
3.386530e+003,1.994670e+000
3.390387e+003,1.933652e+000
3.394245e+003,1.984062e+000
3.398102e+003,2.091511e+000
3.401959e+003,2.015937e+000
3.405816e+003,1.922350e+000
3.409673e+003,1.888183e+000
3.413530e+003,1.953133e+000
3.417387e+003,1.982957e+000
3.421244e+003,2.083330e+000
3.425101e+003,2.128389e+000
3.428958e+003,2.117951e+000
3.432815e+003,2.018663e+000
3.436673e+003,1.898905e+000
3.440530e+003,1.918016e+000
3.444387e+003,1.973772e+000
3.448244e+003,2.007060e+000
3.452101e+003,1.994444e+000
3.455958e+003,1.979068e+000
3.459815e+003,1.900031e+000
3.463672e+003,1.961794e+000
3.467529e+003,1.959007e+000
3.471386e+003,1.966170e+000
3.475244e+003,1.931532e+000
3.479101e+003,1.992325e+000
3.482958e+003,2.151276e+000
3.486815e+003,2.207755e+000
3.490672e+003,2.087832e+000
3.494529e+003,1.894103e+000
3.498386e+003,1.845206e+000
3.502243e+003,1.894384e+000
3.506100e+003,1.932743e+000
3.509958e+003,2.008928e+000
3.513814e+003,1.965681e+000
3.517672e+003,1.986664e+000
3.521529e+003,1.973939e+000
3.525386e+003,1.935094e+000
3.529243e+003,2.000459e+000
3.533100e+003,2.031660e+000
3.536957e+003,2.016022e+000
3.540814e+003,1.995919e+000
3.544671e+003,2.081216e+000
3.548528e+003,2.179451e+000
3.552385e+003,2.140440e+000
3.556243e+003,2.026065e+000
3.560100e+003,1.958684e+000
3.563957e+003,1.961477e+000
3.567814e+003,2.016956e+000
3.571671e+003,2.015815e+000
3.575528e+003,1.967471e+000
3.579385e+003,1.894997e+000
3.583242e+003,1.822976e+000
3.587099e+003,1.887810e+000
3.590957e+003,1.967747e+000
3.594813e+003,1.907152e+000
3.598671e+003,1.835039e+000
3.602528e+003,1.787364e+000
3.606385e+003,1.771573e+000
3.610242e+003,1.779708e+000
3.614099e+003,1.723987e+000
3.617956e+003,1.695952e+000
3.621813e+003,1.563370e+000
3.625670e+003,1.412957e+000
3.629527e+003,1.347349e+000
3.633385e+003,1.282894e+000
3.637242e+003,1.181540e+000
3.641099e+003,1.089639e+000
3.644956e+003,1.007530e+000
3.648813e+003,9.209768e-001
3.652670e+003,8.366309e-001
3.656527e+003,7.651800e-001
3.660384e+003,6.981300e-001
3.664241e+003,6.309014e-001
3.668098e+003,5.726340e-001
3.671956e+003,5.252198e-001
3.675813e+003,4.798619e-001
3.679670e+003,4.403501e-001
3.683527e+003,4.088928e-001
3.687384e+003,3.819252e-001
3.691241e+003,3.552967e-001
3.695098e+003,3.289782e-001
3.698955e+003,3.058752e-001
3.702812e+003,2.879595e-001
3.706669e+003,2.737821e-001
3.710526e+003,2.638007e-001
3.714384e+003,2.552695e-001
3.718241e+003,2.439372e-001
3.722098e+003,2.352872e-001
3.725955e+003,2.306980e-001
3.729812e+003,2.250899e-001
3.733669e+003,2.186126e-001
3.737526e+003,2.135856e-001
3.741383e+003,2.132416e-001
3.745240e+003,2.116515e-001
3.749097e+003,2.069877e-001
3.752955e+003,2.035855e-001
3.756812e+003,2.029129e-001
3.760669e+003,2.004915e-001
3.764526e+003,1.989118e-001
3.768383e+003,1.997710e-001
3.772240e+003,1.981378e-001
3.776097e+003,1.945430e-001
3.779954e+003,1.934323e-001
3.783811e+003,1.906665e-001
3.787668e+003,1.880494e-001
3.791525e+003,1.870893e-001
3.795383e+003,1.867165e-001
3.799240e+003,1.852340e-001
3.803097e+003,1.863072e-001
3.806954e+003,1.867674e-001
3.810811e+003,1.861524e-001
3.814668e+003,1.863431e-001
3.818525e+003,1.896261e-001
3.822382e+003,1.892390e-001
3.826239e+003,1.841408e-001
3.830096e+003,1.822215e-001
3.833954e+003,1.817910e-001
3.837811e+003,1.802552e-001
3.841668e+003,1.814788e-001
3.845525e+003,1.819483e-001
3.849382e+003,1.808094e-001
3.853239e+003,1.829210e-001
3.857096e+003,1.841205e-001
3.860953e+003,1.834933e-001
3.864810e+003,1.832578e-001
3.868667e+003,1.797712e-001
3.872524e+003,1.791173e-001
3.876382e+003,1.820716e-001
3.880239e+003,1.808810e-001
3.884096e+003,1.766463e-001
3.887953e+003,1.776806e-001
3.891810e+003,1.783739e-001
3.895667e+003,1.774656e-001
3.899524e+003,1.777170e-001
3.903381e+003,1.758024e-001
3.907238e+003,1.733574e-001
3.911095e+003,1.744259e-001
3.914953e+003,1.783398e-001
3.918810e+003,1.783029e-001
3.922667e+003,1.735815e-001
3.926524e+003,1.735562e-001
3.930381e+003,1.754431e-001
3.934238e+003,1.759863e-001
3.938095e+003,1.767277e-001
3.941952e+003,1.760829e-001
3.945809e+003,1.725131e-001
3.949667e+003,1.701049e-001
3.953523e+003,1.732398e-001
3.957381e+003,1.745475e-001
3.961238e+003,1.748994e-001
3.965095e+003,1.768760e-001
3.968952e+003,1.760568e-001
3.972809e+003,1.745190e-001
3.976666e+003,1.746949e-001
3.980523e+003,1.718175e-001
3.984380e+003,1.681013e-001
3.988237e+003,1.682529e-001
3.992094e+003,1.681999e-001
3.995952e+003,1.661749e-001
3.999809e+003,1.646698e-001
4.003666e+003,1.639006e-001
4.007523e+003,1.652333e-001
4.011380e+003,1.654543e-001
4.015237e+003,1.654733e-001
4.019094e+003,1.684897e-001
4.022951e+003,1.690648e-001
4.026808e+003,1.667569e-001
4.030666e+003,1.653827e-001
4.034522e+003,1.653365e-001
4.038380e+003,1.675170e-001
4.042237e+003,1.656963e-001
4.046094e+003,1.620107e-001
4.049951e+003,1.600820e-001
4.053808e+003,1.591824e-001
4.057665e+003,1.603291e-001
4.061522e+003,1.584832e-001
4.065379e+003,1.568711e-001
4.069236e+003,1.605668e-001
4.073094e+003,1.638784e-001
4.076951e+003,1.635758e-001
4.080808e+003,1.605344e-001
4.084665e+003,1.569136e-001
4.088522e+003,1.569615e-001
4.092379e+003,1.566626e-001
4.096236e+003,1.587603e-001
4.100093e+003,1.589197e-001
4.103950e+003,1.562432e-001
4.107808e+003,1.572613e-001
4.111665e+003,1.576247e-001
4.115521e+003,1.558781e-001
4.119379e+003,1.561444e-001
4.123236e+003,1.566446e-001
4.127093e+003,1.561247e-001
4.130950e+003,1.549695e-001
4.134807e+003,1.554199e-001
4.138664e+003,1.539693e-001
4.142521e+003,1.510415e-001
4.146378e+003,1.509788e-001
4.150235e+003,1.515066e-001
4.154093e+003,1.498273e-001
4.157950e+003,1.498680e-001
4.161807e+003,1.524386e-001
4.165664e+003,1.544686e-001
4.169521e+003,1.540889e-001
4.173378e+003,1.549499e-001
4.177235e+003,1.539049e-001
4.181092e+003,1.497833e-001
4.184949e+003,1.478799e-001
4.188807e+003,1.485108e-001
4.192664e+003,1.504190e-001
4.196521e+003,1.520640e-001
4.200378e+003,1.504093e-001
4.204235e+003,1.509170e-001
4.208092e+003,1.503028e-001
4.211949e+003,1.475742e-001
4.215806e+003,1.485067e-001
4.219663e+003,1.526903e-001
4.223521e+003,1.569543e-001
4.227377e+003,1.554158e-001
4.231234e+003,1.520344e-001
4.235092e+003,1.509445e-001
4.238949e+003,1.523245e-001
4.242806e+003,1.526868e-001
4.246663e+003,1.507414e-001
4.250520e+003,1.481319e-001
4.254377e+003,1.487747e-001
4.258234e+003,1.523524e-001
4.262091e+003,1.516565e-001
4.265948e+003,1.493333e-001
4.269806e+003,1.540892e-001
4.273663e+003,1.597198e-001
4.277520e+003,1.579599e-001
4.281377e+003,1.546425e-001
4.285234e+003,1.513361e-001
4.289091e+003,1.501030e-001
4.292948e+003,1.512883e-001
4.296805e+003,1.532507e-001
4.300662e+003,1.532538e-001
4.304520e+003,1.531744e-001
4.308376e+003,1.515905e-001
4.312233e+003,1.530874e-001
4.316091e+003,1.538680e-001
4.319948e+003,1.509913e-001
4.323805e+003,1.533911e-001
4.327662e+003,1.601097e-001
4.331519e+003,1.613780e-001
4.335376e+003,1.572372e-001
4.339233e+003,1.550862e-001
4.343090e+003,1.575049e-001
4.346947e+003,1.603876e-001
4.350805e+003,1.605939e-001
4.354662e+003,1.593466e-001
4.358519e+003,1.559184e-001
4.362376e+003,1.556056e-001
4.366233e+003,1.602986e-001
4.370090e+003,1.664700e-001
4.373947e+003,1.661074e-001
4.377804e+003,1.657104e-001
4.381661e+003,1.681775e-001
4.385519e+003,1.639033e-001
4.389375e+003,1.612357e-001
4.393232e+003,1.630036e-001
4.397090e+003,1.643951e-001
4.400947e+003,1.652215e-001
4.404804e+003,1.638018e-001
4.408661e+003,1.603630e-001
4.412518e+003,1.628334e-001
4.416375e+003,1.659977e-001
4.420232e+003,1.687395e-001
4.424089e+003,1.690767e-001
4.427946e+003,1.662807e-001
4.431804e+003,1.663887e-001
4.435661e+003,1.657132e-001
4.439518e+003,1.636986e-001
4.443375e+003,1.670558e-001
4.447232e+003,1.699594e-001
4.451089e+003,1.655989e-001
4.454946e+003,1.614086e-001
4.458803e+003,1.670487e-001
4.462660e+003,1.731303e-001
4.466518e+003,1.718252e-001
4.470375e+003,1.691533e-001
4.474231e+003,1.657661e-001
4.478089e+003,1.674225e-001
4.481946e+003,1.725877e-001
4.485803e+003,1.769804e-001
4.489660e+003,1.747671e-001
4.493517e+003,1.681744e-001
4.497375e+003,1.688427e-001
4.501231e+003,1.686743e-001
4.505088e+003,1.658721e-001
4.508946e+003,1.646519e-001
4.512803e+003,1.637761e-001
4.516660e+003,1.620000e-001
4.520517e+003,1.671339e-001
4.524374e+003,1.704407e-001
4.528231e+003,1.652667e-001
4.532088e+003,1.645591e-001
4.535945e+003,1.662085e-001
4.539802e+003,1.659871e-001
4.543660e+003,1.633461e-001
4.547517e+003,1.610283e-001
4.551374e+003,1.620380e-001
4.555231e+003,1.619800e-001
4.559088e+003,1.637788e-001
4.562945e+003,1.628255e-001
4.566802e+003,1.604573e-001
4.570659e+003,1.625665e-001
4.574516e+003,1.643713e-001
4.578374e+003,1.606436e-001
4.582230e+003,1.575430e-001
4.586087e+003,1.573697e-001
4.589945e+003,1.559083e-001
4.593802e+003,1.573356e-001
4.597659e+003,1.568543e-001
4.601516e+003,1.545297e-001
4.605373e+003,1.551696e-001
4.609230e+003,1.560950e-001
4.613087e+003,1.574254e-001
4.616944e+003,1.593794e-001
4.620801e+003,1.603175e-001
4.624659e+003,1.564641e-001
4.628516e+003,1.550899e-001
4.632373e+003,1.527415e-001
4.636230e+003,1.525107e-001
4.640087e+003,1.518846e-001
4.643944e+003,1.486821e-001
4.647801e+003,1.480153e-001
4.651658e+003,1.501138e-001
4.655515e+003,1.511087e-001
4.659373e+003,1.513576e-001
4.663229e+003,1.474377e-001
4.667086e+003,1.493065e-001
4.670944e+003,1.535866e-001
4.674801e+003,1.533726e-001
4.678658e+003,1.536685e-001
4.682515e+003,1.552982e-001
4.686372e+003,1.555765e-001
4.690229e+003,1.544110e-001
4.694086e+003,1.532968e-001
4.697943e+003,1.524710e-001
4.701800e+003,1.530344e-001
4.705658e+003,1.521372e-001
4.709515e+003,1.533165e-001
4.713372e+003,1.522226e-001
4.717229e+003,1.530514e-001
4.721086e+003,1.521715e-001
4.724943e+003,1.521582e-001
4.728800e+003,1.538413e-001
4.732657e+003,1.538209e-001
4.736514e+003,1.514014e-001
4.740372e+003,1.526762e-001
4.744229e+003,1.548507e-001
4.748085e+003,1.549299e-001
4.751943e+003,1.556162e-001
4.755800e+003,1.575145e-001
4.759657e+003,1.534387e-001
4.763514e+003,1.460441e-001
4.767371e+003,1.456449e-001
4.771228e+003,1.526295e-001
4.775085e+003,1.587046e-001
4.778942e+003,1.612731e-001
4.782799e+003,1.615198e-001
4.786657e+003,1.630147e-001
4.790514e+003,1.629748e-001
4.794371e+003,1.622332e-001
4.798228e+003,1.637283e-001
4.802085e+003,1.646462e-001
4.805942e+003,1.674689e-001
4.809799e+003,1.651912e-001
4.813656e+003,1.578943e-001
4.817513e+003,1.553295e-001
4.821371e+003,1.577081e-001
4.825228e+003,1.576104e-001
4.829084e+003,1.534645e-001
4.832942e+003,1.520803e-001
4.836799e+003,1.540620e-001
4.840656e+003,1.602537e-001
4.844513e+003,1.627974e-001
4.848370e+003,1.600341e-001
4.852227e+003,1.623097e-001
4.856084e+003,1.666898e-001
4.859941e+003,1.635848e-001
4.863798e+003,1.609028e-001
4.867656e+003,1.631474e-001
4.871513e+003,1.602950e-001
4.875370e+003,1.575652e-001
4.879227e+003,1.634530e-001
4.883084e+003,1.693145e-001
4.886941e+003,1.674278e-001
4.890798e+003,1.632999e-001
4.894655e+003,1.654444e-001
4.898512e+003,1.663680e-001
4.902370e+003,1.658042e-001
4.906227e+003,1.653154e-001
4.910083e+003,1.630331e-001
4.913941e+003,1.631758e-001
4.917798e+003,1.688578e-001
4.921655e+003,1.723834e-001
4.925512e+003,1.684947e-001
4.929369e+003,1.706159e-001
4.933226e+003,1.717056e-001
4.937083e+003,1.693192e-001
4.940940e+003,1.709300e-001
4.944797e+003,1.701018e-001
4.948655e+003,1.736090e-001
4.952512e+003,1.755204e-001
4.956369e+003,1.723998e-001
4.960226e+003,1.739391e-001
4.964083e+003,1.756795e-001
4.967940e+003,1.749139e-001
4.971797e+003,1.772714e-001
4.975654e+003,1.789347e-001
4.979511e+003,1.832613e-001
4.983369e+003,1.846722e-001
4.987226e+003,1.814924e-001
4.991083e+003,1.792929e-001
4.994940e+003,1.759278e-001
4.998797e+003,1.746203e-001
5.002654e+003,1.789500e-001
5.006511e+003,1.813838e-001
5.010368e+003,1.825320e-001
5.014225e+003,1.823342e-001
5.018083e+003,1.773606e-001
5.021939e+003,1.763538e-001
5.025796e+003,1.740912e-001
5.029654e+003,1.741498e-001
5.033511e+003,1.792326e-001
5.037368e+003,1.800158e-001
5.041225e+003,1.804525e-001
5.045082e+003,1.845595e-001
5.048939e+003,1.860460e-001
5.052796e+003,1.839749e-001
5.056653e+003,1.852872e-001
5.060510e+003,1.838971e-001
5.064368e+003,1.785807e-001
5.068225e+003,1.807264e-001
5.072082e+003,1.864652e-001
5.075939e+003,1.902665e-001
5.079796e+003,1.873109e-001
5.083653e+003,1.824695e-001
5.087510e+003,1.865422e-001
5.091367e+003,1.871936e-001
5.095224e+003,1.896614e-001
5.099082e+003,1.873134e-001
5.102938e+003,1.883147e-001
5.106795e+003,1.901385e-001
5.110653e+003,1.864494e-001
5.114510e+003,1.852377e-001
5.118367e+003,1.846843e-001
5.122224e+003,1.846045e-001
5.126081e+003,1.869222e-001
5.129938e+003,1.901010e-001
5.133795e+003,1.871924e-001
5.137652e+003,1.868704e-001
5.141509e+003,1.866183e-001
5.145367e+003,1.839773e-001
5.149224e+003,1.837314e-001
5.153081e+003,1.883706e-001
5.156938e+003,1.911717e-001
5.160795e+003,1.885500e-001
5.164652e+003,1.856733e-001
5.168509e+003,1.845762e-001
5.172366e+003,1.886849e-001
5.176223e+003,1.881710e-001
5.180081e+003,1.858167e-001
5.183938e+003,1.887859e-001
5.187794e+003,1.923885e-001
5.191652e+003,1.917338e-001
5.195509e+003,1.942702e-001
5.199366e+003,1.938720e-001
5.203223e+003,1.924512e-001
5.207080e+003,1.924165e-001
5.210937e+003,1.867030e-001
5.214794e+003,1.835418e-001
5.218651e+003,1.909470e-001
5.222508e+003,1.970069e-001
5.226366e+003,1.947816e-001
5.230223e+003,1.954529e-001
5.234080e+003,1.948999e-001
5.237937e+003,1.898824e-001
5.241794e+003,1.867220e-001
5.245651e+003,1.870764e-001
5.249508e+003,1.865131e-001
5.253365e+003,1.828913e-001
5.257222e+003,1.823062e-001
5.261080e+003,1.770770e-001
5.264937e+003,1.753306e-001
5.268793e+003,1.796516e-001
5.272651e+003,1.780461e-001
5.276508e+003,1.796786e-001
5.280365e+003,1.820572e-001
5.284222e+003,1.784000e-001
5.288079e+003,1.737847e-001
5.291936e+003,1.770266e-001
5.295793e+003,1.792578e-001
5.299650e+003,1.796816e-001
5.303507e+003,1.782319e-001
5.307365e+003,1.837003e-001
5.311222e+003,1.819195e-001
5.315079e+003,1.742218e-001
5.318936e+003,1.722266e-001
5.322793e+003,1.694158e-001
5.326650e+003,1.710414e-001
5.330507e+003,1.673095e-001
5.334364e+003,1.650772e-001
5.338221e+003,1.720561e-001
5.342079e+003,1.731912e-001
5.345936e+003,1.678159e-001
5.349792e+003,1.717017e-001
5.353650e+003,1.735976e-001
5.357507e+003,1.718006e-001
5.361364e+003,1.700442e-001
5.365221e+003,1.700422e-001
5.369078e+003,1.682855e-001
5.372935e+003,1.670699e-001
5.376792e+003,1.715063e-001
5.380649e+003,1.741895e-001
5.384506e+003,1.718995e-001
5.388364e+003,1.656210e-001
5.392221e+003,1.653066e-001
5.396078e+003,1.705080e-001
5.399935e+003,1.692427e-001
5.403792e+003,1.698935e-001
5.407649e+003,1.775565e-001
5.411506e+003,1.825137e-001
5.415363e+003,1.786440e-001
5.419220e+003,1.772818e-001
5.423078e+003,1.770503e-001
5.426935e+003,1.741724e-001
5.430792e+003,1.639514e-001
5.434649e+003,1.658114e-001
5.438506e+003,1.718831e-001
5.442363e+003,1.784536e-001
5.446220e+003,1.779785e-001
5.450077e+003,1.711491e-001
5.453934e+003,1.694526e-001
5.457792e+003,1.684901e-001
5.461648e+003,1.697977e-001
5.465505e+003,1.761855e-001
5.469363e+003,1.807330e-001
5.473220e+003,1.760501e-001
5.477077e+003,1.729306e-001
5.480934e+003,1.713911e-001
5.484791e+003,1.706197e-001
5.488648e+003,1.738486e-001
5.492505e+003,1.758777e-001
5.496362e+003,1.719438e-001
5.500219e+003,1.688541e-001
5.504077e+003,1.689404e-001
5.507934e+003,1.712397e-001
5.511791e+003,1.726273e-001
5.515648e+003,1.710133e-001
5.519505e+003,1.709463e-001
5.523362e+003,1.731708e-001
5.527219e+003,1.723579e-001
5.531076e+003,1.743057e-001
5.534933e+003,1.750482e-001
5.538791e+003,1.712067e-001
5.542647e+003,1.700073e-001
5.546504e+003,1.736707e-001
5.550362e+003,1.786952e-001
5.554219e+003,1.837574e-001
5.558076e+003,1.821004e-001
5.561933e+003,1.800383e-001
5.565790e+003,1.829582e-001
5.569647e+003,1.855631e-001
5.573504e+003,1.828767e-001
5.577361e+003,1.746728e-001
5.581218e+003,1.754342e-001
5.585076e+003,1.785354e-001
5.588933e+003,1.791856e-001
5.592790e+003,1.807022e-001
5.596647e+003,1.814826e-001
5.600504e+003,1.786527e-001
5.604361e+003,1.797494e-001
5.608218e+003,1.831739e-001
5.612075e+003,1.796455e-001
5.615932e+003,1.820091e-001
5.619790e+003,1.811937e-001
5.623646e+003,1.748578e-001
5.627503e+003,1.742031e-001
5.631361e+003,1.806672e-001
5.635218e+003,1.850246e-001
5.639075e+003,1.816598e-001
5.642932e+003,1.756802e-001
5.646789e+003,1.748047e-001
5.650646e+003,1.719114e-001
5.654503e+003,1.699589e-001
5.658360e+003,1.713269e-001
5.662217e+003,1.761496e-001
5.666075e+003,1.806305e-001
5.669932e+003,1.806390e-001
5.673789e+003,1.821363e-001
5.677646e+003,1.862096e-001
5.681503e+003,1.808077e-001
5.685360e+003,1.794620e-001
5.689217e+003,1.766883e-001
5.693074e+003,1.701401e-001
5.696931e+003,1.725063e-001
5.700789e+003,1.751483e-001
5.704646e+003,1.761310e-001
5.708502e+003,1.775316e-001
5.712360e+003,1.781680e-001
5.716217e+003,1.826048e-001
5.720074e+003,1.866760e-001
5.723931e+003,1.854949e-001
5.727788e+003,1.825654e-001
5.731645e+003,1.823022e-001
5.735502e+003,1.780506e-001
5.739359e+003,1.754890e-001
5.743216e+003,1.764573e-001
5.747074e+003,1.799459e-001
5.750931e+003,1.781294e-001
5.754788e+003,1.752896e-001
5.758645e+003,1.788694e-001
5.762502e+003,1.851273e-001
5.766359e+003,1.861571e-001
5.770216e+003,1.793315e-001
5.774073e+003,1.772351e-001
5.777930e+003,1.795472e-001
5.781788e+003,1.819668e-001
5.785645e+003,1.762659e-001
5.789501e+003,1.702955e-001
5.793359e+003,1.780631e-001
5.797216e+003,1.841941e-001
5.801073e+003,1.802087e-001
5.804930e+003,1.779478e-001
5.808787e+003,1.791991e-001
5.812644e+003,1.789347e-001
5.816501e+003,1.805986e-001
5.820358e+003,1.802945e-001
5.824215e+003,1.769201e-001
5.828073e+003,1.829394e-001
5.831930e+003,1.844659e-001
5.835787e+003,1.778979e-001
5.839644e+003,1.647694e-001
5.843501e+003,1.626076e-001
5.847358e+003,1.692715e-001
5.851215e+003,1.777846e-001
5.855072e+003,1.785961e-001
5.858929e+003,1.822488e-001
5.862787e+003,1.828608e-001
5.866644e+003,1.765359e-001
5.870500e+003,1.763134e-001
5.874358e+003,1.755405e-001
5.878215e+003,1.760905e-001
5.882072e+003,1.806532e-001
5.885929e+003,1.804008e-001
5.889786e+003,1.729839e-001
5.893643e+003,1.729673e-001
5.897500e+003,1.738681e-001
5.901357e+003,1.695684e-001
5.905214e+003,1.740181e-001
5.909072e+003,1.741413e-001
5.912929e+003,1.749003e-001
5.916786e+003,1.739405e-001
5.920643e+003,1.735693e-001
5.924500e+003,1.731269e-001
5.928357e+003,1.684271e-001
5.932214e+003,1.679769e-001
5.936071e+003,1.708026e-001
5.939928e+003,1.740552e-001
5.943786e+003,1.783686e-001
5.947643e+003,1.721743e-001
5.951500e+003,1.697043e-001
5.955357e+003,1.710351e-001
5.959214e+003,1.672505e-001
5.963071e+003,1.657388e-001
5.966928e+003,1.691163e-001
5.970785e+003,1.733517e-001
5.974642e+003,1.737612e-001
5.978500e+003,1.679144e-001
5.982356e+003,1.682718e-001
5.986213e+003,1.665635e-001
5.990071e+003,1.642089e-001
5.993928e+003,1.662067e-001
5.997785e+003,1.658072e-001
6.001642e+003,1.681291e-001
6.005499e+003,1.698669e-001
6.009356e+003,1.652619e-001
6.013213e+003,1.577621e-001
6.017070e+003,1.586115e-001
6.020927e+003,1.570057e-001
6.024785e+003,1.543509e-001
6.028642e+003,1.570881e-001
6.032499e+003,1.660334e-001
6.036356e+003,1.651072e-001
6.040213e+003,1.630450e-001
6.044070e+003,1.659722e-001
6.047927e+003,1.588129e-001
6.051784e+003,1.560912e-001
6.055641e+003,1.612955e-001
6.059499e+003,1.573626e-001
6.063355e+003,1.576051e-001
6.067212e+003,1.563219e-001
6.071070e+003,1.557374e-001
6.074927e+003,1.604503e-001
6.078784e+003,1.609226e-001
6.082641e+003,1.636571e-001
6.086498e+003,1.692552e-001
6.090355e+003,1.646306e-001
6.094212e+003,1.611190e-001
6.098069e+003,1.654981e-001
6.101926e+003,1.681281e-001
6.105784e+003,1.679823e-001
6.109641e+003,1.632030e-001
6.113498e+003,1.679940e-001
6.117355e+003,1.721646e-001
6.121212e+003,1.644781e-001
6.125069e+003,1.580944e-001
6.128926e+003,1.600796e-001
6.132783e+003,1.635945e-001
6.136640e+003,1.645035e-001
6.140498e+003,1.694692e-001
6.144354e+003,1.629894e-001
6.148211e+003,1.576719e-001
6.152069e+003,1.644742e-001
6.155926e+003,1.677885e-001
6.159783e+003,1.615152e-001
6.163640e+003,1.577496e-001
6.167497e+003,1.579619e-001
6.171354e+003,1.631206e-001
6.175211e+003,1.625897e-001
6.179068e+003,1.700581e-001
6.182925e+003,1.712675e-001
6.186783e+003,1.614715e-001
6.190640e+003,1.572974e-001
6.194497e+003,1.679782e-001
6.198354e+003,1.746832e-001
6.202211e+003,1.750336e-001
6.206068e+003,1.743260e-001
6.209925e+003,1.737474e-001
6.213782e+003,1.640512e-001
6.217639e+003,1.608332e-001
6.221497e+003,1.585307e-001
6.225354e+003,1.664115e-001
6.229210e+003,1.779719e-001
6.233068e+003,1.805114e-001
6.236925e+003,1.775572e-001
6.240782e+003,1.813831e-001
6.244639e+003,1.906980e-001
6.248496e+003,1.808263e-001
6.252353e+003,1.661506e-001
6.256210e+003,1.587856e-001
6.260067e+003,1.567027e-001
6.263924e+003,1.630978e-001
6.267782e+003,1.772126e-001
6.271639e+003,1.755139e-001
6.275496e+003,1.650398e-001
6.279353e+003,1.571735e-001
6.283210e+003,1.635755e-001
6.287067e+003,1.762057e-001
6.290924e+003,1.810684e-001
6.294781e+003,1.730161e-001
6.298638e+003,1.677938e-001
6.302496e+003,1.697029e-001
6.306353e+003,1.767715e-001
6.310209e+003,1.841446e-001
6.314067e+003,1.866288e-001
6.317924e+003,1.713364e-001
6.321781e+003,1.685423e-001
6.325638e+003,1.724507e-001
6.329495e+003,1.677847e-001
6.333352e+003,1.655399e-001
6.337209e+003,1.727541e-001
6.341066e+003,1.780870e-001
6.344923e+003,1.852711e-001
6.348780e+003,1.798439e-001
6.352638e+003,1.747643e-001
6.356495e+003,1.716025e-001
6.360352e+003,1.674166e-001
6.364209e+003,1.758712e-001
6.368066e+003,1.854394e-001
6.371923e+003,1.812660e-001
6.375780e+003,1.747103e-001
6.379637e+003,1.736097e-001
6.383494e+003,1.690013e-001
6.387352e+003,1.748498e-001
6.391208e+003,1.859563e-001
6.395065e+003,1.890831e-001
6.398923e+003,1.851673e-001
6.402780e+003,1.862366e-001
6.406637e+003,1.742454e-001
6.410494e+003,1.734788e-001
6.414351e+003,1.815483e-001
6.418208e+003,1.797761e-001
6.422065e+003,1.783345e-001
6.425922e+003,1.780719e-001
6.429779e+003,1.760146e-001
6.433637e+003,1.708780e-001
6.437494e+003,1.774271e-001
6.441351e+003,1.890610e-001
6.445208e+003,1.871203e-001
6.449065e+003,1.877304e-001
6.452922e+003,1.912163e-001
6.456779e+003,1.812453e-001
6.460636e+003,1.733838e-001
6.464493e+003,1.699452e-001
6.468351e+003,1.610347e-001
6.472208e+003,1.602489e-001
6.476064e+003,1.732348e-001
6.479922e+003,1.755264e-001
6.483779e+003,1.747912e-001
6.487636e+003,1.750663e-001
6.491493e+003,1.896230e-001
6.495350e+003,1.985333e-001
6.499207e+003,1.892923e-001
6.503064e+003,1.846202e-001
6.506921e+003,1.930109e-001
6.510778e+003,1.887377e-001
6.514636e+003,1.854849e-001
6.518493e+003,1.790170e-001
6.522350e+003,1.756440e-001
6.526207e+003,1.808406e-001
6.530064e+003,1.905915e-001
6.533921e+003,1.853020e-001
6.537778e+003,1.755235e-001
6.541635e+003,1.718467e-001
6.545492e+003,1.739699e-001
6.549350e+003,1.795595e-001
6.553207e+003,1.834664e-001
6.557063e+003,1.843453e-001
6.560921e+003,1.693203e-001
6.564778e+003,1.563899e-001
6.568635e+003,1.564719e-001
6.572492e+003,1.616826e-001
6.576349e+003,1.811865e-001
6.580206e+003,1.962510e-001
6.584063e+003,1.936856e-001
6.587920e+003,1.853532e-001
6.591777e+003,1.808395e-001
6.595635e+003,1.776492e-001
6.599492e+003,1.767477e-001
6.603349e+003,1.723263e-001
6.607206e+003,1.792907e-001
6.611063e+003,1.838093e-001
6.614920e+003,1.891036e-001
6.618777e+003,1.906484e-001
6.622634e+003,1.742696e-001
6.626491e+003,1.728795e-001
6.630349e+003,1.678606e-001
6.634206e+003,1.673306e-001
6.638063e+003,1.788071e-001
6.641920e+003,1.789041e-001
6.645777e+003,1.806318e-001
6.649634e+003,1.692419e-001
6.653491e+003,1.637622e-001
6.657348e+003,1.706798e-001
6.661205e+003,1.713235e-001
6.665063e+003,1.656601e-001
6.668919e+003,1.695801e-001
6.672776e+003,1.831124e-001
6.676634e+003,1.814583e-001
6.680491e+003,1.760917e-001
6.684348e+003,1.745561e-001
6.688205e+003,1.667565e-001
6.692062e+003,1.625714e-001
6.695919e+003,1.629133e-001
6.699776e+003,1.694776e-001
6.703633e+003,1.625780e-001
6.707490e+003,1.594148e-001
6.711348e+003,1.627567e-001
6.715205e+003,1.662145e-001
6.719062e+003,1.721555e-001
6.722919e+003,1.686880e-001
6.726776e+003,1.708220e-001
6.730633e+003,1.734908e-001
6.734490e+003,1.760342e-001
6.738347e+003,1.769235e-001
6.742204e+003,1.788884e-001
6.746062e+003,1.884661e-001
6.749918e+003,1.703067e-001
6.753775e+003,1.510219e-001
6.757633e+003,1.553901e-001
6.761490e+003,1.640553e-001
6.765347e+003,1.739989e-001
6.769204e+003,1.831238e-001
6.773061e+003,1.795042e-001
6.776918e+003,1.741427e-001
6.780775e+003,1.660268e-001
6.784632e+003,1.683596e-001
6.788489e+003,1.744969e-001
6.792347e+003,1.769496e-001
6.796204e+003,1.795419e-001
6.800061e+003,1.758458e-001
6.803918e+003,1.821263e-001
6.807775e+003,1.950760e-001
6.811632e+003,1.962432e-001
6.815489e+003,1.885781e-001
6.819346e+003,1.858517e-001
6.823203e+003,1.857613e-001
6.827061e+003,1.857789e-001
6.830917e+003,1.965387e-001
6.834774e+003,1.810328e-001
6.838632e+003,1.738783e-001
6.842489e+003,1.808736e-001
6.846346e+003,1.747316e-001
6.850203e+003,1.872500e-001
6.854060e+003,1.892015e-001
6.857917e+003,1.863112e-001
6.861774e+003,1.825998e-001
6.865631e+003,1.803752e-001
6.869488e+003,1.763708e-001
6.873346e+003,1.823497e-001
6.877203e+003,1.882574e-001
6.881060e+003,1.869164e-001
6.884917e+003,1.810799e-001
6.888774e+003,1.777297e-001
6.892631e+003,1.791579e-001
6.896488e+003,1.752774e-001
6.900345e+003,1.803761e-001
6.904202e+003,1.922528e-001
6.908060e+003,1.942713e-001
6.911917e+003,2.020041e-001
6.915773e+003,1.980396e-001
6.919631e+003,1.947386e-001
6.923488e+003,1.906576e-001
6.927345e+003,1.804435e-001
6.931202e+003,1.694628e-001
6.935059e+003,1.714170e-001
6.938916e+003,1.804727e-001
6.942773e+003,1.922394e-001
6.946630e+003,1.901071e-001
6.950487e+003,1.794089e-001
6.954345e+003,1.841054e-001
6.958202e+003,1.944099e-001
6.962059e+003,1.924819e-001
6.965916e+003,1.870797e-001
6.969773e+003,1.890612e-001
6.973630e+003,1.879472e-001
6.977487e+003,1.853222e-001
6.981344e+003,1.753224e-001
6.985201e+003,1.790608e-001
6.989059e+003,1.984944e-001
6.992916e+003,2.082922e-001
6.996772e+003,2.012132e-001
7.000630e+003,1.930947e-001
7.004487e+003,1.855883e-001
7.008344e+003,1.711915e-001
7.012201e+003,1.662193e-001
7.016058e+003,1.849300e-001
7.019915e+003,1.953550e-001
7.023772e+003,1.920625e-001
7.027629e+003,2.027999e-001
7.031486e+003,1.983422e-001
7.035344e+003,1.993618e-001
7.039201e+003,1.956400e-001
7.043058e+003,1.994459e-001
7.046915e+003,2.120343e-001
7.050772e+003,2.278529e-001
7.054629e+003,2.297266e-001
7.058486e+003,2.150101e-001
7.062343e+003,2.107617e-001
7.066200e+003,2.028245e-001
7.070058e+003,1.900773e-001
7.073915e+003,1.701303e-001
7.077771e+003,1.833382e-001
7.081629e+003,1.877991e-001
7.085486e+003,1.998554e-001
7.089343e+003,2.019327e-001
7.093200e+003,2.018825e-001
7.097057e+003,1.969501e-001
7.100914e+003,1.915892e-001
7.104771e+003,1.796911e-001
7.108628e+003,1.815431e-001
7.112485e+003,2.096619e-001
7.116343e+003,2.264463e-001
7.120200e+003,2.242702e-001
7.124057e+003,2.122826e-001
7.127914e+003,2.108009e-001
7.131771e+003,2.027803e-001
7.135628e+003,1.971490e-001
7.139485e+003,1.995021e-001
7.143342e+003,2.031359e-001
7.147199e+003,2.093404e-001
7.151057e+003,2.148362e-001
7.154914e+003,2.180552e-001
7.158771e+003,2.090061e-001
7.162628e+003,1.949129e-001
7.166485e+003,2.050650e-001
7.170342e+003,2.157477e-001
7.174199e+003,2.006508e-001
7.178056e+003,1.874397e-001
7.181913e+003,1.933174e-001
7.185771e+003,2.092737e-001
7.189627e+003,2.036572e-001
7.193484e+003,1.949936e-001
7.197342e+003,1.987255e-001
7.201199e+003,2.107510e-001
7.205056e+003,2.158248e-001
7.208913e+003,2.000917e-001
7.212770e+003,1.884620e-001
7.216627e+003,1.979692e-001
7.220484e+003,2.020838e-001
7.224341e+003,2.038772e-001
7.228198e+003,2.083071e-001
7.232056e+003,2.011090e-001
7.235913e+003,2.063410e-001
7.239770e+003,2.192240e-001
7.243627e+003,2.133927e-001
7.247484e+003,2.079347e-001
7.251341e+003,1.953517e-001
7.255198e+003,1.883161e-001
7.259055e+003,2.016541e-001
7.262912e+003,2.248985e-001
7.266770e+003,1.902891e-001
7.270626e+003,1.594759e-001
7.274483e+003,1.820762e-001
7.278341e+003,2.014702e-001
7.282198e+003,2.276075e-001
7.286055e+003,2.449095e-001
7.289912e+003,2.161563e-001
7.293769e+003,2.244716e-001
7.297626e+003,2.261400e-001
7.301483e+003,2.228561e-001
7.305340e+003,2.206929e-001
7.309197e+003,2.036486e-001
7.313055e+003,1.682574e-001
7.316912e+003,1.677675e-001
7.320769e+003,1.818702e-001
7.324626e+003,1.712888e-001
7.328483e+003,1.592545e-001
7.332340e+003,1.985679e-001
7.336197e+003,2.159231e-001
7.340054e+003,1.827880e-001
7.343911e+003,1.670659e-001
7.347769e+003,1.729686e-001
7.351625e+003,1.871977e-001
7.355482e+003,2.395362e-001
7.359340e+003,2.541784e-001
7.363197e+003,2.232168e-001
7.367054e+003,2.206421e-001
7.370911e+003,2.283784e-001
7.374768e+003,2.059820e-001
7.378625e+003,1.821177e-001
7.382482e+003,2.103247e-001
7.386339e+003,2.220832e-001
7.390196e+003,2.147419e-001
7.394054e+003,1.870237e-001
7.397911e+003,1.835053e-001
7.401768e+003,1.923085e-001
7.405625e+003,1.758577e-001
7.409482e+003,1.834560e-001
7.413339e+003,1.972419e-001
7.417196e+003,1.981962e-001
7.421053e+003,1.774699e-001
7.424910e+003,1.502966e-001
7.428768e+003,1.745645e-001
7.432625e+003,2.090642e-001
7.436481e+003,2.198722e-001
7.440339e+003,1.921991e-001
7.444196e+003,1.801247e-001
7.448053e+003,2.029267e-001
7.451910e+003,1.883669e-001
7.455767e+003,1.900264e-001
7.459624e+003,1.922481e-001
7.463481e+003,1.698176e-001
7.467338e+003,1.766264e-001
7.471195e+003,1.901440e-001
7.475053e+003,2.039865e-001
7.478910e+003,1.830958e-001
7.482767e+003,1.470545e-001
7.486624e+003,1.538166e-001
7.490481e+003,1.976890e-001
7.494338e+003,1.832069e-001
7.498195e+003,1.783792e-001
7.502052e+003,1.783348e-001
7.505909e+003,1.910749e-001
7.509767e+003,1.887048e-001
7.513624e+003,1.763750e-001
7.517480e+003,1.560201e-001
7.521338e+003,1.738002e-001
7.525195e+003,2.120241e-001
7.529052e+003,2.213159e-001
7.532909e+003,2.004369e-001
7.536766e+003,1.753320e-001
7.540623e+003,1.535664e-001
7.544480e+003,1.705144e-001
7.548337e+003,1.942694e-001
7.552194e+003,1.976768e-001
7.556052e+003,2.168273e-001
7.559909e+003,2.481052e-001
7.563766e+003,2.222352e-001
7.567623e+003,1.661551e-001
7.571480e+003,1.307913e-001
7.575337e+003,1.444708e-001
7.579194e+003,2.019835e-001
7.583051e+003,2.044461e-001
7.586908e+003,1.984499e-001
7.590766e+003,1.744775e-001
7.594623e+003,1.475785e-001
7.598479e+003,1.718900e-001
7.602337e+003,2.129677e-001
7.606194e+003,2.268885e-001
7.610051e+003,2.466685e-001
7.613908e+003,1.901305e-001
7.617765e+003,1.376358e-001
7.621622e+003,1.377264e-001
7.625479e+003,1.647852e-001
7.629336e+003,2.068840e-001
7.633193e+003,2.383603e-001
7.637051e+003,2.292104e-001
7.640908e+003,2.256835e-001
7.644765e+003,2.172112e-001
7.648622e+003,2.104560e-001
7.652479e+003,2.264155e-001
7.656336e+003,2.276971e-001
7.660193e+003,1.705242e-001
7.664050e+003,1.438104e-001
7.667907e+003,1.615713e-001
7.671765e+003,2.075388e-001
7.675622e+003,2.247400e-001
7.679479e+003,2.307133e-001
7.683336e+003,2.335472e-001
7.687193e+003,2.449583e-001
7.691050e+003,2.471929e-001
7.694907e+003,2.146973e-001
7.698764e+003,1.767253e-001
7.702621e+003,1.589844e-001
7.706479e+003,1.775962e-001
7.710335e+003,2.054714e-001
7.714192e+003,1.757864e-001
7.718050e+003,1.607202e-001
7.721907e+003,1.376667e-001
7.725764e+003,1.302825e-001
7.729621e+003,2.037396e-001
7.733478e+003,2.532589e-001
7.737335e+003,2.137434e-001
7.741192e+003,2.131743e-001
7.745049e+003,2.100541e-001
7.748906e+003,2.196210e-001
7.752764e+003,2.619029e-001
7.756621e+003,2.299346e-001
7.760478e+003,2.232299e-001
7.764335e+003,2.304772e-001
7.768192e+003,2.531662e-001
7.772049e+003,2.446781e-001
7.775906e+003,1.682611e-001
7.779763e+003,8.970425e-002
7.783620e+003,9.411597e-002
7.787478e+003,1.456739e-001
7.791334e+003,1.828169e-001
7.795191e+003,2.088876e-001
7.799049e+003,2.067788e-001
7.802906e+003,2.498894e-001
7.806763e+003,2.452289e-001
7.810620e+003,1.494420e-001
7.814477e+003,1.169405e-001
7.818334e+003,1.282399e-001
7.822191e+003,1.294309e-001
7.826048e+003,1.738619e-001
7.829905e+003,1.799468e-001
7.833763e+003,1.715429e-001
7.837620e+003,2.197427e-001
7.841477e+003,2.439437e-001
7.845334e+003,1.979064e-001
7.849191e+003,2.189491e-001
7.853048e+003,2.091269e-001
7.856905e+003,1.710722e-001
7.860762e+003,1.342740e-001
7.864619e+003,1.642325e-001
7.868477e+003,2.005627e-001
7.872333e+003,2.552148e-001
7.876190e+003,2.674112e-001
7.880048e+003,2.287182e-001
7.883905e+003,2.341428e-001
7.887762e+003,1.842300e-001
7.891619e+003,1.905684e-001
7.895476e+003,2.033635e-001
7.899333e+003,1.979955e-001
7.903190e+003,2.357701e-001
7.907047e+003,2.882260e-001
7.910904e+003,3.320474e-001
7.914762e+003,3.446540e-001
7.918619e+003,3.023216e-001
7.922476e+003,2.393927e-001
7.926333e+003,2.296272e-001
7.930190e+003,1.947377e-001
7.934047e+003,1.948906e-001
7.937904e+003,1.919911e-001
7.941761e+003,2.304324e-001
7.945618e+003,2.137432e-001
7.949476e+003,2.038659e-001
7.953333e+003,2.016224e-001
7.957189e+003,1.564661e-001
7.961047e+003,1.496157e-001
7.964904e+003,1.808829e-001
7.968761e+003,2.059395e-001
7.972618e+003,2.274851e-001
7.976475e+003,2.494518e-001
7.980332e+003,1.854342e-001
7.984189e+003,2.727259e-001
7.988046e+003,3.133407e-001
7.991903e+003,3.230811e-001
7.995761e+003,3.865254e-001
7.999618e+003,2.909434e-001
