4.011380e+002,6.000000e+000
4.049951e+002,2.397516e-001
4.088522e+002,6.000000e+000
4.127093e+002,-1.664308e-002
4.165664e+002,6.759953e-001
4.204235e+002,6.000000e+000
4.242806e+002,6.000000e+000
4.281377e+002,1.034774e+000
4.319948e+002,6.000000e+000
4.358519e+002,7.365468e-002
4.397090e+002,6.239049e-002
4.435661e+002,-2.168850e-001
4.474232e+002,-3.108774e-001
4.512803e+002,6.000000e+000
4.551374e+002,6.000000e+000
4.589945e+002,3.575372e-001
4.628516e+002,6.517034e-001
4.667087e+002,6.000000e+000
4.705658e+002,6.000000e+000
4.744229e+002,-5.028477e-001
4.782800e+002,-6.514495e-001
4.821371e+002,-3.587207e-001
4.859941e+002,5.524474e-002
4.898513e+002,6.240591e-001
4.937083e+002,6.000000e+000
4.975654e+002,6.000000e+000
5.014225e+002,6.000000e+000
5.052796e+002,-6.838442e-001
5.091367e+002,-5.598652e-001
5.129938e+002,6.000000e+000
5.168509e+002,-1.979914e-001
5.207080e+002,-2.216082e-001
5.245651e+002,6.000000e+000
5.284222e+002,6.000000e+000
5.322793e+002,4.680407e-001
5.361364e+002,6.000000e+000
5.399935e+002,6.000000e+000
5.438506e+002,6.000000e+000
5.477077e+002,6.000000e+000
5.515648e+002,1.075533e+000
5.554219e+002,-2.250479e-001
5.592790e+002,-4.638187e-001
5.631361e+002,-3.989197e-001
5.669932e+002,6.000000e+000
5.708503e+002,6.000000e+000
5.747074e+002,6.000000e+000
5.785645e+002,6.000000e+000
5.824216e+002,6.000000e+000
5.862787e+002,6.000000e+000
5.901357e+002,-9.322487e-002
5.939929e+002,6.000000e+000
5.978499e+002,6.000000e+000
6.017070e+002,6.000000e+000
6.055641e+002,1.548481e-001
6.094212e+002,-1.793374e-001
6.132783e+002,3.692755e-002
6.171354e+002,2.245156e-001
6.209925e+002,1.955122e-001
6.248496e+002,1.564662e-001
6.287067e+002,1.604703e-001
6.325638e+002,1.775902e+000
6.364209e+002,6.000000e+000
6.402780e+002,1.117169e+000
6.441351e+002,6.000000e+000
6.479922e+002,6.000000e+000
6.518493e+002,6.000000e+000
6.557064e+002,2.882412e-001
6.595635e+002,8.202669e-001
6.634205e+002,6.000000e+000
6.672777e+002,6.000000e+000
6.711348e+002,-1.146617e-001
6.749918e+002,6.000000e+000
6.788490e+002,-4.136657e-002
6.827061e+002,-1.202310e-001
6.865631e+002,1.146055e-001
6.904203e+002,4.039142e-001
6.942773e+002,1.197199e+000
6.981344e+002,6.000000e+000
7.019916e+002,-4.500113e-001
7.058486e+002,-2.494895e-001
7.097057e+002,3.163927e-001
7.135629e+002,6.000000e+000
7.174199e+002,6.000000e+000
7.212770e+002,6.000000e+000
7.251342e+002,6.000000e+000
7.289912e+002,-9.503693e-002
7.328483e+002,6.000000e+000
7.367054e+002,-7.035975e-001
7.405625e+002,7.140912e-002
7.444196e+002,-5.473973e-001
7.482767e+002,2.456674e-001
7.521338e+002,6.923001e-001
7.559908e+002,2.323478e-002
7.598480e+002,6.000000e+000
7.637051e+002,6.000000e+000
7.675621e+002,6.000000e+000
7.714193e+002,-8.012060e-001
7.752764e+002,6.000000e+000
7.791334e+002,2.328461e-001
7.829905e+002,-1.116773e-001
7.868477e+002,-2.583526e+000
7.907047e+002,-4.804943e-001
7.945618e+002,-1.261634e-001
7.984189e+002,-1.055350e+000
8.022760e+002,-8.326681e-002
8.061331e+002,6.000000e+000
8.099902e+002,4.257930e-001
8.138473e+002,-2.752158e-001
8.177044e+002,5.615153e-001
8.215615e+002,1.202295e+000
8.254186e+002,6.000000e+000
8.292757e+002,6.000000e+000
8.331328e+002,7.933783e-001
8.369899e+002,1.531040e+000
8.408470e+002,6.000000e+000
8.447041e+002,6.000000e+000
8.485612e+002,6.000000e+000
8.524183e+002,1.439891e+000
8.562754e+002,9.058979e-001
8.601324e+002,9.719243e-001
8.639896e+002,1.138462e+000
8.678467e+002,1.060413e+000
8.717037e+002,1.143488e+000
8.755609e+002,1.316398e+000
8.794180e+002,1.312213e+000
8.832750e+002,1.382211e+000
8.871321e+002,1.304265e+000
8.909893e+002,1.138055e+000
8.948463e+002,1.015281e+000
8.987034e+002,1.257833e+000
9.025605e+002,1.512061e+000
9.064176e+002,1.586344e+000
9.102747e+002,1.704663e+000
9.141318e+002,1.848516e+000
9.179889e+002,6.000000e+000
9.218461e+002,6.000000e+000
9.257031e+002,6.000000e+000
9.295602e+002,2.584804e+000
9.334174e+002,1.572021e+000
9.372744e+002,1.449547e+000
9.411315e+002,1.440592e+000
9.449886e+002,1.865279e+000
9.488457e+002,2.216706e+000
9.527028e+002,1.862927e+000
9.565599e+002,3.756462e+000
9.604170e+002,6.000000e+000
9.642740e+002,2.267342e+000
9.681312e+002,6.000000e+000
9.719883e+002,2.876426e+000
9.758453e+002,2.030867e+000
9.797025e+002,6.000000e+000
9.835596e+002,6.000000e+000
9.874166e+002,6.000000e+000
9.912738e+002,6.000000e+000
9.951309e+002,6.000000e+000
9.989879e+002,6.000000e+000
1.002845e+003,6.000000e+000
1.006702e+003,2.774762e+000
1.010559e+003,2.358428e+000
1.014416e+003,1.694757e+000
1.018273e+003,1.606884e+000
1.022130e+003,1.849108e+000
1.025988e+003,1.778191e+000
1.029845e+003,1.618846e+000
1.033702e+003,1.724916e+000
1.037559e+003,1.785425e+000
1.041416e+003,1.834217e+000
1.045273e+003,2.069054e+000
1.049130e+003,1.767038e+000
1.052987e+003,1.634651e+000
1.056844e+003,1.545949e+000
1.060702e+003,1.540910e+000
1.064559e+003,1.642734e+000
1.068416e+003,1.606847e+000
1.072273e+003,1.583702e+000
1.076130e+003,1.604594e+000
1.079987e+003,1.559429e+000
1.083844e+003,1.466167e+000
1.087701e+003,1.411492e+000
1.091558e+003,1.402027e+000
1.095415e+003,1.352965e+000
1.099272e+003,1.306121e+000
1.103130e+003,1.320048e+000
1.106987e+003,1.271855e+000
1.110844e+003,1.236482e+000
1.114701e+003,1.246704e+000
1.118558e+003,1.213772e+000
1.122415e+003,1.171783e+000
1.126272e+003,1.188216e+000
1.130129e+003,1.224478e+000
1.133986e+003,1.194959e+000
1.137843e+003,1.184452e+000
1.141701e+003,1.221634e+000
1.145558e+003,1.198959e+000
1.149415e+003,1.135696e+000
1.153272e+003,1.116672e+000
1.157129e+003,1.114690e+000
1.160986e+003,1.116909e+000
1.164843e+003,1.098393e+000
1.168700e+003,1.078932e+000
1.172557e+003,1.079868e+000
1.176414e+003,1.085005e+000
1.180271e+003,1.090917e+000
1.184129e+003,1.116362e+000
1.187986e+003,1.125555e+000
1.191843e+003,1.102650e+000
1.195700e+003,1.079426e+000
1.199557e+003,1.064819e+000
1.203414e+003,1.046679e+000
1.207271e+003,1.007458e+000
1.211128e+003,9.594782e-001
1.214985e+003,9.298666e-001
1.218842e+003,8.725464e-001
1.222699e+003,8.160172e-001
1.226557e+003,7.661177e-001
1.230414e+003,7.137900e-001
1.234271e+003,6.758709e-001
1.238128e+003,6.447775e-001
1.241985e+003,6.186842e-001
1.245842e+003,5.872517e-001
1.249699e+003,5.535817e-001
1.253556e+003,5.274782e-001
1.257413e+003,5.050617e-001
1.261271e+003,4.836738e-001
1.265128e+003,4.640363e-001
1.268985e+003,4.513860e-001
1.272842e+003,4.381491e-001
1.276699e+003,4.261457e-001
1.280556e+003,4.148391e-001
1.284413e+003,4.075117e-001
1.288270e+003,3.978715e-001
1.292127e+003,3.822123e-001
1.295984e+003,3.692346e-001
1.299841e+003,3.616447e-001
1.303698e+003,3.540598e-001
1.307556e+003,3.479457e-001
1.311413e+003,3.431857e-001
1.315270e+003,3.382999e-001
1.319127e+003,3.353129e-001
1.322984e+003,3.300657e-001
1.326841e+003,3.246935e-001
1.330698e+003,3.240174e-001
1.334555e+003,3.242029e-001
1.338412e+003,3.234498e-001
1.342270e+003,3.179821e-001
1.346127e+003,3.137785e-001
1.349984e+003,3.114485e-001
1.353841e+003,3.086310e-001
1.357698e+003,3.040000e-001
1.361555e+003,3.005045e-001
1.365412e+003,2.978581e-001
1.369269e+003,2.970855e-001
1.373126e+003,2.976328e-001
1.376983e+003,3.018108e-001
1.380840e+003,3.063963e-001
1.384698e+003,3.127289e-001
1.388555e+003,3.190750e-001
1.392412e+003,3.254236e-001
1.396269e+003,3.317299e-001
1.400126e+003,3.407512e-001
1.403983e+003,3.526545e-001
1.407840e+003,3.604188e-001
1.411697e+003,3.685132e-001
1.415554e+003,3.782073e-001
1.419411e+003,3.840822e-001
1.423269e+003,3.915220e-001
1.427126e+003,3.972987e-001
1.430983e+003,4.010372e-001
1.434840e+003,4.043380e-001
1.438697e+003,4.044255e-001
1.442554e+003,4.000833e-001
1.446411e+003,3.959050e-001
1.450268e+003,3.900712e-001
1.454125e+003,3.811395e-001
1.457982e+003,3.734410e-001
1.461839e+003,3.676701e-001
1.465697e+003,3.656281e-001
1.469554e+003,3.615290e-001
1.473411e+003,3.552617e-001
1.477268e+003,3.577919e-001
1.481125e+003,3.660711e-001
1.484982e+003,3.699560e-001
1.488839e+003,3.738501e-001
1.492696e+003,3.827772e-001
1.496553e+003,3.912992e-001
1.500411e+003,3.988343e-001
1.504268e+003,4.028461e-001
1.508125e+003,4.029756e-001
1.511982e+003,4.042926e-001
1.515839e+003,4.069568e-001
1.519696e+003,4.082126e-001
1.523553e+003,4.054593e-001
1.527410e+003,3.986372e-001
1.531267e+003,3.929511e-001
1.535124e+003,3.871847e-001
1.538981e+003,3.808688e-001
1.542839e+003,3.761245e-001
1.546696e+003,3.698125e-001
1.550553e+003,3.645228e-001
1.554410e+003,3.534785e-001
1.558267e+003,3.422742e-001
1.562124e+003,3.350613e-001
1.565981e+003,3.263920e-001
1.569838e+003,3.185187e-001
1.573695e+003,3.158596e-001
1.577552e+003,3.124907e-001
1.581410e+003,3.068033e-001
1.585267e+003,3.028810e-001
1.589124e+003,3.041173e-001
1.592981e+003,3.066999e-001
1.596838e+003,3.095202e-001
1.600695e+003,3.158928e-001
1.604552e+003,3.238806e-001
1.608409e+003,3.364257e-001
1.612266e+003,3.562265e-001
1.616123e+003,3.768392e-001
1.619980e+003,3.921438e-001
1.623838e+003,4.074918e-001
1.627695e+003,4.229321e-001
1.631552e+003,4.378095e-001
1.635409e+003,4.468253e-001
1.639266e+003,4.532242e-001
1.643123e+003,4.511766e-001
1.646980e+003,4.436831e-001
1.650837e+003,4.355852e-001
1.654694e+003,4.291092e-001
1.658551e+003,4.207146e-001
1.662409e+003,4.078229e-001
1.666266e+003,3.929094e-001
1.670123e+003,3.795564e-001
1.673980e+003,3.675953e-001
1.677837e+003,3.576753e-001
1.681694e+003,3.475745e-001
1.685551e+003,3.359773e-001
1.689408e+003,3.208254e-001
1.693265e+003,3.101163e-001
1.697122e+003,3.039980e-001
1.700979e+003,2.971946e-001
1.704837e+003,2.892393e-001
1.708694e+003,2.813295e-001
1.712551e+003,2.743904e-001
1.716408e+003,2.684758e-001
1.720265e+003,2.652977e-001
1.724122e+003,2.657123e-001
1.727979e+003,2.634866e-001
1.731836e+003,2.615241e-001
1.735693e+003,2.612837e-001
1.739550e+003,2.620451e-001
1.743408e+003,2.636516e-001
1.747265e+003,2.653214e-001
1.751122e+003,2.678845e-001
1.754979e+003,2.749581e-001
1.758836e+003,2.811032e-001
1.762693e+003,2.831289e-001
1.766550e+003,2.849161e-001
1.770407e+003,2.889862e-001
1.774264e+003,2.910705e-001
1.778121e+003,2.922661e-001
1.781979e+003,2.940280e-001
1.785836e+003,2.916974e-001
1.789693e+003,2.873838e-001
1.793550e+003,2.826622e-001
1.797407e+003,2.784883e-001
1.801264e+003,2.744910e-001
1.805121e+003,2.692364e-001
1.808978e+003,2.645517e-001
1.812835e+003,2.594650e-001
1.816692e+003,2.552462e-001
1.820549e+003,2.536909e-001
1.824407e+003,2.504405e-001
1.828264e+003,2.445557e-001
1.832121e+003,2.396938e-001
1.835978e+003,2.362834e-001
1.839835e+003,2.324879e-001
1.843692e+003,2.292970e-001
1.847549e+003,2.268858e-001
1.851406e+003,2.264001e-001
1.855263e+003,2.260476e-001
1.859120e+003,2.278803e-001
1.862978e+003,2.301560e-001
1.866835e+003,2.295317e-001
1.870692e+003,2.304273e-001
1.874549e+003,2.331109e-001
1.878406e+003,2.373256e-001
1.882263e+003,2.419019e-001
1.886120e+003,2.446776e-001
1.889977e+003,2.461532e-001
1.893834e+003,2.479875e-001
1.897691e+003,2.514125e-001
1.901548e+003,2.553229e-001
1.905406e+003,2.573248e-001
1.909263e+003,2.570238e-001
1.913120e+003,2.571665e-001
1.916977e+003,2.556176e-001
1.920834e+003,2.536788e-001
1.924691e+003,2.522645e-001
1.928548e+003,2.495572e-001
1.932405e+003,2.482154e-001
1.936262e+003,2.430173e-001
1.940119e+003,2.352398e-001
1.943977e+003,2.320858e-001
1.947834e+003,2.284302e-001
1.951691e+003,2.219822e-001
1.955548e+003,2.182553e-001
1.959405e+003,2.150630e-001
1.963262e+003,2.123954e-001
1.967119e+003,2.079913e-001
1.970976e+003,2.062848e-001
1.974833e+003,2.053718e-001
1.978690e+003,2.026656e-001
1.982547e+003,2.022560e-001
1.986405e+003,2.053012e-001
1.990262e+003,2.079286e-001
1.994119e+003,2.086986e-001
1.997976e+003,2.117106e-001
2.001833e+003,2.138270e-001
2.005690e+003,2.183974e-001
2.009547e+003,2.235942e-001
2.013404e+003,2.260950e-001
2.017261e+003,2.280146e-001
2.021118e+003,2.299026e-001
2.024976e+003,2.314873e-001
2.028833e+003,2.345487e-001
2.032690e+003,2.355187e-001
2.036547e+003,2.363508e-001
2.040404e+003,2.371489e-001
2.044261e+003,2.373451e-001
2.048118e+003,2.353206e-001
2.051975e+003,2.337923e-001
2.055832e+003,2.323348e-001
2.059689e+003,2.263325e-001
2.063546e+003,2.204447e-001
2.067404e+003,2.173360e-001
2.071261e+003,2.136859e-001
2.075118e+003,2.068748e-001
2.078975e+003,2.019207e-001
2.082832e+003,1.988532e-001
2.086689e+003,1.948038e-001
2.090546e+003,1.893350e-001
2.094403e+003,1.856510e-001
2.098260e+003,1.847296e-001
2.102117e+003,1.835552e-001
2.105975e+003,1.834953e-001
2.109832e+003,1.857628e-001
2.113689e+003,1.859650e-001
2.117546e+003,1.851415e-001
2.121403e+003,1.871477e-001
2.125260e+003,1.931400e-001
2.129117e+003,1.979772e-001
2.132974e+003,2.006491e-001
2.136831e+003,2.040243e-001
2.140688e+003,2.091325e-001
2.144545e+003,2.145734e-001
2.148403e+003,2.186359e-001
2.152260e+003,2.230393e-001
2.156117e+003,2.270625e-001
2.159974e+003,2.300659e-001
2.163831e+003,2.316362e-001
2.167688e+003,2.317801e-001
2.171545e+003,2.327975e-001
2.175402e+003,2.322344e-001
2.179259e+003,2.309391e-001
2.183116e+003,2.300794e-001
2.186974e+003,2.280194e-001
2.190831e+003,2.258059e-001
2.194688e+003,2.231492e-001
2.198545e+003,2.185902e-001
2.202402e+003,2.131760e-001
2.206259e+003,2.082953e-001
2.210116e+003,2.043325e-001
2.213973e+003,1.999424e-001
2.217830e+003,1.974661e-001
2.221688e+003,1.954261e-001
2.225544e+003,1.921351e-001
2.229402e+003,1.886335e-001
2.233259e+003,1.878346e-001
2.237116e+003,1.900693e-001
2.240973e+003,1.903453e-001
2.244830e+003,1.910752e-001
2.248687e+003,1.932797e-001
2.252544e+003,1.966955e-001
2.256401e+003,1.995806e-001
2.260258e+003,2.032046e-001
2.264115e+003,2.059518e-001
2.267973e+003,2.092228e-001
2.271830e+003,2.144522e-001
2.275687e+003,2.187560e-001
2.279544e+003,2.237775e-001
2.283401e+003,2.270058e-001
2.287258e+003,2.302791e-001
2.291115e+003,2.342919e-001
2.294972e+003,2.382882e-001
2.298829e+003,2.399589e-001
2.302687e+003,2.389850e-001
2.306543e+003,2.393352e-001
2.310401e+003,2.393148e-001
2.314258e+003,2.370997e-001
2.318115e+003,2.350398e-001
2.321972e+003,2.322289e-001
2.325829e+003,2.296921e-001
2.329686e+003,2.288192e-001
2.333543e+003,2.244258e-001
2.337400e+003,2.184870e-001
2.341257e+003,2.132704e-001
2.345115e+003,2.085939e-001
2.348972e+003,2.065033e-001
2.352829e+003,2.039335e-001
2.356686e+003,2.007564e-001
2.360543e+003,1.986078e-001
2.364400e+003,1.973564e-001
2.368257e+003,1.998685e-001
2.372114e+003,1.990403e-001
2.375971e+003,1.969559e-001
2.379828e+003,1.987355e-001
2.383686e+003,2.032995e-001
2.387542e+003,2.067509e-001
2.391400e+003,2.087652e-001
2.395257e+003,2.118781e-001
2.399114e+003,2.177625e-001
2.402971e+003,2.224517e-001
2.406828e+003,2.257265e-001
2.410685e+003,2.303417e-001
2.414542e+003,2.339874e-001
2.418399e+003,2.355358e-001
2.422256e+003,2.359027e-001
2.426114e+003,2.391715e-001
2.429971e+003,2.416199e-001
2.433828e+003,2.420675e-001
2.437685e+003,2.395861e-001
2.441542e+003,2.387950e-001
2.445399e+003,2.389261e-001
2.449256e+003,2.371547e-001
2.453113e+003,2.342893e-001
2.456970e+003,2.286162e-001
2.460827e+003,2.254142e-001
2.464684e+003,2.219058e-001
2.468542e+003,2.136561e-001
2.472399e+003,2.103492e-001
2.476256e+003,2.086460e-001
2.480113e+003,2.041704e-001
2.483970e+003,2.004658e-001
2.487827e+003,1.967204e-001
2.491684e+003,1.936131e-001
2.495541e+003,1.909787e-001
2.499398e+003,1.885732e-001
2.503255e+003,1.881871e-001
2.507113e+003,1.894107e-001
2.510969e+003,1.913800e-001
2.514827e+003,1.943372e-001
2.518684e+003,1.991684e-001
2.522541e+003,2.031699e-001
2.526398e+003,2.069588e-001
2.530255e+003,2.114144e-001
2.534112e+003,2.163644e-001
2.537969e+003,2.211551e-001
2.541826e+003,2.260549e-001
2.545683e+003,2.321859e-001
2.549541e+003,2.372248e-001
2.553398e+003,2.418499e-001
2.557255e+003,2.452181e-001
2.561112e+003,2.471387e-001
2.564969e+003,2.499615e-001
2.568826e+003,2.498438e-001
2.572683e+003,2.489543e-001
2.576540e+003,2.479582e-001
2.580397e+003,2.468642e-001
2.584254e+003,2.451595e-001
2.588112e+003,2.438668e-001
2.591969e+003,2.413747e-001
2.595826e+003,2.369497e-001
2.599683e+003,2.324590e-001
2.603540e+003,2.301657e-001
2.607397e+003,2.277464e-001
2.611254e+003,2.242165e-001
2.615111e+003,2.215530e-001
2.618968e+003,2.205787e-001
2.622825e+003,2.190907e-001
2.626682e+003,2.163409e-001
2.630540e+003,2.162011e-001
2.634397e+003,2.196966e-001
2.638254e+003,2.210233e-001
2.642111e+003,2.214675e-001
2.645968e+003,2.236461e-001
2.649825e+003,2.278391e-001
2.653682e+003,2.330697e-001
2.657539e+003,2.384444e-001
2.661396e+003,2.446033e-001
2.665253e+003,2.486456e-001
2.669111e+003,2.521055e-001
2.672968e+003,2.571339e-001
2.676825e+003,2.628253e-001
2.680682e+003,2.691997e-001
2.684539e+003,2.728014e-001
2.688396e+003,2.738670e-001
2.692253e+003,2.766333e-001
2.696110e+003,2.808657e-001
2.699967e+003,2.848209e-001
2.703824e+003,2.869677e-001
2.707681e+003,2.859593e-001
2.711539e+003,2.851965e-001
2.715396e+003,2.870097e-001
2.719253e+003,2.872581e-001
2.723110e+003,2.847334e-001
2.726967e+003,2.806354e-001
2.730824e+003,2.776853e-001
2.734681e+003,2.752652e-001
2.738538e+003,2.754649e-001
2.742395e+003,2.754207e-001
2.746252e+003,2.746211e-001
2.750110e+003,2.734375e-001
2.753967e+003,2.733844e-001
2.757824e+003,2.739678e-001
2.761681e+003,2.732213e-001
2.765538e+003,2.725691e-001
2.769395e+003,2.753263e-001
2.773252e+003,2.801986e-001
2.777109e+003,2.841081e-001
2.780966e+003,2.878626e-001
2.784823e+003,2.922657e-001
2.788680e+003,2.972642e-001
2.792538e+003,3.026333e-001
2.796395e+003,3.059720e-001
2.800252e+003,3.105709e-001
2.804109e+003,3.155815e-001
2.807966e+003,3.226131e-001
2.811823e+003,3.299761e-001
2.815680e+003,3.353263e-001
2.819537e+003,3.395232e-001
2.823394e+003,3.432806e-001
2.827251e+003,3.463702e-001
2.831109e+003,3.488068e-001
2.834966e+003,3.520288e-001
2.838823e+003,3.558840e-001
2.842680e+003,3.560344e-001
2.846537e+003,3.538350e-001
2.850394e+003,3.532004e-001
2.854251e+003,3.544037e-001
2.858108e+003,3.563392e-001
2.861965e+003,3.582369e-001
2.865823e+003,3.561682e-001
2.869679e+003,3.527190e-001
2.873537e+003,3.505907e-001
2.877394e+003,3.518173e-001
2.881251e+003,3.536340e-001
2.885108e+003,3.501549e-001
2.888965e+003,3.490610e-001
2.892822e+003,3.507731e-001
2.896679e+003,3.538610e-001
2.900536e+003,3.558855e-001
2.904393e+003,3.583642e-001
2.908250e+003,3.630889e-001
2.912108e+003,3.667547e-001
2.915965e+003,3.711551e-001
2.919822e+003,3.789935e-001
2.923679e+003,3.869026e-001
2.927536e+003,3.895259e-001
2.931393e+003,3.938852e-001
2.935250e+003,4.010078e-001
2.939107e+003,4.049506e-001
2.942964e+003,4.088301e-001
2.946822e+003,4.146911e-001
2.950678e+003,4.159540e-001
2.954536e+003,4.204620e-001
2.958393e+003,4.289926e-001
2.962250e+003,4.349143e-001
2.966107e+003,4.378922e-001
2.969964e+003,4.368371e-001
2.973821e+003,4.369165e-001
2.977678e+003,4.360768e-001
2.981535e+003,4.388041e-001
2.985392e+003,4.407586e-001
2.989250e+003,4.432977e-001
2.993107e+003,4.477277e-001
2.996964e+003,4.484556e-001
3.000821e+003,4.463125e-001
3.004678e+003,4.454860e-001
3.008535e+003,4.471465e-001
3.012392e+003,4.494193e-001
3.016249e+003,4.493826e-001
3.020106e+003,4.490825e-001
3.023963e+003,4.509502e-001
3.027821e+003,4.524954e-001
3.031677e+003,4.560196e-001
3.035535e+003,4.608594e-001
3.039392e+003,4.613220e-001
3.043249e+003,4.642005e-001
3.047106e+003,4.675895e-001
3.050963e+003,4.693026e-001
3.054820e+003,4.752600e-001
3.058677e+003,4.821971e-001
3.062534e+003,4.891575e-001
3.066391e+003,4.964837e-001
3.070249e+003,4.989756e-001
3.074106e+003,5.031893e-001
3.077963e+003,5.129524e-001
3.081820e+003,5.209005e-001
3.085677e+003,5.265043e-001
3.089534e+003,5.291346e-001
3.093391e+003,5.325619e-001
3.097248e+003,5.375184e-001
3.101105e+003,5.405445e-001
3.104962e+003,5.405772e-001
3.108820e+003,5.419846e-001
3.112677e+003,5.464947e-001
3.116534e+003,5.510222e-001
3.120391e+003,5.552943e-001
3.124248e+003,5.545849e-001
3.128105e+003,5.549746e-001
3.131962e+003,5.549113e-001
3.135819e+003,5.583228e-001
3.139676e+003,5.627437e-001
3.143533e+003,5.654412e-001
3.147390e+003,5.685226e-001
3.151248e+003,5.686368e-001
3.155105e+003,5.688181e-001
3.158962e+003,5.700061e-001
3.162819e+003,5.718150e-001
3.166676e+003,5.788400e-001
3.170533e+003,5.850482e-001
3.174390e+003,5.882118e-001
3.178247e+003,5.931737e-001
3.182104e+003,5.948551e-001
3.185961e+003,5.954845e-001
3.189819e+003,5.982602e-001
3.193676e+003,6.063717e-001
3.197533e+003,6.141414e-001
3.201390e+003,6.196780e-001
3.205247e+003,6.237149e-001
3.209104e+003,6.272242e-001
3.212961e+003,6.318775e-001
3.216818e+003,6.354144e-001
3.220675e+003,6.444784e-001
3.224532e+003,6.475687e-001
3.228389e+003,6.466802e-001
3.232247e+003,6.506329e-001
3.236104e+003,6.524125e-001
3.239961e+003,6.589147e-001
3.243818e+003,6.656863e-001
3.247675e+003,6.688762e-001
3.251532e+003,6.685299e-001
3.255389e+003,6.624557e-001
3.259246e+003,6.612692e-001
3.263103e+003,6.683840e-001
3.266960e+003,6.672664e-001
3.270818e+003,6.654751e-001
3.274675e+003,6.665303e-001
3.278532e+003,6.664332e-001
3.282389e+003,6.720588e-001
3.286246e+003,6.719407e-001
3.290103e+003,6.728125e-001
3.293960e+003,6.767815e-001
3.297817e+003,6.777897e-001
3.301674e+003,6.774079e-001
3.305531e+003,6.799750e-001
3.309388e+003,6.838960e-001
3.313246e+003,6.852735e-001
3.317103e+003,6.904212e-001
3.320960e+003,6.909908e-001
3.324817e+003,6.914382e-001
3.328674e+003,7.035705e-001
3.332531e+003,7.076036e-001
3.336388e+003,7.103781e-001
3.340245e+003,7.161340e-001
3.344102e+003,7.221304e-001
3.347959e+003,7.324674e-001
3.351817e+003,7.377518e-001
3.355674e+003,7.385187e-001
3.359531e+003,7.472469e-001
3.363388e+003,7.542976e-001
3.367245e+003,7.562404e-001
3.371102e+003,7.500386e-001
3.374959e+003,7.441905e-001
3.378816e+003,7.483509e-001
3.382673e+003,7.556346e-001
3.386530e+003,7.626708e-001
3.390387e+003,7.628329e-001
3.394245e+003,7.596361e-001
3.398102e+003,7.679418e-001
3.401959e+003,7.695413e-001
3.405816e+003,7.627365e-001
3.409673e+003,7.680458e-001
3.413530e+003,7.694907e-001
3.417387e+003,7.617341e-001
3.421244e+003,7.604523e-001
3.425101e+003,7.607970e-001
3.428958e+003,7.637168e-001
3.432815e+003,7.657251e-001
3.436673e+003,7.621361e-001
3.440530e+003,7.641698e-001
3.444387e+003,7.692790e-001
3.448244e+003,7.709208e-001
3.452101e+003,7.749804e-001
3.455958e+003,7.783715e-001
3.459815e+003,7.777885e-001
3.463672e+003,7.821746e-001
3.467529e+003,7.837640e-001
3.471386e+003,7.850857e-001
3.475244e+003,7.849809e-001
3.479101e+003,7.856336e-001
3.482958e+003,7.878600e-001
3.486815e+003,7.903665e-001
3.490672e+003,7.981534e-001
3.494529e+003,8.057122e-001
3.498386e+003,8.031785e-001
3.502243e+003,7.999808e-001
3.506100e+003,8.001133e-001
3.509958e+003,8.111695e-001
3.513814e+003,8.157907e-001
3.517672e+003,8.122150e-001
3.521529e+003,8.161302e-001
3.525386e+003,8.152828e-001
3.529243e+003,8.082880e-001
3.533100e+003,8.007361e-001
3.536957e+003,7.961279e-001
3.540814e+003,7.912208e-001
3.544671e+003,7.884921e-001
3.548528e+003,7.903876e-001
3.552385e+003,7.923725e-001
3.556243e+003,7.852103e-001
3.560100e+003,7.754677e-001
3.563957e+003,7.757472e-001
3.567814e+003,7.685546e-001
3.571671e+003,7.593237e-001
3.575528e+003,7.550611e-001
3.579385e+003,7.551956e-001
3.583242e+003,7.520555e-001
3.587099e+003,7.405513e-001
3.590957e+003,7.241082e-001
3.594813e+003,7.161578e-001
3.598671e+003,7.081026e-001
3.602528e+003,6.892039e-001
3.606385e+003,6.697794e-001
3.610242e+003,6.551410e-001
3.614099e+003,6.356440e-001
3.617956e+003,6.164132e-001
3.621813e+003,5.936632e-001
3.625670e+003,5.695846e-001
3.629527e+003,5.385016e-001
3.633385e+003,5.079443e-001
3.637242e+003,4.793879e-001
3.641099e+003,4.526822e-001
3.644956e+003,4.265029e-001
3.648813e+003,4.008581e-001
3.652670e+003,3.733271e-001
3.656527e+003,3.455804e-001
3.660384e+003,3.211627e-001
3.664241e+003,3.031457e-001
3.668098e+003,2.863691e-001
3.671956e+003,2.711370e-001
3.675813e+003,2.581236e-001
3.679670e+003,2.436716e-001
3.683527e+003,2.323926e-001
3.687384e+003,2.232993e-001
3.691241e+003,2.178553e-001
3.695098e+003,2.119807e-001
3.698955e+003,2.047221e-001
3.702812e+003,1.992217e-001
3.706669e+003,1.947652e-001
3.710526e+003,1.924157e-001
3.714384e+003,1.910686e-001
3.718241e+003,1.866601e-001
3.722098e+003,1.800618e-001
3.725955e+003,1.749455e-001
3.729812e+003,1.716689e-001
3.733669e+003,1.693508e-001
3.737526e+003,1.661720e-001
3.741383e+003,1.622651e-001
3.745240e+003,1.598308e-001
3.749097e+003,1.587624e-001
3.752955e+003,1.569292e-001
3.756812e+003,1.530734e-001
3.760669e+003,1.480647e-001
3.764526e+003,1.465192e-001
3.768383e+003,1.479386e-001
3.772240e+003,1.486647e-001
3.776097e+003,1.492857e-001
3.779954e+003,1.493274e-001
3.783811e+003,1.491540e-001
3.787668e+003,1.463085e-001
3.791525e+003,1.457541e-001
3.795383e+003,1.489409e-001
3.799240e+003,1.487199e-001
3.803097e+003,1.499478e-001
3.806954e+003,1.528944e-001
3.810811e+003,1.554583e-001
3.814668e+003,1.557974e-001
3.818525e+003,1.548513e-001
3.822382e+003,1.565391e-001
3.826239e+003,1.569779e-001
3.830096e+003,1.564401e-001
3.833954e+003,1.577499e-001
3.837811e+003,1.571106e-001
3.841668e+003,1.543310e-001
3.845525e+003,1.540652e-001
3.849382e+003,1.539751e-001
3.853239e+003,1.524149e-001
3.857096e+003,1.506277e-001
3.860953e+003,1.495614e-001
3.864810e+003,1.466819e-001
3.868667e+003,1.447440e-001
3.872524e+003,1.440777e-001
3.876382e+003,1.420564e-001
3.880239e+003,1.398224e-001
3.884096e+003,1.409892e-001
3.887953e+003,1.402524e-001
3.891810e+003,1.403071e-001
3.895667e+003,1.402494e-001
3.899524e+003,1.409899e-001
3.903381e+003,1.402030e-001
3.907238e+003,1.406203e-001
3.911095e+003,1.415218e-001
3.914953e+003,1.390256e-001
3.918810e+003,1.385640e-001
3.922667e+003,1.414525e-001
3.926524e+003,1.434995e-001
3.930381e+003,1.452918e-001
3.934238e+003,1.492626e-001
3.938095e+003,1.511623e-001
3.941952e+003,1.518280e-001
3.945809e+003,1.502095e-001
3.949667e+003,1.496501e-001
3.953523e+003,1.517872e-001
3.957381e+003,1.545699e-001
3.961238e+003,1.539790e-001
3.965095e+003,1.562420e-001
3.968952e+003,1.576912e-001
3.972809e+003,1.549036e-001
3.976666e+003,1.508172e-001
3.980523e+003,1.471163e-001
3.984380e+003,1.450055e-001
3.988237e+003,1.434278e-001
3.992094e+003,1.432237e-001
3.995952e+003,1.417453e-001
3.999809e+003,1.400864e-001
4.003666e+003,1.385429e-001
4.007523e+003,1.372825e-001
4.011380e+003,1.354094e-001
4.015237e+003,1.340275e-001
4.019094e+003,1.338486e-001
4.022951e+003,1.319011e-001
4.026808e+003,1.315062e-001
4.030666e+003,1.302812e-001
4.034522e+003,1.313320e-001
4.038380e+003,1.334902e-001
4.042237e+003,1.360230e-001
4.046094e+003,1.387825e-001
4.049951e+003,1.366271e-001
4.053808e+003,1.350264e-001
4.057665e+003,1.372356e-001
4.061522e+003,1.367277e-001
4.065379e+003,1.375377e-001
4.069236e+003,1.397437e-001
4.073094e+003,1.427330e-001
4.076951e+003,1.420447e-001
4.080808e+003,1.412203e-001
4.084665e+003,1.427556e-001
4.088522e+003,1.430817e-001
4.092379e+003,1.429097e-001
4.096236e+003,1.454704e-001
4.100093e+003,1.445759e-001
4.103950e+003,1.410992e-001
4.107808e+003,1.393804e-001
4.111665e+003,1.386364e-001
4.115521e+003,1.367628e-001
4.119379e+003,1.367321e-001
4.123236e+003,1.381401e-001
4.127093e+003,1.381057e-001
4.130950e+003,1.357040e-001
4.134807e+003,1.321001e-001
4.138664e+003,1.297096e-001
4.142521e+003,1.269731e-001
4.146378e+003,1.298194e-001
4.150235e+003,1.318319e-001
4.154093e+003,1.284422e-001
4.157950e+003,1.251380e-001
4.161807e+003,1.247717e-001
4.165664e+003,1.259260e-001
4.169521e+003,1.282180e-001
4.173378e+003,1.288315e-001
4.177235e+003,1.285361e-001
4.181092e+003,1.310993e-001
4.184949e+003,1.311574e-001
4.188807e+003,1.289976e-001
4.192664e+003,1.308737e-001
4.196521e+003,1.323034e-001
4.200378e+003,1.324910e-001
4.204235e+003,1.328855e-001
4.208092e+003,1.336304e-001
4.211949e+003,1.363987e-001
4.215806e+003,1.365342e-001
4.219663e+003,1.360575e-001
4.223521e+003,1.370412e-001
4.227377e+003,1.358859e-001
4.231234e+003,1.343693e-001
4.235092e+003,1.323769e-001
4.238949e+003,1.361727e-001
4.242806e+003,1.366435e-001
4.246663e+003,1.333823e-001
4.250520e+003,1.326175e-001
4.254377e+003,1.332869e-001
4.258234e+003,1.344390e-001
4.262091e+003,1.310889e-001
4.265948e+003,1.282694e-001
4.269806e+003,1.255289e-001
4.273663e+003,1.234071e-001
4.277520e+003,1.258403e-001
4.281377e+003,1.263619e-001
4.285234e+003,1.224601e-001
4.289091e+003,1.195595e-001
4.292948e+003,1.231772e-001
4.296805e+003,1.257269e-001
4.300662e+003,1.235400e-001
4.304520e+003,1.220951e-001
4.308376e+003,1.223332e-001
4.312233e+003,1.253217e-001
4.316091e+003,1.259513e-001
4.319948e+003,1.231719e-001
4.323805e+003,1.212446e-001
4.327662e+003,1.222114e-001
4.331519e+003,1.238900e-001
4.335376e+003,1.305439e-001
4.339233e+003,1.351834e-001
4.343090e+003,1.339037e-001
4.346947e+003,1.347674e-001
4.350805e+003,1.363594e-001
4.354662e+003,1.345791e-001
4.358519e+003,1.344025e-001
4.362376e+003,1.344813e-001
4.366233e+003,1.357995e-001
4.370090e+003,1.368498e-001
4.373947e+003,1.332107e-001
4.377804e+003,1.323426e-001
4.381661e+003,1.328745e-001
4.385519e+003,1.298435e-001
4.389375e+003,1.269289e-001
4.393232e+003,1.255563e-001
4.397090e+003,1.255802e-001
4.400947e+003,1.252263e-001
4.404804e+003,1.244916e-001
4.408661e+003,1.261884e-001
4.412518e+003,1.288729e-001
4.416375e+003,1.265666e-001
4.420232e+003,1.255257e-001
4.424089e+003,1.263585e-001
4.427946e+003,1.260827e-001
4.431804e+003,1.229533e-001
4.435661e+003,1.215199e-001
4.439518e+003,1.218212e-001
4.443375e+003,1.208439e-001
4.447232e+003,1.209519e-001
4.451089e+003,1.226982e-001
4.454946e+003,1.252105e-001
4.458803e+003,1.263271e-001
4.462660e+003,1.254222e-001
4.466518e+003,1.261880e-001
4.470375e+003,1.282893e-001
4.474231e+003,1.276796e-001
4.478089e+003,1.307691e-001
4.481946e+003,1.353403e-001
4.485803e+003,1.359237e-001
4.489660e+003,1.350325e-001
4.493517e+003,1.337534e-001
4.497375e+003,1.314882e-001
4.501231e+003,1.318150e-001
4.505088e+003,1.307668e-001
4.508946e+003,1.308924e-001
4.512803e+003,1.324242e-001
4.516660e+003,1.284298e-001
4.520517e+003,1.248642e-001
4.524374e+003,1.247481e-001
4.528231e+003,1.237156e-001
4.532088e+003,1.234862e-001
4.535945e+003,1.231142e-001
4.539802e+003,1.205673e-001
4.543660e+003,1.180741e-001
4.547517e+003,1.179657e-001
4.551374e+003,1.171990e-001
4.555231e+003,1.148376e-001
4.559088e+003,1.169105e-001
4.562945e+003,1.180283e-001
4.566802e+003,1.162785e-001
4.570659e+003,1.191801e-001
4.574516e+003,1.221317e-001
4.578374e+003,1.202810e-001
4.582230e+003,1.192839e-001
4.586087e+003,1.178239e-001
4.589945e+003,1.150141e-001
4.593802e+003,1.164906e-001
4.597659e+003,1.185514e-001
4.601516e+003,1.201796e-001
4.605373e+003,1.224587e-001
4.609230e+003,1.230250e-001
4.613087e+003,1.209439e-001
4.616944e+003,1.231154e-001
4.620801e+003,1.242890e-001
4.624659e+003,1.246773e-001
4.628516e+003,1.214130e-001
4.632373e+003,1.220573e-001
4.636230e+003,1.241724e-001
4.640087e+003,1.234398e-001
4.643944e+003,1.241322e-001
4.647801e+003,1.243490e-001
4.651658e+003,1.234991e-001
4.655515e+003,1.241738e-001
4.659373e+003,1.211119e-001
4.663229e+003,1.183716e-001
4.667086e+003,1.192211e-001
4.670944e+003,1.227444e-001
4.674801e+003,1.200257e-001
4.678658e+003,1.146370e-001
4.682515e+003,1.128084e-001
4.686372e+003,1.129470e-001
4.690229e+003,1.127200e-001
4.694086e+003,1.117192e-001
4.697943e+003,1.127936e-001
4.701800e+003,1.137266e-001
4.705658e+003,1.136068e-001
4.709515e+003,1.165597e-001
4.713372e+003,1.170847e-001
4.717229e+003,1.110974e-001
4.721086e+003,1.116570e-001
4.724943e+003,1.155323e-001
4.728800e+003,1.144347e-001
4.732657e+003,1.136054e-001
4.736514e+003,1.137303e-001
4.740372e+003,1.163599e-001
4.744229e+003,1.221613e-001
4.748085e+003,1.219704e-001
4.751943e+003,1.204672e-001
4.755800e+003,1.227998e-001
4.759657e+003,1.244325e-001
4.763514e+003,1.239433e-001
4.767371e+003,1.247196e-001
4.771228e+003,1.274846e-001
4.775085e+003,1.290256e-001
4.778942e+003,1.290824e-001
4.782799e+003,1.262524e-001
4.786657e+003,1.225044e-001
4.790514e+003,1.239521e-001
4.794371e+003,1.209242e-001
4.798228e+003,1.152174e-001
4.802085e+003,1.168171e-001
4.805942e+003,1.207802e-001
4.809799e+003,1.205397e-001
4.813656e+003,1.173758e-001
4.817513e+003,1.163828e-001
4.821371e+003,1.166871e-001
4.825228e+003,1.169039e-001
4.829084e+003,1.157709e-001
4.832942e+003,1.157285e-001
4.836799e+003,1.177468e-001
4.840656e+003,1.172107e-001
4.844513e+003,1.160431e-001
4.848370e+003,1.151909e-001
4.852227e+003,1.131085e-001
4.856084e+003,1.116948e-001
4.859941e+003,1.177509e-001
4.863798e+003,1.198375e-001
4.867656e+003,1.182473e-001
4.871513e+003,1.165555e-001
4.875370e+003,1.212178e-001
4.879227e+003,1.216170e-001
4.883084e+003,1.164474e-001
4.886941e+003,1.154738e-001
4.890798e+003,1.186031e-001
4.894655e+003,1.188362e-001
4.898512e+003,1.190425e-001
4.902370e+003,1.196609e-001
4.906227e+003,1.179924e-001
4.910083e+003,1.173836e-001
4.913941e+003,1.150909e-001
4.917798e+003,1.153356e-001
4.921655e+003,1.168811e-001
4.925512e+003,1.206126e-001
4.929369e+003,1.232842e-001
4.933226e+003,1.184157e-001
4.937083e+003,1.148387e-001
4.940940e+003,1.143868e-001
4.944797e+003,1.180378e-001
4.948655e+003,1.176266e-001
4.952512e+003,1.130759e-001
4.956369e+003,1.121317e-001
4.960226e+003,1.152135e-001
4.964083e+003,1.179964e-001
4.967940e+003,1.156227e-001
4.971797e+003,1.107068e-001
4.975654e+003,1.092352e-001
4.979511e+003,1.094038e-001
4.983369e+003,1.128612e-001
4.987226e+003,1.154500e-001
4.991083e+003,1.164481e-001
4.994940e+003,1.186625e-001
4.998797e+003,1.165901e-001
5.002654e+003,1.107168e-001
5.006511e+003,1.105703e-001
5.010368e+003,1.169707e-001
5.014225e+003,1.187032e-001
5.018083e+003,1.165660e-001
5.021939e+003,1.109914e-001
5.025796e+003,1.125648e-001
5.029654e+003,1.204516e-001
5.033511e+003,1.191299e-001
5.037368e+003,1.165754e-001
5.041225e+003,1.152673e-001
5.045082e+003,1.175446e-001
5.048939e+003,1.214617e-001
5.052796e+003,1.216594e-001
5.056653e+003,1.199568e-001
5.060510e+003,1.174233e-001
5.064368e+003,1.145919e-001
5.068225e+003,1.149712e-001
5.072082e+003,1.175743e-001
5.075939e+003,1.189093e-001
5.079796e+003,1.174579e-001
5.083653e+003,1.191468e-001
5.087510e+003,1.185801e-001
5.091367e+003,1.155439e-001
5.095224e+003,1.106202e-001
5.099082e+003,1.129813e-001
5.102938e+003,1.185862e-001
5.106795e+003,1.154318e-001
5.110653e+003,1.107417e-001
5.114510e+003,1.081136e-001
5.118367e+003,1.064805e-001
5.122224e+003,1.133802e-001
5.126081e+003,1.183683e-001
5.129938e+003,1.206857e-001
5.133795e+003,1.210750e-001
5.137652e+003,1.175072e-001
5.141509e+003,1.153736e-001
5.145367e+003,1.176024e-001
5.149224e+003,1.131738e-001
5.153081e+003,1.074904e-001
5.156938e+003,1.098074e-001
5.160795e+003,1.148340e-001
5.164652e+003,1.179558e-001
5.168509e+003,1.193440e-001
5.172366e+003,1.244189e-001
5.176223e+003,1.241681e-001
5.180081e+003,1.212774e-001
5.183938e+003,1.230691e-001
5.187794e+003,1.248759e-001
5.191652e+003,1.203904e-001
5.195509e+003,1.195589e-001
5.199366e+003,1.230155e-001
5.203223e+003,1.231688e-001
5.207080e+003,1.168033e-001
5.210937e+003,1.110856e-001
5.214794e+003,1.160355e-001
5.218651e+003,1.174171e-001
5.222508e+003,1.173841e-001
5.226366e+003,1.152422e-001
5.230223e+003,1.114118e-001
5.234080e+003,1.091051e-001
5.237937e+003,1.114427e-001
5.241794e+003,1.145980e-001
5.245651e+003,1.127182e-001
5.249508e+003,1.107653e-001
5.253365e+003,1.083241e-001
5.257222e+003,1.070466e-001
5.261080e+003,1.071306e-001
5.264937e+003,1.016630e-001
5.268793e+003,1.070125e-001
5.272651e+003,1.160140e-001
5.276508e+003,1.175799e-001
5.280365e+003,1.102141e-001
5.284222e+003,1.062122e-001
5.288079e+003,1.072318e-001
5.291936e+003,1.085116e-001
5.295793e+003,1.077958e-001
5.299650e+003,1.079152e-001
5.303507e+003,1.055325e-001
5.307365e+003,1.051077e-001
5.311222e+003,1.110571e-001
5.315079e+003,1.150763e-001
5.318936e+003,1.138180e-001
5.322793e+003,1.106421e-001
5.326650e+003,1.105043e-001
5.330507e+003,1.110710e-001
5.334364e+003,1.093827e-001
5.338221e+003,1.112896e-001
5.342079e+003,1.129859e-001
5.345936e+003,1.108501e-001
5.349792e+003,1.095832e-001
5.353650e+003,1.039796e-001
5.357507e+003,1.053250e-001
5.361364e+003,1.109277e-001
5.365221e+003,1.095813e-001
5.369078e+003,1.053793e-001
5.372935e+003,1.070907e-001
5.376792e+003,1.105668e-001
5.380649e+003,1.093006e-001
5.384506e+003,1.065024e-001
5.388364e+003,1.060308e-001
5.392221e+003,1.054874e-001
5.396078e+003,1.041833e-001
5.399935e+003,1.039376e-001
5.403792e+003,1.102838e-001
5.407649e+003,1.089812e-001
5.411506e+003,1.061340e-001
5.415363e+003,1.069252e-001
5.419220e+003,1.057458e-001
5.423078e+003,1.023049e-001
5.426935e+003,1.015512e-001
5.430792e+003,1.013619e-001
5.434649e+003,1.053066e-001
5.438506e+003,1.111431e-001
5.442363e+003,1.100583e-001
5.446220e+003,1.074385e-001
5.450077e+003,1.012911e-001
5.453934e+003,9.934805e-002
5.457792e+003,1.052454e-001
5.461648e+003,1.059844e-001
5.465505e+003,1.045360e-001
5.469363e+003,1.075795e-001
5.473220e+003,1.095249e-001
5.477077e+003,1.089813e-001
5.480934e+003,1.102475e-001
5.484791e+003,1.082222e-001
5.488648e+003,1.066414e-001
5.492505e+003,1.047767e-001
5.496362e+003,1.035777e-001
5.500219e+003,1.069663e-001
5.504077e+003,1.080515e-001
5.507934e+003,1.071301e-001
5.511791e+003,1.061823e-001
5.515648e+003,1.016158e-001
5.519505e+003,1.037838e-001
5.523362e+003,1.045785e-001
5.527219e+003,1.021057e-001
5.531076e+003,1.034460e-001
5.534933e+003,1.047128e-001
5.538791e+003,1.026556e-001
5.542647e+003,1.086656e-001
5.546504e+003,1.113765e-001
5.550362e+003,1.048296e-001
5.554219e+003,1.013530e-001
5.558076e+003,9.946919e-002
5.561933e+003,1.002583e-001
5.565790e+003,9.915030e-002
5.569647e+003,1.019025e-001
5.573504e+003,1.039654e-001
5.577361e+003,1.062661e-001
5.581218e+003,1.054399e-001
5.585076e+003,1.027788e-001
5.588933e+003,1.031250e-001
5.592790e+003,1.026207e-001
5.596647e+003,1.026845e-001
5.600504e+003,1.010432e-001
5.604361e+003,1.014727e-001
5.608218e+003,1.030526e-001
5.612075e+003,1.026263e-001
5.615932e+003,1.026805e-001
5.619790e+003,1.011877e-001
5.623646e+003,9.830005e-002
5.627503e+003,9.765397e-002
5.631361e+003,1.052682e-001
5.635218e+003,1.070586e-001
5.639075e+003,1.003887e-001
5.642932e+003,1.020962e-001
5.646789e+003,1.049322e-001
5.650646e+003,9.885473e-002
5.654503e+003,9.223778e-002
5.658360e+003,9.320536e-002
5.662217e+003,9.866157e-002
5.666075e+003,1.014034e-001
5.669932e+003,1.048689e-001
5.673789e+003,1.068695e-001
5.677646e+003,1.088138e-001
5.681503e+003,1.047030e-001
5.685360e+003,1.030595e-001
5.689217e+003,1.043024e-001
5.693074e+003,1.046755e-001
5.696931e+003,1.026536e-001
5.700789e+003,1.025909e-001
5.704646e+003,1.037214e-001
5.708502e+003,9.769583e-002
5.712360e+003,9.498007e-002
5.716217e+003,9.723145e-002
5.720074e+003,1.018031e-001
5.723931e+003,1.037969e-001
5.727788e+003,9.888015e-002
5.731645e+003,9.482114e-002
5.735502e+003,9.541836e-002
5.739359e+003,9.525910e-002
5.743216e+003,9.788309e-002
5.747074e+003,9.631012e-002
5.750931e+003,9.285796e-002
5.754788e+003,9.901993e-002
5.758645e+003,1.070886e-001
5.762502e+003,1.070856e-001
5.766359e+003,9.913956e-002
5.770216e+003,9.296979e-002
5.774073e+003,9.375093e-002
5.777930e+003,9.656022e-002
5.781788e+003,9.745533e-002
5.785645e+003,9.326138e-002
5.789501e+003,9.134252e-002
5.793359e+003,9.529471e-002
5.797216e+003,9.686976e-002
5.801073e+003,1.010434e-001
5.804930e+003,1.046475e-001
5.808787e+003,1.042420e-001
5.812644e+003,1.002240e-001
5.816501e+003,9.923432e-002
5.820358e+003,9.500007e-002
5.824215e+003,9.251043e-002
5.828073e+003,9.564688e-002
5.831930e+003,9.490989e-002
5.835787e+003,9.173192e-002
5.839644e+003,8.967805e-002
5.843501e+003,8.834108e-002
5.847358e+003,9.098230e-002
5.851215e+003,1.009170e-001
5.855072e+003,1.000085e-001
5.858929e+003,9.294640e-002
5.862787e+003,9.423429e-002
5.866644e+003,9.384049e-002
5.870500e+003,9.164938e-002
5.874358e+003,9.584428e-002
5.878215e+003,1.058195e-001
5.882072e+003,1.052647e-001
5.885929e+003,9.731365e-002
5.889786e+003,9.067721e-002
5.893643e+003,9.067485e-002
5.897500e+003,9.541047e-002
5.901357e+003,9.636592e-002
5.905214e+003,9.810036e-002
5.909072e+003,9.543590e-002
5.912929e+003,9.268947e-002
5.916786e+003,9.227130e-002
5.920643e+003,9.943449e-002
5.924500e+003,1.050713e-001
5.928357e+003,1.040650e-001
5.932214e+003,1.034271e-001
5.936071e+003,1.012461e-001
5.939928e+003,1.004901e-001
5.943786e+003,9.577773e-002
5.947643e+003,9.086146e-002
5.951500e+003,9.092131e-002
5.955357e+003,8.879857e-002
5.959214e+003,8.813041e-002
5.963071e+003,9.428213e-002
5.966928e+003,1.010854e-001
5.970785e+003,9.830599e-002
5.974642e+003,9.476290e-002
5.978500e+003,9.377705e-002
5.982356e+003,9.205978e-002
5.986213e+003,9.143878e-002
5.990071e+003,9.981300e-002
5.993928e+003,1.052252e-001
5.997785e+003,1.012592e-001
6.001642e+003,1.001679e-001
6.005499e+003,9.795757e-002
6.009356e+003,9.758888e-002
6.013213e+003,1.066744e-001
6.017070e+003,1.046762e-001
6.020927e+003,9.537436e-002
6.024785e+003,9.283059e-002
6.028642e+003,9.439626e-002
6.032499e+003,9.326220e-002
6.036356e+003,9.205847e-002
6.040213e+003,9.662867e-002
6.044070e+003,9.976538e-002
6.047927e+003,9.729292e-002
6.051784e+003,9.347800e-002
6.055641e+003,9.395081e-002
6.059499e+003,9.464084e-002
6.063355e+003,9.297594e-002
6.067212e+003,9.421338e-002
6.071070e+003,9.220607e-002
6.074927e+003,9.307582e-002
6.078784e+003,9.681174e-002
6.082641e+003,9.687410e-002
6.086498e+003,9.270006e-002
6.090355e+003,8.855558e-002
6.094212e+003,8.899768e-002
6.098069e+003,9.092727e-002
6.101926e+003,8.727337e-002
6.105784e+003,9.010600e-002
6.109641e+003,9.114723e-002
6.113498e+003,9.174637e-002
6.117355e+003,9.086134e-002
6.121212e+003,9.398647e-002
6.125069e+003,9.424780e-002
6.128926e+003,9.654345e-002
6.132783e+003,9.481846e-002
6.136640e+003,9.665603e-002
6.140498e+003,9.734109e-002
6.144354e+003,1.013611e-001
6.148211e+003,1.016724e-001
6.152069e+003,9.310345e-002
6.155926e+003,9.146258e-002
6.159783e+003,9.496398e-002
6.163640e+003,9.457101e-002
6.167497e+003,9.715950e-002
6.171354e+003,9.332525e-002
6.175211e+003,9.101617e-002
6.179068e+003,9.570218e-002
6.182925e+003,9.288837e-002
6.186783e+003,9.558180e-002
6.190640e+003,1.060702e-001
6.194497e+003,1.078267e-001
6.198354e+003,9.561731e-002
6.202211e+003,9.380213e-002
6.206068e+003,9.618920e-002
6.209925e+003,1.012744e-001
6.213782e+003,1.012013e-001
6.217639e+003,9.755313e-002
6.221497e+003,9.622149e-002
6.225354e+003,9.401569e-002
6.229210e+003,9.984131e-002
6.233068e+003,1.052493e-001
6.236925e+003,9.904798e-002
6.240782e+003,9.475577e-002
6.244639e+003,9.704953e-002
6.248496e+003,9.978031e-002
6.252353e+003,9.066966e-002
6.256210e+003,8.707436e-002
6.260067e+003,9.080837e-002
6.263924e+003,9.085558e-002
6.267782e+003,9.228949e-002
6.271639e+003,9.501363e-002
6.275496e+003,9.140651e-002
6.279353e+003,8.936301e-002
6.283210e+003,9.255020e-002
6.287067e+003,9.566121e-002
6.290924e+003,9.647390e-002
6.294781e+003,9.721843e-002
6.298638e+003,9.341382e-002
6.302496e+003,9.825373e-002
6.306353e+003,1.008381e-001
6.310209e+003,1.040985e-001
6.314067e+003,1.013385e-001
6.317924e+003,1.008117e-001
6.321781e+003,9.529529e-002
6.325638e+003,9.452344e-002
6.329495e+003,9.859296e-002
6.333352e+003,9.832860e-002
6.337209e+003,9.562350e-002
6.341066e+003,9.969439e-002
6.344923e+003,1.041712e-001
6.348780e+003,1.085420e-001
6.352638e+003,1.120792e-001
6.356495e+003,1.019951e-001
6.360352e+003,9.740225e-002
6.364209e+003,9.281303e-002
6.368066e+003,8.758828e-002
6.371923e+003,9.723091e-002
6.375780e+003,1.068045e-001
6.379637e+003,1.004344e-001
6.383494e+003,9.849763e-002
6.387352e+003,1.038855e-001
6.391208e+003,1.066581e-001
6.395065e+003,9.846778e-002
6.398923e+003,8.738584e-002
6.402780e+003,8.793705e-002
6.406637e+003,9.577145e-002
6.410494e+003,9.888136e-002
6.414351e+003,9.967901e-002
6.418208e+003,9.816462e-002
6.422065e+003,9.884749e-002
6.425922e+003,1.035101e-001
6.429779e+003,1.090081e-001
6.433637e+003,1.089898e-001
6.437494e+003,1.039014e-001
6.441351e+003,1.033981e-001
6.445208e+003,1.039523e-001
6.449065e+003,9.795823e-002
6.452922e+003,1.018455e-001
6.456779e+003,1.084347e-001
6.460636e+003,1.046777e-001
6.464493e+003,1.014661e-001
6.468351e+003,1.008264e-001
6.472208e+003,1.080882e-001
6.476064e+003,1.085107e-001
6.479922e+003,9.495796e-002
6.483779e+003,9.034488e-002
6.487636e+003,9.207215e-002
6.491493e+003,1.034794e-001
6.495350e+003,1.092909e-001
6.499207e+003,1.005555e-001
6.503064e+003,9.656084e-002
6.506921e+003,1.032067e-001
6.510778e+003,9.769782e-002
6.514636e+003,1.010533e-001
6.518493e+003,1.042069e-001
6.522350e+003,9.793457e-002
6.526207e+003,9.636513e-002
6.530064e+003,1.033098e-001
6.533921e+003,1.057386e-001
6.537778e+003,9.534122e-002
6.541635e+003,8.924820e-002
6.545492e+003,8.962620e-002
6.549350e+003,9.238384e-002
6.553207e+003,9.742779e-002
6.557063e+003,1.080514e-001
6.560921e+003,1.159681e-001
6.564778e+003,1.109355e-001
6.568635e+003,1.074677e-001
6.572492e+003,1.005495e-001
6.576349e+003,1.032587e-001
6.580206e+003,1.103810e-001
6.584063e+003,1.110571e-001
6.587920e+003,1.028695e-001
6.591777e+003,1.068721e-001
6.595635e+003,1.060137e-001
6.599492e+003,9.928720e-002
6.603349e+003,9.703685e-002
6.607206e+003,9.288980e-002
6.611063e+003,9.490680e-002
6.614920e+003,1.008451e-001
6.618777e+003,1.057065e-001
6.622634e+003,1.102026e-001
6.626491e+003,1.083345e-001
6.630349e+003,1.099432e-001
6.634206e+003,1.170645e-001
6.638063e+003,1.167177e-001
6.641920e+003,1.128719e-001
6.645777e+003,1.031123e-001
6.649634e+003,9.882806e-002
6.653491e+003,1.045887e-001
6.657348e+003,1.106760e-001
6.661205e+003,1.142157e-001
6.665063e+003,1.169013e-001
6.668919e+003,1.072732e-001
6.672776e+003,9.576459e-002
6.676634e+003,1.085064e-001
6.680491e+003,1.231027e-001
6.684348e+003,1.279282e-001
6.688205e+003,1.151536e-001
6.692062e+003,9.810423e-002
6.695919e+003,8.497505e-002
6.699776e+003,9.505718e-002
6.703633e+003,1.206061e-001
6.707490e+003,1.222605e-001
6.711348e+003,1.118194e-001
6.715205e+003,9.944636e-002
6.719062e+003,9.790567e-002
6.722919e+003,1.067742e-001
6.726776e+003,1.009631e-001
6.730633e+003,9.451956e-002
6.734490e+003,1.010730e-001
6.738347e+003,1.028558e-001
6.742204e+003,1.001915e-001
6.746062e+003,1.070570e-001
6.749918e+003,1.168479e-001
6.753775e+003,1.122690e-001
6.757633e+003,1.152434e-001
6.761490e+003,1.245572e-001
6.765347e+003,1.331117e-001
6.769204e+003,1.267902e-001
6.773061e+003,1.264260e-001
6.776918e+003,1.320289e-001
6.780775e+003,1.306118e-001
6.784632e+003,1.221002e-001
6.788489e+003,1.058541e-001
6.792347e+003,1.092595e-001
6.796204e+003,1.188913e-001
6.800061e+003,1.230371e-001
6.803918e+003,1.251964e-001
6.807775e+003,1.188511e-001
6.811632e+003,1.136221e-001
6.815489e+003,1.132730e-001
6.819346e+003,1.090505e-001
6.823203e+003,1.189549e-001
6.827061e+003,1.192747e-001
6.830917e+003,1.224663e-001
6.834774e+003,1.236187e-001
6.838632e+003,1.123718e-001
6.842489e+003,1.099541e-001
6.846346e+003,1.077649e-001
6.850203e+003,1.162731e-001
6.854060e+003,1.202563e-001
6.857917e+003,1.195643e-001
6.861774e+003,1.215138e-001
6.865631e+003,1.055875e-001
6.869488e+003,1.080450e-001
6.873346e+003,1.185857e-001
6.877203e+003,1.272673e-001
6.881060e+003,1.218126e-001
6.884917e+003,1.234698e-001
6.888774e+003,1.242938e-001
6.892631e+003,1.259108e-001
6.896488e+003,1.280813e-001
6.900345e+003,1.292184e-001
6.904202e+003,1.230757e-001
6.908060e+003,1.273179e-001
6.911917e+003,1.432463e-001
6.915773e+003,1.518171e-001
6.919631e+003,1.440389e-001
6.923488e+003,1.277914e-001
6.927345e+003,1.195967e-001
6.931202e+003,1.167452e-001
6.935059e+003,1.171658e-001
6.938916e+003,1.178738e-001
6.942773e+003,1.289951e-001
6.946630e+003,1.306309e-001
6.950487e+003,1.238508e-001
6.954345e+003,1.270297e-001
6.958202e+003,1.271574e-001
6.962059e+003,1.303269e-001
6.965916e+003,1.230180e-001
6.969773e+003,1.239060e-001
6.973630e+003,1.441817e-001
6.977487e+003,1.438092e-001
6.981344e+003,1.362049e-001
6.985201e+003,1.453557e-001
6.989059e+003,1.391424e-001
6.992916e+003,1.225582e-001
6.996772e+003,1.217266e-001
7.000630e+003,1.109546e-001
7.004487e+003,1.065409e-001
7.008344e+003,1.450162e-001
7.012201e+003,1.569936e-001
7.016058e+003,1.325422e-001
7.019915e+003,1.221392e-001
7.023772e+003,1.361156e-001
7.027629e+003,1.394789e-001
7.031486e+003,1.329833e-001
7.035344e+003,1.422969e-001
7.039201e+003,1.558244e-001
7.043058e+003,1.479772e-001
7.046915e+003,1.359092e-001
7.050772e+003,1.359569e-001
7.054629e+003,1.340546e-001
7.058486e+003,1.287730e-001
7.062343e+003,1.416687e-001
7.066200e+003,1.490173e-001
7.070058e+003,1.299634e-001
7.073915e+003,1.231866e-001
7.077771e+003,1.368477e-001
7.081629e+003,1.344479e-001
7.085486e+003,1.304576e-001
7.089343e+003,1.177646e-001
7.093200e+003,1.029747e-001
7.097057e+003,9.738649e-002
7.100914e+003,1.137103e-001
7.104771e+003,1.261907e-001
7.108628e+003,1.231950e-001
7.112485e+003,1.371063e-001
7.116343e+003,1.247480e-001
7.120200e+003,1.271922e-001
7.124057e+003,1.479118e-001
7.127914e+003,1.615151e-001
7.131771e+003,1.541259e-001
7.135628e+003,1.431055e-001
7.139485e+003,1.503463e-001
7.143342e+003,1.498794e-001
7.147199e+003,1.264812e-001
7.151057e+003,1.224205e-001
7.154914e+003,1.381985e-001
7.158771e+003,1.498521e-001
7.162628e+003,1.246477e-001
7.166485e+003,1.120388e-001
7.170342e+003,1.296139e-001
7.174199e+003,1.488265e-001
7.178056e+003,1.627405e-001
7.181913e+003,1.610893e-001
7.185771e+003,1.505770e-001
7.189627e+003,1.415565e-001
7.193484e+003,1.262896e-001
7.197342e+003,1.108373e-001
7.201199e+003,1.397381e-001
7.205056e+003,1.532707e-001
7.208913e+003,1.514845e-001
7.212770e+003,1.499921e-001
7.216627e+003,1.334025e-001
7.220484e+003,1.410459e-001
7.224341e+003,1.515536e-001
7.228198e+003,1.527111e-001
7.232056e+003,1.471314e-001
7.235913e+003,1.385424e-001
7.239770e+003,1.396225e-001
7.243627e+003,1.451831e-001
7.247484e+003,1.370360e-001
7.251341e+003,1.414881e-001
7.255198e+003,1.389588e-001
7.259055e+003,1.302229e-001
7.262912e+003,1.465009e-001
7.266770e+003,1.668833e-001
7.270626e+003,1.679775e-001
7.274483e+003,1.496572e-001
7.278341e+003,1.401982e-001
7.282198e+003,1.546742e-001
7.286055e+003,1.531070e-001
7.289912e+003,1.569213e-001
7.293769e+003,1.655665e-001
7.297626e+003,1.495564e-001
7.301483e+003,1.286075e-001
7.305340e+003,1.319686e-001
7.309197e+003,1.514073e-001
7.313055e+003,1.481991e-001
7.316912e+003,1.436425e-001
7.320769e+003,1.427453e-001
7.324626e+003,1.394076e-001
7.328483e+003,1.439121e-001
7.332340e+003,1.313268e-001
7.336197e+003,1.358296e-001
7.340054e+003,1.590235e-001
7.343911e+003,1.444903e-001
7.347769e+003,1.232489e-001
7.351625e+003,1.363027e-001
7.355482e+003,1.356526e-001
7.359340e+003,1.312973e-001
7.363197e+003,1.231136e-001
7.367054e+003,1.372641e-001
7.370911e+003,1.498203e-001
7.374768e+003,1.398153e-001
7.378625e+003,1.428878e-001
7.382482e+003,1.178867e-001
7.386339e+003,1.042235e-001
7.390196e+003,1.249086e-001
7.394054e+003,1.237657e-001
7.397911e+003,1.352950e-001
7.401768e+003,1.666764e-001
7.405625e+003,1.492014e-001
7.409482e+003,1.407760e-001
7.413339e+003,1.638791e-001
7.417196e+003,1.727597e-001
7.421053e+003,1.406031e-001
7.424910e+003,1.401172e-001
7.428768e+003,1.709376e-001
7.432625e+003,1.555408e-001
7.436481e+003,1.378410e-001
7.440339e+003,1.551772e-001
7.444196e+003,1.393580e-001
7.448053e+003,1.213680e-001
7.451910e+003,1.197282e-001
7.455767e+003,1.356510e-001
7.459624e+003,1.257436e-001
7.463481e+003,1.308053e-001
7.467338e+003,1.544723e-001
7.471195e+003,1.602288e-001
7.475053e+003,1.719047e-001
7.478910e+003,1.709444e-001
7.482767e+003,1.465319e-001
7.486624e+003,1.370815e-001
7.490481e+003,1.245990e-001
7.494338e+003,1.527847e-001
7.498195e+003,1.538074e-001
7.502052e+003,1.218033e-001
7.505909e+003,1.126408e-001
7.509767e+003,1.404100e-001
7.513624e+003,1.604259e-001
7.517480e+003,1.572299e-001
7.521338e+003,1.644581e-001
7.525195e+003,1.351064e-001
7.529052e+003,1.088232e-001
7.532909e+003,1.132314e-001
7.536766e+003,1.230016e-001
7.540623e+003,1.397254e-001
7.544480e+003,1.469992e-001
7.548337e+003,1.507368e-001
7.552194e+003,1.298431e-001
7.556052e+003,1.315902e-001
7.559909e+003,1.453977e-001
7.563766e+003,1.208605e-001
7.567623e+003,1.035061e-001
7.571480e+003,1.245787e-001
7.575337e+003,1.408844e-001
7.579194e+003,1.527073e-001
7.583051e+003,1.581566e-001
7.586908e+003,1.214836e-001
7.590766e+003,1.249893e-001
7.594623e+003,1.514523e-001
7.598479e+003,1.551457e-001
7.602337e+003,1.374584e-001
7.606194e+003,1.695461e-001
7.610051e+003,1.922205e-001
7.613908e+003,2.027175e-001
7.617765e+003,1.921298e-001
7.621622e+003,1.317640e-001
7.625479e+003,1.174508e-001
7.629336e+003,1.368411e-001
7.633193e+003,1.719166e-001
7.637051e+003,1.737718e-001
7.640908e+003,1.633430e-001
7.644765e+003,1.821211e-001
7.648622e+003,1.907004e-001
7.652479e+003,1.563993e-001
7.656336e+003,1.170369e-001
7.660193e+003,1.210310e-001
7.664050e+003,1.324199e-001
7.667907e+003,1.519868e-001
7.671765e+003,1.498049e-001
7.675622e+003,1.475440e-001
7.679479e+003,1.678813e-001
7.683336e+003,1.780249e-001
7.687193e+003,1.385137e-001
7.691050e+003,1.411361e-001
7.694907e+003,1.295711e-001
7.698764e+003,1.232162e-001
7.702621e+003,1.402677e-001
7.706479e+003,1.694179e-001
7.710335e+003,1.715458e-001
7.714192e+003,1.795196e-001
7.718050e+003,1.852252e-001
7.721907e+003,1.957178e-001
7.725764e+003,1.903030e-001
7.729621e+003,1.793924e-001
7.733478e+003,1.706600e-001
7.737335e+003,1.577500e-001
7.741192e+003,1.404821e-001
7.745049e+003,1.049223e-001
7.748906e+003,1.207686e-001
7.752764e+003,1.574710e-001
7.756621e+003,1.474789e-001
7.760478e+003,1.230489e-001
7.764335e+003,1.478578e-001
7.768192e+003,1.739450e-001
7.772049e+003,1.536300e-001
7.775906e+003,9.701767e-002
7.779763e+003,7.659416e-002
7.783620e+003,9.091522e-002
7.787478e+003,1.243259e-001
7.791334e+003,1.367631e-001
7.795191e+003,1.592006e-001
7.799049e+003,1.421258e-001
7.802906e+003,1.473563e-001
7.806763e+003,1.790210e-001
7.810620e+003,1.449652e-001
7.814477e+003,1.295068e-001
7.818334e+003,1.731475e-001
7.822191e+003,1.833101e-001
7.826048e+003,1.857838e-001
7.829905e+003,2.019497e-001
7.833763e+003,1.891645e-001
7.837620e+003,2.113433e-001
7.841477e+003,2.272331e-001
7.845334e+003,1.880712e-001
7.849191e+003,1.700399e-001
7.853048e+003,1.452601e-001
7.856905e+003,1.301379e-001
7.860762e+003,1.293334e-001
7.864619e+003,1.921393e-001
7.868477e+003,2.133745e-001
7.872333e+003,1.636529e-001
7.876190e+003,1.087808e-001
7.880048e+003,8.319457e-002
7.883905e+003,1.000864e-001
7.887762e+003,1.273303e-001
7.891619e+003,1.371260e-001
7.895476e+003,1.644145e-001
7.899333e+003,2.297279e-001
7.903190e+003,2.316205e-001
7.907047e+003,2.264329e-001
7.910904e+003,2.126568e-001
7.914762e+003,1.852836e-001
7.918619e+003,1.681741e-001
7.922476e+003,1.538460e-001
7.926333e+003,1.384121e-001
7.930190e+003,1.066342e-001
7.934047e+003,7.042927e-002
7.937904e+003,1.316675e-002
7.941761e+003,4.328249e-002
7.945618e+003,1.575795e-001
7.949476e+003,1.703909e-001
7.953333e+003,9.849318e-002
7.957189e+003,8.472123e-002
7.961047e+003,1.165748e-001
7.964904e+003,1.339987e-001
7.968761e+003,9.136169e-002
7.972618e+003,9.814340e-002
7.976475e+003,1.830779e-001
7.980332e+003,1.713181e-001
7.984189e+003,1.242575e-001
7.988046e+003,1.528374e-001
7.991903e+003,1.401910e-001
7.995761e+003,9.873518e-002
7.999618e+003,1.181065e-001
