4.011380e+002,-3.658122e-001
4.049951e+002,8.351429e-001
4.088522e+002,6.000000e+000
4.127093e+002,1.325391e+000
4.165664e+002,6.000000e+000
4.204235e+002,6.000000e+000
4.242806e+002,6.000000e+000
4.281377e+002,1.384087e-001
4.319948e+002,-1.054395e+000
4.358519e+002,-2.238355e-001
4.397090e+002,-4.075309e-001
4.435661e+002,-4.937988e-002
4.474232e+002,6.000000e+000
4.512803e+002,6.000000e+000
4.551374e+002,6.000000e+000
4.589945e+002,-7.580265e-001
4.628516e+002,-4.990444e-001
4.667087e+002,5.910425e-002
4.705658e+002,1.042999e-001
4.744229e+002,-1.511972e+000
4.782800e+002,6.000000e+000
4.821371e+002,-2.137101e-001
4.859941e+002,1.218648e+000
4.898513e+002,6.000000e+000
4.937083e+002,6.000000e+000
4.975654e+002,6.000000e+000
5.014225e+002,6.000000e+000
5.052796e+002,-6.262491e-001
5.091367e+002,5.449468e-001
5.129938e+002,6.000000e+000
5.168509e+002,6.000000e+000
5.207080e+002,6.000000e+000
5.245651e+002,6.000000e+000
5.284222e+002,-1.427979e+000
5.322793e+002,6.000000e+000
5.361364e+002,6.000000e+000
5.399935e+002,-3.438701e-001
5.438506e+002,7.193067e-002
5.477077e+002,-1.865159e-001
5.515648e+002,-4.887841e-001
5.554219e+002,6.000000e+000
5.592790e+002,6.000000e+000
5.631361e+002,1.466776e-001
5.669932e+002,1.403620e-001
5.708503e+002,3.849213e-001
5.747074e+002,-1.690393e-001
5.785645e+002,3.746376e-001
5.824216e+002,6.610690e-002
5.862787e+002,-6.929533e-001
5.901357e+002,6.291161e-001
5.939929e+002,6.000000e+000
5.978499e+002,6.000000e+000
6.017070e+002,6.000000e+000
6.055641e+002,-1.163485e+000
6.094212e+002,6.000000e+000
6.132783e+002,6.000000e+000
6.171354e+002,6.000000e+000
6.209925e+002,6.000000e+000
6.248496e+002,6.000000e+000
6.287067e+002,6.000000e+000
6.325638e+002,6.000000e+000
6.364209e+002,-4.308271e-001
6.402780e+002,6.917632e-002
6.441351e+002,9.930816e-002
6.479922e+002,6.000000e+000
6.518493e+002,-6.890274e-001
6.557064e+002,-4.267179e-002
6.595635e+002,6.000000e+000
6.634205e+002,6.000000e+000
6.672777e+002,6.000000e+000
6.711348e+002,6.000000e+000
6.749918e+002,-8.338160e-001
6.788490e+002,6.000000e+000
6.827061e+002,-3.594906e-001
6.865631e+002,-4.504142e-001
6.904203e+002,1.054224e-001
6.942773e+002,-8.751459e-002
6.981344e+002,6.000000e+000
7.019916e+002,5.409801e-002
7.058486e+002,-5.939329e-001
7.097057e+002,-1.820497e-001
7.135629e+002,4.339753e-001
7.174199e+002,6.000000e+000
7.212770e+002,-4.078411e-001
7.251342e+002,1.963678e-002
7.289912e+002,-2.470565e-001
7.328483e+002,6.000000e+000
7.367054e+002,-4.061565e-001
7.405625e+002,6.000000e+000
7.444196e+002,6.000000e+000
7.482767e+002,6.000000e+000
7.521338e+002,1.482752e+000
7.559908e+002,-4.441879e-001
7.598480e+002,6.000000e+000
7.637051e+002,3.452618e-001
7.675621e+002,6.000000e+000
7.714193e+002,8.241193e-001
7.752764e+002,-4.902156e-001
7.791334e+002,6.000000e+000
7.829905e+002,6.000000e+000
7.868477e+002,6.000000e+000
7.907047e+002,6.000000e+000
7.945618e+002,4.956397e-001
7.984189e+002,9.252163e-001
8.022760e+002,1.367466e+000
8.061331e+002,2.800387e-001
8.099902e+002,7.543637e-002
8.138473e+002,6.590151e-001
8.177044e+002,7.675130e-003
8.215615e+002,-1.519359e-001
8.254186e+002,4.101335e-001
8.292757e+002,2.343646e-001
8.331328e+002,5.857188e-001
8.369899e+002,6.000000e+000
8.408470e+002,6.000000e+000
8.447041e+002,7.390206e-001
8.485612e+002,6.834388e-001
8.524183e+002,6.000000e+000
8.562754e+002,6.000000e+000
8.601324e+002,1.403963e+000
8.639896e+002,1.637908e+000
8.678467e+002,6.000000e+000
8.717037e+002,2.501294e+000
8.755609e+002,1.814496e+000
8.794180e+002,1.662494e+000
8.832750e+002,3.208903e+000
8.871321e+002,1.436473e+000
8.909893e+002,1.425749e+000
8.948463e+002,6.000000e+000
8.987034e+002,6.000000e+000
9.025605e+002,6.000000e+000
9.064176e+002,6.000000e+000
9.102747e+002,1.543929e+000
9.141318e+002,2.318285e+000
9.179889e+002,1.867575e+000
9.218461e+002,1.515040e+000
9.257031e+002,2.304659e+000
9.295602e+002,6.000000e+000
9.334174e+002,6.000000e+000
9.372744e+002,6.000000e+000
9.411315e+002,6.000000e+000
9.449886e+002,6.000000e+000
9.488457e+002,6.000000e+000
9.527028e+002,2.034657e+000
9.565599e+002,1.964615e+000
9.604170e+002,1.507917e+000
9.642740e+002,1.971639e+000
9.681312e+002,6.000000e+000
9.719883e+002,6.000000e+000
9.758453e+002,6.000000e+000
9.797025e+002,6.000000e+000
9.835596e+002,6.000000e+000
9.874166e+002,6.000000e+000
9.912738e+002,6.000000e+000
9.951309e+002,2.745326e+000
9.989879e+002,2.002475e+000
1.002845e+003,2.386548e+000
1.006702e+003,2.294682e+000
1.010559e+003,2.024215e+000
1.014416e+003,1.890582e+000
1.018273e+003,1.758370e+000
1.022130e+003,1.719975e+000
1.025988e+003,1.872408e+000
1.029845e+003,2.523969e+000
1.033702e+003,2.388168e+000
1.037559e+003,2.094944e+000
1.041416e+003,2.059241e+000
1.045273e+003,1.864291e+000
1.049130e+003,1.776998e+000
1.052987e+003,1.822557e+000
1.056844e+003,1.706143e+000
1.060702e+003,1.574039e+000
1.064559e+003,1.681126e+000
1.068416e+003,1.841098e+000
1.072273e+003,1.949248e+000
1.076130e+003,1.847407e+000
1.079987e+003,1.784592e+000
1.083844e+003,1.844411e+000
1.087701e+003,1.802477e+000
1.091558e+003,1.731767e+000
1.095415e+003,1.650977e+000
1.099272e+003,1.644068e+000
1.103130e+003,1.645941e+000
1.106987e+003,1.642443e+000
1.110844e+003,1.779145e+000
1.114701e+003,1.646356e+000
1.118558e+003,1.572759e+000
1.122415e+003,1.540701e+000
1.126272e+003,1.590162e+000
1.130129e+003,1.570985e+000
1.133986e+003,1.539584e+000
1.137843e+003,1.611192e+000
1.141701e+003,1.552437e+000
1.145558e+003,1.556586e+000
1.149415e+003,1.584257e+000
1.153272e+003,1.515505e+000
1.157129e+003,1.532050e+000
1.160986e+003,1.574297e+000
1.164843e+003,1.542726e+000
1.168700e+003,1.576290e+000
1.172557e+003,1.574336e+000
1.176414e+003,1.494393e+000
1.180271e+003,1.403240e+000
1.184129e+003,1.416339e+000
1.187986e+003,1.522447e+000
1.191843e+003,1.608316e+000
1.195700e+003,1.543033e+000
1.199557e+003,1.494426e+000
1.203414e+003,1.510324e+000
1.207271e+003,1.488962e+000
1.211128e+003,1.475129e+000
1.214985e+003,1.473869e+000
1.218842e+003,1.391447e+000
1.222699e+003,1.296915e+000
1.226557e+003,1.206991e+000
1.230414e+003,1.151423e+000
1.234271e+003,1.094341e+000
1.238128e+003,1.032541e+000
1.241985e+003,9.918407e-001
1.245842e+003,9.630628e-001
1.249699e+003,9.083676e-001
1.253556e+003,8.718232e-001
1.257413e+003,8.321989e-001
1.261271e+003,7.870254e-001
1.265128e+003,7.526869e-001
1.268985e+003,7.283182e-001
1.272842e+003,7.084266e-001
1.276699e+003,6.942124e-001
1.280556e+003,6.791111e-001
1.284413e+003,6.649745e-001
1.288270e+003,6.486234e-001
1.292127e+003,6.317977e-001
1.295984e+003,6.125700e-001
1.299841e+003,5.961445e-001
1.303698e+003,5.820933e-001
1.307556e+003,5.746101e-001
1.311413e+003,5.680751e-001
1.315270e+003,5.610902e-001
1.319127e+003,5.511752e-001
1.322984e+003,5.442458e-001
1.326841e+003,5.371916e-001
1.330698e+003,5.329790e-001
1.334555e+003,5.301682e-001
1.338412e+003,5.289427e-001
1.342270e+003,5.285262e-001
1.346127e+003,5.267953e-001
1.349984e+003,5.255939e-001
1.353841e+003,5.218846e-001
1.357698e+003,5.207308e-001
1.361555e+003,5.274135e-001
1.365412e+003,5.391915e-001
1.369269e+003,5.463250e-001
1.373126e+003,5.547740e-001
1.376983e+003,5.710213e-001
1.380840e+003,5.837037e-001
1.384698e+003,5.905014e-001
1.388555e+003,6.044651e-001
1.392412e+003,6.280946e-001
1.396269e+003,6.476846e-001
1.400126e+003,6.625649e-001
1.403983e+003,6.765720e-001
1.407840e+003,7.007704e-001
1.411697e+003,7.265486e-001
1.415554e+003,7.340573e-001
1.419411e+003,7.445964e-001
1.423269e+003,7.617205e-001
1.427126e+003,7.807570e-001
1.430983e+003,7.856061e-001
1.434840e+003,7.722164e-001
1.438697e+003,7.582813e-001
1.442554e+003,7.486768e-001
1.446411e+003,7.421219e-001
1.450268e+003,7.296797e-001
1.454125e+003,7.210224e-001
1.457982e+003,7.209461e-001
1.461839e+003,7.170749e-001
1.465697e+003,7.037046e-001
1.469554e+003,6.986685e-001
1.473411e+003,6.990515e-001
1.477268e+003,7.001674e-001
1.481125e+003,7.037629e-001
1.484982e+003,7.185994e-001
1.488839e+003,7.276711e-001
1.492696e+003,7.374938e-001
1.496553e+003,7.621869e-001
1.500411e+003,7.753412e-001
1.504268e+003,7.782665e-001
1.508125e+003,7.800328e-001
1.511982e+003,7.755967e-001
1.515839e+003,7.788003e-001
1.519696e+003,7.783482e-001
1.523553e+003,7.617894e-001
1.527410e+003,7.419463e-001
1.531267e+003,7.251549e-001
1.535124e+003,7.077319e-001
1.538981e+003,6.911243e-001
1.542839e+003,6.810746e-001
1.546696e+003,6.698996e-001
1.550553e+003,6.478292e-001
1.554410e+003,6.235134e-001
1.558267e+003,6.074963e-001
1.562124e+003,5.957573e-001
1.565981e+003,5.866082e-001
1.569838e+003,5.792703e-001
1.573695e+003,5.794790e-001
1.577552e+003,5.752950e-001
1.581410e+003,5.700907e-001
1.585267e+003,5.679742e-001
1.589124e+003,5.768020e-001
1.592981e+003,5.877540e-001
1.596838e+003,6.026373e-001
1.600695e+003,6.250274e-001
1.604552e+003,6.425631e-001
1.608409e+003,6.662094e-001
1.612266e+003,7.008487e-001
1.616123e+003,7.368333e-001
1.619980e+003,7.736620e-001
1.623838e+003,8.114647e-001
1.627695e+003,8.527366e-001
1.631552e+003,8.791313e-001
1.635409e+003,8.887304e-001
1.639266e+003,8.899904e-001
1.643123e+003,8.781801e-001
1.646980e+003,8.532256e-001
1.650837e+003,8.336492e-001
1.654694e+003,8.053246e-001
1.658551e+003,7.741954e-001
1.662409e+003,7.505034e-001
1.666266e+003,7.296525e-001
1.670123e+003,6.992610e-001
1.673980e+003,6.545897e-001
1.677837e+003,6.171309e-001
1.681694e+003,5.935075e-001
1.685551e+003,5.720787e-001
1.689408e+003,5.514195e-001
1.693265e+003,5.338418e-001
1.697122e+003,5.218268e-001
1.700979e+003,5.102164e-001
1.704837e+003,4.993093e-001
1.708694e+003,4.873191e-001
1.712551e+003,4.791515e-001
1.716408e+003,4.742431e-001
1.720265e+003,4.700307e-001
1.724122e+003,4.632345e-001
1.727979e+003,4.578291e-001
1.731836e+003,4.514444e-001
1.735693e+003,4.473217e-001
1.739550e+003,4.431885e-001
1.743408e+003,4.370973e-001
1.747265e+003,4.361108e-001
1.751122e+003,4.366181e-001
1.754979e+003,4.368697e-001
1.758836e+003,4.381580e-001
1.762693e+003,4.406957e-001
1.766550e+003,4.437223e-001
1.770407e+003,4.428071e-001
1.774264e+003,4.402428e-001
1.778121e+003,4.401888e-001
1.781979e+003,4.370911e-001
1.785836e+003,4.303711e-001
1.789693e+003,4.240464e-001
1.793550e+003,4.224143e-001
1.797407e+003,4.200099e-001
1.801264e+003,4.141897e-001
1.805121e+003,4.065932e-001
1.808978e+003,4.031656e-001
1.812835e+003,4.059310e-001
1.816692e+003,4.059582e-001
1.820549e+003,4.041955e-001
1.824407e+003,4.034061e-001
1.828264e+003,4.031107e-001
1.832121e+003,4.039818e-001
1.835978e+003,4.053219e-001
1.839835e+003,4.065100e-001
1.843692e+003,4.060988e-001
1.847549e+003,4.018313e-001
1.851406e+003,3.968356e-001
1.855263e+003,3.902746e-001
1.859120e+003,3.865027e-001
1.862978e+003,3.848581e-001
1.866835e+003,3.833455e-001
1.870692e+003,3.817284e-001
1.874549e+003,3.799967e-001
1.878406e+003,3.791392e-001
1.882263e+003,3.807834e-001
1.886120e+003,3.786151e-001
1.889977e+003,3.760053e-001
1.893834e+003,3.789665e-001
1.897691e+003,3.830126e-001
1.901548e+003,3.821986e-001
1.905406e+003,3.808608e-001
1.909263e+003,3.813816e-001
1.913120e+003,3.800230e-001
1.916977e+003,3.747824e-001
1.920834e+003,3.683958e-001
1.924691e+003,3.655561e-001
1.928548e+003,3.624637e-001
1.932405e+003,3.588249e-001
1.936262e+003,3.584929e-001
1.940119e+003,3.580534e-001
1.943977e+003,3.578087e-001
1.947834e+003,3.548897e-001
1.951691e+003,3.531991e-001
1.955548e+003,3.551964e-001
1.959405e+003,3.552322e-001
1.963262e+003,3.531603e-001
1.967119e+003,3.515636e-001
1.970976e+003,3.500524e-001
1.974833e+003,3.505836e-001
1.978690e+003,3.494477e-001
1.982547e+003,3.462736e-001
1.986405e+003,3.429791e-001
1.990262e+003,3.353754e-001
1.994119e+003,3.342002e-001
1.997976e+003,3.344385e-001
2.001833e+003,3.330527e-001
2.005690e+003,3.332962e-001
2.009547e+003,3.336343e-001
2.013404e+003,3.338728e-001
2.017261e+003,3.353212e-001
2.021118e+003,3.386815e-001
2.024976e+003,3.407285e-001
2.028833e+003,3.387954e-001
2.032690e+003,3.370082e-001
2.036547e+003,3.385248e-001
2.040404e+003,3.373334e-001
2.044261e+003,3.346554e-001
2.048118e+003,3.287735e-001
2.051975e+003,3.262906e-001
2.055832e+003,3.255513e-001
2.059689e+003,3.207211e-001
2.063546e+003,3.164360e-001
2.067404e+003,3.163663e-001
2.071261e+003,3.165982e-001
2.075118e+003,3.174126e-001
2.078975e+003,3.178366e-001
2.082832e+003,3.184917e-001
2.086689e+003,3.200202e-001
2.090546e+003,3.203830e-001
2.094403e+003,3.206352e-001
2.098260e+003,3.196448e-001
2.102117e+003,3.196935e-001
2.105975e+003,3.213044e-001
2.109832e+003,3.221301e-001
2.113689e+003,3.215308e-001
2.117546e+003,3.199311e-001
2.121403e+003,3.163724e-001
2.125260e+003,3.151207e-001
2.129117e+003,3.170790e-001
2.132974e+003,3.173655e-001
2.136831e+003,3.161914e-001
2.140688e+003,3.169407e-001
2.144545e+003,3.176357e-001
2.148403e+003,3.171583e-001
2.152260e+003,3.170783e-001
2.156117e+003,3.217329e-001
2.159974e+003,3.230538e-001
2.163831e+003,3.233483e-001
2.167688e+003,3.236280e-001
2.171545e+003,3.223263e-001
2.175402e+003,3.228438e-001
2.179259e+003,3.203162e-001
2.183116e+003,3.161122e-001
2.186974e+003,3.178927e-001
2.190831e+003,3.211762e-001
2.194688e+003,3.200269e-001
2.198545e+003,3.195073e-001
2.202402e+003,3.218077e-001
2.206259e+003,3.220953e-001
2.210116e+003,3.226490e-001
2.213973e+003,3.254900e-001
2.217830e+003,3.276483e-001
2.221688e+003,3.287121e-001
2.225544e+003,3.294475e-001
2.229402e+003,3.307624e-001
2.233259e+003,3.338446e-001
2.237116e+003,3.350374e-001
2.240973e+003,3.315281e-001
2.244830e+003,3.326279e-001
2.248687e+003,3.352443e-001
2.252544e+003,3.328274e-001
2.256401e+003,3.319620e-001
2.260258e+003,3.342242e-001
2.264115e+003,3.341665e-001
2.267973e+003,3.361283e-001
2.271830e+003,3.375023e-001
2.275687e+003,3.383356e-001
2.279544e+003,3.380261e-001
2.283401e+003,3.366287e-001
2.287258e+003,3.386120e-001
2.291115e+003,3.397317e-001
2.294972e+003,3.426984e-001
2.298829e+003,3.449305e-001
2.302687e+003,3.413528e-001
2.306543e+003,3.414927e-001
2.310401e+003,3.456022e-001
2.314258e+003,3.465279e-001
2.318115e+003,3.431224e-001
2.321972e+003,3.411251e-001
2.325829e+003,3.443061e-001
2.329686e+003,3.467157e-001
2.333543e+003,3.459812e-001
2.337400e+003,3.428966e-001
2.341257e+003,3.440207e-001
2.345115e+003,3.472403e-001
2.348972e+003,3.492053e-001
2.352829e+003,3.504758e-001
2.356686e+003,3.535558e-001
2.360543e+003,3.561637e-001
2.364400e+003,3.527659e-001
2.368257e+003,3.494802e-001
2.372114e+003,3.521365e-001
2.375971e+003,3.521134e-001
2.379828e+003,3.468923e-001
2.383686e+003,3.439587e-001
2.387542e+003,3.433598e-001
2.391400e+003,3.417062e-001
2.395257e+003,3.404710e-001
2.399114e+003,3.405466e-001
2.402971e+003,3.402585e-001
2.406828e+003,3.421162e-001
2.410685e+003,3.438890e-001
2.414542e+003,3.410454e-001
2.418399e+003,3.388932e-001
2.422256e+003,3.408123e-001
2.426114e+003,3.429498e-001
2.429971e+003,3.407065e-001
2.433828e+003,3.404178e-001
2.437685e+003,3.432241e-001
2.441542e+003,3.424533e-001
2.445399e+003,3.392323e-001
2.449256e+003,3.365672e-001
2.453113e+003,3.347649e-001
2.456970e+003,3.342335e-001
2.460827e+003,3.334270e-001
2.464684e+003,3.310420e-001
2.468542e+003,3.310217e-001
2.472399e+003,3.330364e-001
2.476256e+003,3.361701e-001
2.480113e+003,3.389343e-001
2.483970e+003,3.385519e-001
2.487827e+003,3.370645e-001
2.491684e+003,3.356926e-001
2.495541e+003,3.357740e-001
2.499398e+003,3.349377e-001
2.503255e+003,3.359822e-001
2.507113e+003,3.366144e-001
2.510969e+003,3.376189e-001
2.514827e+003,3.354400e-001
2.518684e+003,3.334702e-001
2.522541e+003,3.364087e-001
2.526398e+003,3.388378e-001
2.530255e+003,3.404711e-001
2.534112e+003,3.403286e-001
2.537969e+003,3.399585e-001
2.541826e+003,3.391894e-001
2.545683e+003,3.392687e-001
2.549541e+003,3.430126e-001
2.553398e+003,3.483541e-001
2.557255e+003,3.523030e-001
2.561112e+003,3.520079e-001
2.564969e+003,3.538756e-001
2.568826e+003,3.547038e-001
2.572683e+003,3.552651e-001
2.576540e+003,3.588826e-001
2.580397e+003,3.603809e-001
2.584254e+003,3.599774e-001
2.588112e+003,3.613817e-001
2.591969e+003,3.650875e-001
2.595826e+003,3.678677e-001
2.599683e+003,3.667749e-001
2.603540e+003,3.660818e-001
2.607397e+003,3.711146e-001
2.611254e+003,3.797629e-001
2.615111e+003,3.834243e-001
2.618968e+003,3.852684e-001
2.622825e+003,3.874949e-001
2.626682e+003,3.896244e-001
2.630540e+003,3.882386e-001
2.634397e+003,3.893458e-001
2.638254e+003,3.972585e-001
2.642111e+003,4.009520e-001
2.645968e+003,4.008551e-001
2.649825e+003,4.041831e-001
2.653682e+003,4.099144e-001
2.657539e+003,4.110385e-001
2.661396e+003,4.094550e-001
2.665253e+003,4.149380e-001
2.669111e+003,4.211828e-001
2.672968e+003,4.240659e-001
2.676825e+003,4.241682e-001
2.680682e+003,4.253117e-001
2.684539e+003,4.317154e-001
2.688396e+003,4.388531e-001
2.692253e+003,4.455358e-001
2.696110e+003,4.487227e-001
2.699967e+003,4.511181e-001
2.703824e+003,4.555720e-001
2.707681e+003,4.582444e-001
2.711539e+003,4.622283e-001
2.715396e+003,4.670747e-001
2.719253e+003,4.693038e-001
2.723110e+003,4.744950e-001
2.726967e+003,4.813605e-001
2.730824e+003,4.854745e-001
2.734681e+003,4.895471e-001
2.738538e+003,4.925596e-001
2.742395e+003,4.939730e-001
2.746252e+003,4.975905e-001
2.750110e+003,5.038959e-001
2.753967e+003,5.100913e-001
2.757824e+003,5.154009e-001
2.761681e+003,5.202729e-001
2.765538e+003,5.263869e-001
2.769395e+003,5.253772e-001
2.773252e+003,5.268345e-001
2.777109e+003,5.332504e-001
2.780966e+003,5.396279e-001
2.784823e+003,5.455170e-001
2.788680e+003,5.518839e-001
2.792538e+003,5.571767e-001
2.796395e+003,5.630935e-001
2.800252e+003,5.652048e-001
2.804109e+003,5.649915e-001
2.807966e+003,5.683615e-001
2.811823e+003,5.763621e-001
2.815680e+003,5.848383e-001
2.819537e+003,5.923430e-001
2.823394e+003,6.017007e-001
2.827251e+003,6.048898e-001
2.831109e+003,6.062890e-001
2.834966e+003,6.127588e-001
2.838823e+003,6.178014e-001
2.842680e+003,6.227744e-001
2.846537e+003,6.332852e-001
2.850394e+003,6.389876e-001
2.854251e+003,6.415771e-001
2.858108e+003,6.481426e-001
2.861965e+003,6.517058e-001
2.865823e+003,6.580576e-001
2.869679e+003,6.679966e-001
2.873537e+003,6.698172e-001
2.877394e+003,6.762635e-001
2.881251e+003,6.812659e-001
2.885108e+003,6.839424e-001
2.888965e+003,6.955043e-001
2.892822e+003,7.048783e-001
2.896679e+003,7.131766e-001
2.900536e+003,7.201151e-001
2.904393e+003,7.187600e-001
2.908250e+003,7.211516e-001
2.912108e+003,7.412115e-001
2.915965e+003,7.470413e-001
2.919822e+003,7.444661e-001
2.923679e+003,7.522481e-001
2.927536e+003,7.616255e-001
2.931393e+003,7.609491e-001
2.935250e+003,7.716475e-001
2.939107e+003,7.763101e-001
2.942964e+003,7.818958e-001
2.946822e+003,7.925389e-001
2.950678e+003,8.018239e-001
2.954536e+003,8.099102e-001
2.958393e+003,8.123956e-001
2.962250e+003,8.125166e-001
2.966107e+003,8.258110e-001
2.969964e+003,8.398404e-001
2.973821e+003,8.423866e-001
2.977678e+003,8.414054e-001
2.981535e+003,8.405734e-001
2.985392e+003,8.562850e-001
2.989250e+003,8.731331e-001
2.993107e+003,8.690757e-001
2.996964e+003,8.699895e-001
3.000821e+003,8.790465e-001
3.004678e+003,8.842365e-001
3.008535e+003,8.965604e-001
3.012392e+003,9.081988e-001
3.016249e+003,9.100018e-001
3.020106e+003,9.112144e-001
3.023963e+003,9.298736e-001
3.027821e+003,9.336042e-001
3.031677e+003,9.301412e-001
3.035535e+003,9.401779e-001
3.039392e+003,9.511395e-001
3.043249e+003,9.568740e-001
3.047106e+003,9.727236e-001
3.050963e+003,9.835919e-001
3.054820e+003,9.861116e-001
3.058677e+003,9.923338e-001
3.062534e+003,1.002175e+000
3.066391e+003,1.013085e+000
3.070249e+003,1.023859e+000
3.074106e+003,1.028328e+000
3.077963e+003,1.041223e+000
3.081820e+003,1.044792e+000
3.085677e+003,1.037772e+000
3.089534e+003,1.053011e+000
3.093391e+003,1.074235e+000
3.097248e+003,1.083788e+000
3.101105e+003,1.086416e+000
3.104962e+003,1.098548e+000
3.108820e+003,1.109465e+000
3.112677e+003,1.106794e+000
3.116534e+003,1.103532e+000
3.120391e+003,1.117742e+000
3.124248e+003,1.139350e+000
3.128105e+003,1.159592e+000
3.131962e+003,1.163611e+000
3.135819e+003,1.163199e+000
3.139676e+003,1.160108e+000
3.143533e+003,1.149724e+000
3.147390e+003,1.170146e+000
3.151248e+003,1.189594e+000
3.155105e+003,1.189525e+000
3.158962e+003,1.184946e+000
3.162819e+003,1.193026e+000
3.166676e+003,1.196028e+000
3.170533e+003,1.210025e+000
3.174390e+003,1.226104e+000
3.178247e+003,1.242923e+000
3.182104e+003,1.255258e+000
3.185961e+003,1.271735e+000
3.189819e+003,1.264976e+000
3.193676e+003,1.259406e+000
3.197533e+003,1.292147e+000
3.201390e+003,1.306711e+000
3.205247e+003,1.272579e+000
3.209104e+003,1.283378e+000
3.212961e+003,1.299166e+000
3.216818e+003,1.289575e+000
3.220675e+003,1.306946e+000
3.224532e+003,1.353325e+000
3.228389e+003,1.358682e+000
3.232247e+003,1.332785e+000
3.236104e+003,1.326340e+000
3.239961e+003,1.343033e+000
3.243818e+003,1.362270e+000
3.247675e+003,1.381224e+000
3.251532e+003,1.350795e+000
3.255389e+003,1.352226e+000
3.259246e+003,1.365381e+000
3.263103e+003,1.335046e+000
3.266960e+003,1.335813e+000
3.270818e+003,1.345228e+000
3.274675e+003,1.363806e+000
3.278532e+003,1.398441e+000
3.282389e+003,1.406976e+000
3.286246e+003,1.422945e+000
3.290103e+003,1.412537e+000
3.293960e+003,1.368988e+000
3.297817e+003,1.378504e+000
3.301674e+003,1.402755e+000
3.305531e+003,1.392270e+000
3.309388e+003,1.426546e+000
3.313246e+003,1.495391e+000
3.317103e+003,1.484987e+000
3.320960e+003,1.450748e+000
3.324817e+003,1.421584e+000
3.328674e+003,1.440830e+000
3.332531e+003,1.442379e+000
3.336388e+003,1.417898e+000
3.340245e+003,1.426714e+000
3.344102e+003,1.425245e+000
3.347959e+003,1.429364e+000
3.351817e+003,1.457846e+000
3.355674e+003,1.519511e+000
3.359531e+003,1.524972e+000
3.363388e+003,1.518631e+000
3.367245e+003,1.492762e+000
3.371102e+003,1.476955e+000
3.374959e+003,1.492943e+000
3.378816e+003,1.514593e+000
3.382673e+003,1.502203e+000
3.386530e+003,1.498973e+000
3.390387e+003,1.533538e+000
3.394245e+003,1.490031e+000
3.398102e+003,1.454196e+000
3.401959e+003,1.465284e+000
3.405816e+003,1.462697e+000
3.409673e+003,1.463646e+000
3.413530e+003,1.467836e+000
3.417387e+003,1.505122e+000
3.421244e+003,1.506854e+000
3.425101e+003,1.483478e+000
3.428958e+003,1.517160e+000
3.432815e+003,1.546256e+000
3.436673e+003,1.514963e+000
3.440530e+003,1.502111e+000
3.444387e+003,1.491031e+000
3.448244e+003,1.512996e+000
3.452101e+003,1.538306e+000
3.455958e+003,1.530082e+000
3.459815e+003,1.555650e+000
3.463672e+003,1.544741e+000
3.467529e+003,1.502541e+000
3.471386e+003,1.490279e+000
3.475244e+003,1.525669e+000
3.479101e+003,1.523497e+000
3.482958e+003,1.545575e+000
3.486815e+003,1.573813e+000
3.490672e+003,1.585615e+000
3.494529e+003,1.594728e+000
3.498386e+003,1.579216e+000
3.502243e+003,1.568395e+000
3.506100e+003,1.580291e+000
3.509958e+003,1.545799e+000
3.513814e+003,1.528227e+000
3.517672e+003,1.578393e+000
3.521529e+003,1.617337e+000
3.525386e+003,1.602117e+000
3.529243e+003,1.504165e+000
3.533100e+003,1.487275e+000
3.536957e+003,1.544708e+000
3.540814e+003,1.515874e+000
3.544671e+003,1.464522e+000
3.548528e+003,1.503658e+000
3.552385e+003,1.548400e+000
3.556243e+003,1.506598e+000
3.560100e+003,1.449738e+000
3.563957e+003,1.486034e+000
3.567814e+003,1.551306e+000
3.571671e+003,1.553638e+000
3.575528e+003,1.520594e+000
3.579385e+003,1.483061e+000
3.583242e+003,1.452874e+000
3.587099e+003,1.490222e+000
3.590957e+003,1.491864e+000
3.594813e+003,1.461921e+000
3.598671e+003,1.421730e+000
3.602528e+003,1.396524e+000
3.606385e+003,1.361670e+000
3.610242e+003,1.315041e+000
3.614099e+003,1.297522e+000
3.617956e+003,1.273558e+000
3.621813e+003,1.234940e+000
3.625670e+003,1.178985e+000
3.629527e+003,1.113879e+000
3.633385e+003,1.044845e+000
3.637242e+003,9.762182e-001
3.641099e+003,9.109936e-001
3.644956e+003,8.439975e-001
3.648813e+003,7.846578e-001
3.652670e+003,7.379450e-001
3.656527e+003,6.845752e-001
3.660384e+003,6.254606e-001
3.664241e+003,5.780628e-001
3.668098e+003,5.357949e-001
3.671956e+003,4.887109e-001
3.675813e+003,4.467448e-001
3.679670e+003,4.163116e-001
3.683527e+003,3.808666e-001
3.687384e+003,3.476834e-001
3.691241e+003,3.255106e-001
3.695098e+003,3.070146e-001
3.698955e+003,2.890127e-001
3.702812e+003,2.733127e-001
3.706669e+003,2.589189e-001
3.710526e+003,2.483621e-001
3.714384e+003,2.410452e-001
3.718241e+003,2.335553e-001
3.722098e+003,2.240391e-001
3.725955e+003,2.160683e-001
3.729812e+003,2.103445e-001
3.733669e+003,2.061769e-001
3.737526e+003,2.027395e-001
3.741383e+003,1.989247e-001
3.745240e+003,1.945301e-001
3.749097e+003,1.933222e-001
3.752955e+003,1.901555e-001
3.756812e+003,1.842894e-001
3.760669e+003,1.817283e-001
3.764526e+003,1.829134e-001
3.768383e+003,1.826425e-001
3.772240e+003,1.823523e-001
3.776097e+003,1.834380e-001
3.779954e+003,1.812564e-001
3.783811e+003,1.794055e-001
3.787668e+003,1.818414e-001
3.791525e+003,1.837698e-001
3.795383e+003,1.807057e-001
3.799240e+003,1.738131e-001
3.803097e+003,1.697202e-001
3.806954e+003,1.689283e-001
3.810811e+003,1.690439e-001
3.814668e+003,1.685788e-001
3.818525e+003,1.671142e-001
3.822382e+003,1.692057e-001
3.826239e+003,1.701664e-001
3.830096e+003,1.668258e-001
3.833954e+003,1.645779e-001
3.837811e+003,1.685749e-001
3.841668e+003,1.747863e-001
3.845525e+003,1.719723e-001
3.849382e+003,1.686736e-001
3.853239e+003,1.704932e-001
3.857096e+003,1.689706e-001
3.860953e+003,1.669863e-001
3.864810e+003,1.659433e-001
3.868667e+003,1.653913e-001
3.872524e+003,1.650117e-001
3.876382e+003,1.639799e-001
3.880239e+003,1.644988e-001
3.884096e+003,1.643905e-001
3.887953e+003,1.633153e-001
3.891810e+003,1.628531e-001
3.895667e+003,1.618932e-001
3.899524e+003,1.630913e-001
3.903381e+003,1.657289e-001
3.907238e+003,1.648722e-001
3.911095e+003,1.612730e-001
3.914953e+003,1.603959e-001
3.918810e+003,1.626492e-001
3.922667e+003,1.631442e-001
3.926524e+003,1.632197e-001
3.930381e+003,1.636085e-001
3.934238e+003,1.645169e-001
3.938095e+003,1.659253e-001
3.941952e+003,1.646968e-001
3.945809e+003,1.626227e-001
3.949667e+003,1.597629e-001
3.953523e+003,1.611217e-001
3.957381e+003,1.616736e-001
3.961238e+003,1.597224e-001
3.965095e+003,1.614431e-001
3.968952e+003,1.621958e-001
3.972809e+003,1.634647e-001
3.976666e+003,1.651967e-001
3.980523e+003,1.659988e-001
3.984380e+003,1.658232e-001
3.988237e+003,1.659721e-001
3.992094e+003,1.660725e-001
3.995952e+003,1.625957e-001
3.999809e+003,1.608040e-001
4.003666e+003,1.604695e-001
4.007523e+003,1.582125e-001
4.011380e+003,1.588324e-001
4.015237e+003,1.579865e-001
4.019094e+003,1.565404e-001
4.022951e+003,1.551663e-001
4.026808e+003,1.548361e-001
4.030666e+003,1.561956e-001
4.034522e+003,1.577356e-001
4.038380e+003,1.589793e-001
4.042237e+003,1.599585e-001
4.046094e+003,1.579429e-001
4.049951e+003,1.558662e-001
4.053808e+003,1.579141e-001
4.057665e+003,1.578180e-001
4.061522e+003,1.564416e-001
4.065379e+003,1.545695e-001
4.069236e+003,1.532925e-001
4.073094e+003,1.538288e-001
4.076951e+003,1.518892e-001
4.080808e+003,1.503193e-001
4.084665e+003,1.516373e-001
4.088522e+003,1.509858e-001
4.092379e+003,1.456041e-001
4.096236e+003,1.424062e-001
4.100093e+003,1.452403e-001
4.103950e+003,1.458005e-001
4.107808e+003,1.472171e-001
4.111665e+003,1.469216e-001
4.115521e+003,1.464920e-001
4.119379e+003,1.493789e-001
4.123236e+003,1.478521e-001
4.127093e+003,1.443014e-001
4.130950e+003,1.462751e-001
4.134807e+003,1.503996e-001
4.138664e+003,1.501607e-001
4.142521e+003,1.488307e-001
4.146378e+003,1.458140e-001
4.150235e+003,1.467471e-001
4.154093e+003,1.457398e-001
4.157950e+003,1.402164e-001
4.161807e+003,1.379242e-001
4.165664e+003,1.434273e-001
4.169521e+003,1.446563e-001
4.173378e+003,1.421524e-001
4.177235e+003,1.407695e-001
4.181092e+003,1.424057e-001
4.184949e+003,1.435053e-001
4.188807e+003,1.437446e-001
4.192664e+003,1.405827e-001
4.196521e+003,1.384880e-001
4.200378e+003,1.419525e-001
4.204235e+003,1.375666e-001
4.208092e+003,1.325242e-001
4.211949e+003,1.322896e-001
4.215806e+003,1.363061e-001
4.219663e+003,1.386387e-001
4.223521e+003,1.340476e-001
4.227377e+003,1.334954e-001
4.231234e+003,1.354495e-001
4.235092e+003,1.375861e-001
4.238949e+003,1.367267e-001
4.242806e+003,1.355489e-001
4.246663e+003,1.371668e-001
4.250520e+003,1.390046e-001
4.254377e+003,1.389141e-001
4.258234e+003,1.396956e-001
4.262091e+003,1.425616e-001
4.265948e+003,1.435997e-001
4.269806e+003,1.418822e-001
4.273663e+003,1.372628e-001
4.277520e+003,1.365561e-001
4.281377e+003,1.335907e-001
4.285234e+003,1.310323e-001
4.289091e+003,1.357234e-001
4.292948e+003,1.357934e-001
4.296805e+003,1.328811e-001
4.300662e+003,1.355182e-001
4.304520e+003,1.372000e-001
4.308376e+003,1.362705e-001
4.312233e+003,1.380248e-001
4.316091e+003,1.413593e-001
4.319948e+003,1.382569e-001
4.323805e+003,1.363600e-001
4.327662e+003,1.361149e-001
4.331519e+003,1.315732e-001
4.335376e+003,1.297156e-001
4.339233e+003,1.306760e-001
4.343090e+003,1.351169e-001
4.346947e+003,1.396194e-001
4.350805e+003,1.389505e-001
4.354662e+003,1.366067e-001
4.358519e+003,1.367840e-001
4.362376e+003,1.337223e-001
4.366233e+003,1.338494e-001
4.370090e+003,1.385259e-001
4.373947e+003,1.398334e-001
4.377804e+003,1.371424e-001
4.381661e+003,1.382983e-001
4.385519e+003,1.404449e-001
4.389375e+003,1.403721e-001
4.393232e+003,1.373130e-001
4.397090e+003,1.379592e-001
4.400947e+003,1.387812e-001
4.404804e+003,1.377403e-001
4.408661e+003,1.398208e-001
4.412518e+003,1.412580e-001
4.416375e+003,1.377186e-001
4.420232e+003,1.330454e-001
4.424089e+003,1.343991e-001
4.427946e+003,1.391562e-001
4.431804e+003,1.395923e-001
4.435661e+003,1.380384e-001
4.439518e+003,1.391973e-001
4.443375e+003,1.388776e-001
4.447232e+003,1.355864e-001
4.451089e+003,1.370039e-001
4.454946e+003,1.388426e-001
4.458803e+003,1.375412e-001
4.462660e+003,1.392435e-001
4.466518e+003,1.422156e-001
4.470375e+003,1.433885e-001
4.474231e+003,1.416804e-001
4.478089e+003,1.399182e-001
4.481946e+003,1.363540e-001
4.485803e+003,1.371432e-001
4.489660e+003,1.372067e-001
4.493517e+003,1.314982e-001
4.497375e+003,1.307607e-001
4.501231e+003,1.337398e-001
4.505088e+003,1.330179e-001
4.508946e+003,1.348677e-001
4.512803e+003,1.354394e-001
4.516660e+003,1.329747e-001
4.520517e+003,1.356885e-001
4.524374e+003,1.379405e-001
4.528231e+003,1.345289e-001
4.532088e+003,1.321090e-001
4.535945e+003,1.300926e-001
4.539802e+003,1.278166e-001
4.543660e+003,1.301355e-001
4.547517e+003,1.361635e-001
4.551374e+003,1.409941e-001
4.555231e+003,1.400478e-001
4.559088e+003,1.363427e-001
4.562945e+003,1.302123e-001
4.566802e+003,1.314176e-001
4.570659e+003,1.329015e-001
4.574516e+003,1.316013e-001
4.578374e+003,1.301211e-001
4.582230e+003,1.278714e-001
4.586087e+003,1.237918e-001
4.589945e+003,1.221666e-001
4.593802e+003,1.254680e-001
4.597659e+003,1.277890e-001
4.601516e+003,1.239054e-001
4.605373e+003,1.232155e-001
4.609230e+003,1.266316e-001
4.613087e+003,1.273510e-001
4.616944e+003,1.266686e-001
4.620801e+003,1.304349e-001
4.624659e+003,1.303526e-001
4.628516e+003,1.273912e-001
4.632373e+003,1.279632e-001
4.636230e+003,1.306387e-001
4.640087e+003,1.330740e-001
4.643944e+003,1.352387e-001
4.647801e+003,1.353206e-001
4.651658e+003,1.296431e-001
4.655515e+003,1.282480e-001
4.659373e+003,1.254774e-001
4.663229e+003,1.233219e-001
4.667086e+003,1.255276e-001
4.670944e+003,1.251264e-001
4.674801e+003,1.295214e-001
4.678658e+003,1.293845e-001
4.682515e+003,1.264960e-001
4.686372e+003,1.266977e-001
4.690229e+003,1.283786e-001
4.694086e+003,1.277730e-001
4.697943e+003,1.277841e-001
4.701800e+003,1.301012e-001
4.705658e+003,1.261530e-001
4.709515e+003,1.250378e-001
4.713372e+003,1.289590e-001
4.717229e+003,1.304392e-001
4.721086e+003,1.283135e-001
4.724943e+003,1.218922e-001
4.728800e+003,1.205518e-001
4.732657e+003,1.214740e-001
4.736514e+003,1.196765e-001
4.740372e+003,1.237545e-001
4.744229e+003,1.255870e-001
4.748085e+003,1.242078e-001
4.751943e+003,1.263400e-001
4.755800e+003,1.304267e-001
4.759657e+003,1.289426e-001
4.763514e+003,1.241991e-001
4.767371e+003,1.269645e-001
4.771228e+003,1.317443e-001
4.775085e+003,1.286897e-001
4.778942e+003,1.259946e-001
4.782799e+003,1.253639e-001
4.786657e+003,1.276521e-001
4.790514e+003,1.284875e-001
4.794371e+003,1.306778e-001
4.798228e+003,1.296994e-001
4.802085e+003,1.249678e-001
4.805942e+003,1.230907e-001
4.809799e+003,1.234942e-001
4.813656e+003,1.295494e-001
4.817513e+003,1.371150e-001
4.821371e+003,1.373647e-001
4.825228e+003,1.345383e-001
4.829084e+003,1.306361e-001
4.832942e+003,1.261861e-001
4.836799e+003,1.222457e-001
4.840656e+003,1.291862e-001
4.844513e+003,1.291497e-001
4.848370e+003,1.257134e-001
4.852227e+003,1.299385e-001
4.856084e+003,1.337734e-001
4.859941e+003,1.318595e-001
4.863798e+003,1.306393e-001
4.867656e+003,1.320778e-001
4.871513e+003,1.237132e-001
4.875370e+003,1.133158e-001
4.879227e+003,1.194810e-001
4.883084e+003,1.276529e-001
4.886941e+003,1.283066e-001
4.890798e+003,1.263793e-001
4.894655e+003,1.286405e-001
4.898512e+003,1.266210e-001
4.902370e+003,1.222975e-001
4.906227e+003,1.232542e-001
4.910083e+003,1.250688e-001
4.913941e+003,1.278747e-001
4.917798e+003,1.286857e-001
4.921655e+003,1.262718e-001
4.925512e+003,1.294190e-001
4.929369e+003,1.281181e-001
4.933226e+003,1.291495e-001
4.937083e+003,1.266750e-001
4.940940e+003,1.275802e-001
4.944797e+003,1.302689e-001
4.948655e+003,1.292331e-001
4.952512e+003,1.284114e-001
4.956369e+003,1.203032e-001
4.960226e+003,1.241968e-001
4.964083e+003,1.289413e-001
4.967940e+003,1.275832e-001
4.971797e+003,1.280290e-001
4.975654e+003,1.292767e-001
4.979511e+003,1.300103e-001
4.983369e+003,1.363966e-001
4.987226e+003,1.367683e-001
4.991083e+003,1.308780e-001
4.994940e+003,1.285710e-001
4.998797e+003,1.271237e-001
5.002654e+003,1.278547e-001
5.006511e+003,1.277604e-001
5.010368e+003,1.265672e-001
5.014225e+003,1.283752e-001
5.018083e+003,1.292408e-001
5.021939e+003,1.299026e-001
5.025796e+003,1.257351e-001
5.029654e+003,1.287194e-001
5.033511e+003,1.315825e-001
5.037368e+003,1.280209e-001
5.041225e+003,1.280554e-001
5.045082e+003,1.314108e-001
5.048939e+003,1.325783e-001
5.052796e+003,1.326213e-001
5.056653e+003,1.319498e-001
5.060510e+003,1.305929e-001
5.064368e+003,1.321151e-001
5.068225e+003,1.328824e-001
5.072082e+003,1.315318e-001
5.075939e+003,1.290168e-001
5.079796e+003,1.239025e-001
5.083653e+003,1.218046e-001
5.087510e+003,1.246467e-001
5.091367e+003,1.298043e-001
5.095224e+003,1.313573e-001
5.099082e+003,1.223359e-001
5.102938e+003,1.184582e-001
5.106795e+003,1.260987e-001
5.110653e+003,1.298631e-001
5.114510e+003,1.326486e-001
5.118367e+003,1.393623e-001
5.122224e+003,1.440906e-001
5.126081e+003,1.392074e-001
5.129938e+003,1.308699e-001
5.133795e+003,1.336072e-001
5.137652e+003,1.362273e-001
5.141509e+003,1.331659e-001
5.145367e+003,1.344996e-001
5.149224e+003,1.380038e-001
5.153081e+003,1.309697e-001
5.156938e+003,1.264713e-001
5.160795e+003,1.332655e-001
5.164652e+003,1.386257e-001
5.168509e+003,1.376473e-001
5.172366e+003,1.362658e-001
5.176223e+003,1.360037e-001
5.180081e+003,1.375424e-001
5.183938e+003,1.330390e-001
5.187794e+003,1.316050e-001
5.191652e+003,1.385174e-001
5.195509e+003,1.436149e-001
5.199366e+003,1.410091e-001
5.203223e+003,1.356338e-001
5.207080e+003,1.380069e-001
5.210937e+003,1.423150e-001
5.214794e+003,1.380076e-001
5.218651e+003,1.362191e-001
5.222508e+003,1.399920e-001
5.226366e+003,1.384764e-001
5.230223e+003,1.344372e-001
5.234080e+003,1.356944e-001
5.237937e+003,1.365836e-001
5.241794e+003,1.369975e-001
5.245651e+003,1.352701e-001
5.249508e+003,1.332289e-001
5.253365e+003,1.313309e-001
5.257222e+003,1.294744e-001
5.261080e+003,1.275596e-001
5.264937e+003,1.247484e-001
5.268793e+003,1.219053e-001
5.272651e+003,1.248235e-001
5.276508e+003,1.265453e-001
5.280365e+003,1.227772e-001
5.284222e+003,1.235032e-001
5.288079e+003,1.232462e-001
5.291936e+003,1.234510e-001
5.295793e+003,1.219933e-001
5.299650e+003,1.219061e-001
5.303507e+003,1.268604e-001
5.307365e+003,1.291016e-001
5.311222e+003,1.294732e-001
5.315079e+003,1.269106e-001
5.318936e+003,1.255702e-001
5.322793e+003,1.229616e-001
5.326650e+003,1.176824e-001
5.330507e+003,1.153043e-001
5.334364e+003,1.204882e-001
5.338221e+003,1.218256e-001
5.342079e+003,1.252645e-001
5.345936e+003,1.297366e-001
5.349792e+003,1.234631e-001
5.353650e+003,1.217122e-001
5.357507e+003,1.251701e-001
5.361364e+003,1.199610e-001
5.365221e+003,1.203551e-001
5.369078e+003,1.215601e-001
5.372935e+003,1.248306e-001
5.376792e+003,1.259229e-001
5.380649e+003,1.233065e-001
5.384506e+003,1.243392e-001
5.388364e+003,1.285332e-001
5.392221e+003,1.281306e-001
5.396078e+003,1.272217e-001
5.399935e+003,1.267750e-001
5.403792e+003,1.204065e-001
5.407649e+003,1.212672e-001
5.411506e+003,1.236491e-001
5.415363e+003,1.156153e-001
5.419220e+003,1.121529e-001
5.423078e+003,1.183175e-001
5.426935e+003,1.230554e-001
5.430792e+003,1.222393e-001
5.434649e+003,1.217958e-001
5.438506e+003,1.200233e-001
5.442363e+003,1.183924e-001
5.446220e+003,1.218521e-001
5.450077e+003,1.256623e-001
5.453934e+003,1.223179e-001
5.457792e+003,1.143340e-001
5.461648e+003,1.135351e-001
5.465505e+003,1.139489e-001
5.469363e+003,1.164025e-001
5.473220e+003,1.112999e-001
5.477077e+003,1.105472e-001
5.480934e+003,1.134234e-001
5.484791e+003,1.196696e-001
5.488648e+003,1.238658e-001
5.492505e+003,1.214955e-001
5.496362e+003,1.190701e-001
5.500219e+003,1.200678e-001
5.504077e+003,1.160572e-001
5.507934e+003,1.164440e-001
5.511791e+003,1.182402e-001
5.515648e+003,1.200522e-001
5.519505e+003,1.267833e-001
5.523362e+003,1.257399e-001
5.527219e+003,1.220213e-001
5.531076e+003,1.246549e-001
5.534933e+003,1.276670e-001
5.538791e+003,1.258689e-001
5.542647e+003,1.203327e-001
5.546504e+003,1.137706e-001
5.550362e+003,1.144879e-001
5.554219e+003,1.150746e-001
5.558076e+003,1.173693e-001
5.561933e+003,1.133817e-001
5.565790e+003,1.152532e-001
5.569647e+003,1.200308e-001
5.573504e+003,1.157914e-001
5.577361e+003,1.114503e-001
5.581218e+003,1.149365e-001
5.585076e+003,1.193209e-001
5.588933e+003,1.192779e-001
5.592790e+003,1.231476e-001
5.596647e+003,1.281059e-001
5.600504e+003,1.241136e-001
5.604361e+003,1.137210e-001
5.608218e+003,1.067131e-001
5.612075e+003,1.096428e-001
5.615932e+003,1.149721e-001
5.619790e+003,1.190331e-001
5.623646e+003,1.124469e-001
5.627503e+003,1.047491e-001
5.631361e+003,1.084501e-001
5.635218e+003,1.091386e-001
5.639075e+003,1.078433e-001
5.642932e+003,1.095017e-001
5.646789e+003,1.097845e-001
5.650646e+003,1.132831e-001
5.654503e+003,1.202555e-001
5.658360e+003,1.211943e-001
5.662217e+003,1.167416e-001
5.666075e+003,1.170500e-001
5.669932e+003,1.163853e-001
5.673789e+003,1.129718e-001
5.677646e+003,1.096139e-001
5.681503e+003,1.113472e-001
5.685360e+003,1.129772e-001
5.689217e+003,1.174758e-001
5.693074e+003,1.149763e-001
5.696931e+003,1.169105e-001
5.700789e+003,1.210791e-001
5.704646e+003,1.216478e-001
5.708502e+003,1.127079e-001
5.712360e+003,1.030012e-001
5.716217e+003,1.090259e-001
5.720074e+003,1.093490e-001
5.723931e+003,1.113269e-001
5.727788e+003,1.142119e-001
5.731645e+003,1.111564e-001
5.735502e+003,1.153579e-001
5.739359e+003,1.145490e-001
5.743216e+003,1.079383e-001
5.747074e+003,1.128012e-001
5.750931e+003,1.216018e-001
5.754788e+003,1.255120e-001
5.758645e+003,1.183591e-001
5.762502e+003,1.123193e-001
5.766359e+003,1.152527e-001
5.770216e+003,1.169772e-001
5.774073e+003,1.091193e-001
5.777930e+003,1.138481e-001
5.781788e+003,1.209344e-001
5.785645e+003,1.193215e-001
5.789501e+003,1.180809e-001
5.793359e+003,1.160110e-001
5.797216e+003,1.137720e-001
5.801073e+003,1.108545e-001
5.804930e+003,1.090975e-001
5.808787e+003,1.102992e-001
5.812644e+003,1.200866e-001
5.816501e+003,1.213299e-001
5.820358e+003,1.103676e-001
5.824215e+003,1.105620e-001
5.828073e+003,1.139752e-001
5.831930e+003,1.137776e-001
5.835787e+003,1.138326e-001
5.839644e+003,1.147404e-001
5.843501e+003,1.169171e-001
5.847358e+003,1.114650e-001
5.851215e+003,1.060083e-001
5.855072e+003,1.120543e-001
5.858929e+003,1.188952e-001
5.862787e+003,1.148357e-001
5.866644e+003,1.078718e-001
5.870500e+003,1.054097e-001
5.874358e+003,1.083291e-001
5.878215e+003,1.151347e-001
5.882072e+003,1.207246e-001
5.885929e+003,1.179011e-001
5.889786e+003,1.171011e-001
5.893643e+003,1.200071e-001
5.897500e+003,1.254464e-001
5.901357e+003,1.284931e-001
5.905214e+003,1.287598e-001
5.909072e+003,1.185457e-001
5.912929e+003,1.135090e-001
5.916786e+003,1.108421e-001
5.920643e+003,1.090840e-001
5.924500e+003,1.123880e-001
5.928357e+003,1.148465e-001
5.932214e+003,1.144262e-001
5.936071e+003,1.170988e-001
5.939928e+003,1.199416e-001
5.943786e+003,1.180229e-001
5.947643e+003,1.082536e-001
5.951500e+003,1.035465e-001
5.955357e+003,1.111935e-001
5.959214e+003,1.076269e-001
5.963071e+003,1.045516e-001
5.966928e+003,1.074784e-001
5.970785e+003,1.166026e-001
5.974642e+003,1.151580e-001
5.978500e+003,1.129566e-001
5.982356e+003,1.191708e-001
5.986213e+003,1.167237e-001
5.990071e+003,1.122435e-001
5.993928e+003,1.071176e-001
5.997785e+003,1.033395e-001
6.001642e+003,1.079411e-001
6.005499e+003,1.101239e-001
6.009356e+003,1.063109e-001
6.013213e+003,1.046285e-001
6.017070e+003,1.078960e-001
6.020927e+003,1.196535e-001
6.024785e+003,1.249117e-001
6.028642e+003,1.174462e-001
6.032499e+003,1.171391e-001
6.036356e+003,1.077310e-001
6.040213e+003,1.023763e-001
6.044070e+003,1.084017e-001
6.047927e+003,1.128848e-001
6.051784e+003,1.199013e-001
6.055641e+003,1.133954e-001
6.059499e+003,1.140045e-001
6.063355e+003,1.160790e-001
6.067212e+003,1.157239e-001
6.071070e+003,1.107123e-001
6.074927e+003,1.082650e-001
6.078784e+003,1.193449e-001
6.082641e+003,1.241805e-001
6.086498e+003,1.148355e-001
6.090355e+003,1.127088e-001
6.094212e+003,1.084097e-001
6.098069e+003,1.060766e-001
6.101926e+003,1.056188e-001
6.105784e+003,9.898493e-002
6.109641e+003,1.026085e-001
6.113498e+003,1.147302e-001
6.117355e+003,1.183089e-001
6.121212e+003,1.189948e-001
6.125069e+003,1.215907e-001
6.128926e+003,1.154125e-001
6.132783e+003,1.135531e-001
6.136640e+003,1.088745e-001
6.140498e+003,9.805618e-002
6.144354e+003,1.092008e-001
6.148211e+003,1.099570e-001
6.152069e+003,1.101798e-001
6.155926e+003,1.172311e-001
6.159783e+003,1.195337e-001
6.163640e+003,1.269232e-001
6.167497e+003,1.193656e-001
6.171354e+003,1.164845e-001
6.175211e+003,1.099348e-001
6.179068e+003,1.049220e-001
6.182925e+003,1.069741e-001
6.186783e+003,1.073707e-001
6.190640e+003,1.046654e-001
6.194497e+003,1.007295e-001
6.198354e+003,1.074781e-001
6.202211e+003,1.197560e-001
6.206068e+003,1.233424e-001
6.209925e+003,1.192237e-001
6.213782e+003,1.193886e-001
6.217639e+003,1.224311e-001
6.221497e+003,1.235771e-001
6.225354e+003,1.182744e-001
6.229210e+003,1.124676e-001
6.233068e+003,1.103379e-001
6.236925e+003,1.123672e-001
6.240782e+003,1.098648e-001
6.244639e+003,1.106467e-001
6.248496e+003,1.105093e-001
6.252353e+003,1.022128e-001
6.256210e+003,1.058592e-001
6.260067e+003,1.230453e-001
6.263924e+003,1.239520e-001
6.267782e+003,1.103556e-001
6.271639e+003,1.107173e-001
6.275496e+003,1.187552e-001
6.279353e+003,1.185161e-001
6.283210e+003,1.272315e-001
6.287067e+003,1.219435e-001
6.290924e+003,1.163563e-001
6.294781e+003,1.147280e-001
6.298638e+003,1.130655e-001
6.302496e+003,1.225643e-001
6.306353e+003,1.145813e-001
6.310209e+003,1.057068e-001
6.314067e+003,1.154713e-001
6.317924e+003,1.281364e-001
6.321781e+003,1.193712e-001
6.325638e+003,1.061191e-001
6.329495e+003,1.010364e-001
6.333352e+003,9.603743e-002
6.337209e+003,1.013589e-001
6.341066e+003,1.129845e-001
6.344923e+003,1.205128e-001
6.348780e+003,1.257815e-001
6.352638e+003,1.109638e-001
6.356495e+003,1.099418e-001
6.360352e+003,1.158350e-001
6.364209e+003,1.090301e-001
6.368066e+003,1.176669e-001
6.371923e+003,1.258269e-001
6.375780e+003,1.172210e-001
6.379637e+003,1.202552e-001
6.383494e+003,1.259532e-001
6.387352e+003,1.237408e-001
6.391208e+003,1.160246e-001
6.395065e+003,1.183448e-001
6.398923e+003,1.252799e-001
6.402780e+003,1.226758e-001
6.406637e+003,1.188497e-001
6.410494e+003,1.269399e-001
6.414351e+003,1.284178e-001
6.418208e+003,1.227631e-001
6.422065e+003,1.274747e-001
6.425922e+003,1.187093e-001
6.429779e+003,1.147267e-001
6.433637e+003,1.199883e-001
6.437494e+003,1.145873e-001
6.441351e+003,1.119363e-001
6.445208e+003,1.079028e-001
6.449065e+003,1.034221e-001
6.452922e+003,1.230992e-001
6.456779e+003,1.399381e-001
6.460636e+003,1.279676e-001
6.464493e+003,1.154893e-001
6.468351e+003,1.166075e-001
6.472208e+003,1.206417e-001
6.476064e+003,1.222353e-001
6.479922e+003,1.221847e-001
6.483779e+003,1.118941e-001
6.487636e+003,1.113319e-001
6.491493e+003,1.172109e-001
6.495350e+003,1.266754e-001
6.499207e+003,1.308144e-001
6.503064e+003,1.230637e-001
6.506921e+003,1.131745e-001
6.510778e+003,1.233678e-001
6.514636e+003,1.290881e-001
6.518493e+003,1.263869e-001
6.522350e+003,1.416861e-001
6.526207e+003,1.354774e-001
6.530064e+003,1.291986e-001
6.533921e+003,1.398247e-001
6.537778e+003,1.299457e-001
6.541635e+003,1.202845e-001
6.545492e+003,1.263071e-001
6.549350e+003,1.329970e-001
6.553207e+003,1.248808e-001
6.557063e+003,1.128244e-001
6.560921e+003,1.212213e-001
6.564778e+003,1.293796e-001
6.568635e+003,1.320954e-001
6.572492e+003,1.200593e-001
6.576349e+003,1.165066e-001
6.580206e+003,1.173113e-001
6.584063e+003,1.163594e-001
6.587920e+003,1.202331e-001
6.591777e+003,1.183549e-001
6.595635e+003,1.111201e-001
6.599492e+003,1.084984e-001
6.603349e+003,1.183760e-001
6.607206e+003,1.232102e-001
6.611063e+003,1.209514e-001
6.614920e+003,1.263751e-001
6.618777e+003,1.202460e-001
6.622634e+003,1.189797e-001
6.626491e+003,1.312681e-001
6.630349e+003,1.368197e-001
6.634206e+003,1.374419e-001
6.638063e+003,1.392134e-001
6.641920e+003,1.248590e-001
6.645777e+003,1.234041e-001
6.649634e+003,1.246739e-001
6.653491e+003,1.222443e-001
6.657348e+003,1.104422e-001
6.661205e+003,1.099566e-001
6.665063e+003,1.236344e-001
6.668919e+003,1.352246e-001
6.672776e+003,1.257708e-001
6.676634e+003,1.071725e-001
6.680491e+003,1.059291e-001
6.684348e+003,1.190124e-001
6.688205e+003,1.241431e-001
6.692062e+003,1.130414e-001
6.695919e+003,1.147195e-001
6.699776e+003,1.243114e-001
6.703633e+003,1.212850e-001
6.707490e+003,1.101574e-001
6.711348e+003,1.044092e-001
6.715205e+003,1.132523e-001
6.719062e+003,1.118825e-001
6.722919e+003,1.063013e-001
6.726776e+003,1.247353e-001
6.730633e+003,1.337199e-001
6.734490e+003,1.440887e-001
6.738347e+003,1.492789e-001
6.742204e+003,1.368596e-001
6.746062e+003,1.384654e-001
6.749918e+003,1.511108e-001
6.753775e+003,1.378798e-001
6.757633e+003,1.314214e-001
6.761490e+003,1.305609e-001
6.765347e+003,1.245996e-001
6.769204e+003,1.241540e-001
6.773061e+003,1.416982e-001
6.776918e+003,1.408982e-001
6.780775e+003,1.232884e-001
6.784632e+003,1.223679e-001
6.788489e+003,1.458853e-001
6.792347e+003,1.505630e-001
6.796204e+003,1.257289e-001
6.800061e+003,1.192002e-001
6.803918e+003,1.291687e-001
6.807775e+003,1.358280e-001
6.811632e+003,1.309653e-001
6.815489e+003,1.284526e-001
6.819346e+003,1.248900e-001
6.823203e+003,1.290691e-001
6.827061e+003,1.481306e-001
6.830917e+003,1.451905e-001
6.834774e+003,1.320031e-001
6.838632e+003,1.313379e-001
6.842489e+003,1.305352e-001
6.846346e+003,1.304657e-001
6.850203e+003,1.180018e-001
6.854060e+003,1.260777e-001
6.857917e+003,1.463560e-001
6.861774e+003,1.441959e-001
6.865631e+003,1.287853e-001
6.869488e+003,1.252986e-001
6.873346e+003,1.487150e-001
6.877203e+003,1.581716e-001
6.881060e+003,1.442853e-001
6.884917e+003,1.333987e-001
6.888774e+003,1.324078e-001
6.892631e+003,1.386504e-001
6.896488e+003,1.492989e-001
6.900345e+003,1.391241e-001
6.904202e+003,1.393216e-001
6.908060e+003,1.508599e-001
6.911917e+003,1.642367e-001
6.915773e+003,1.538199e-001
6.919631e+003,1.386539e-001
6.923488e+003,1.244714e-001
6.927345e+003,1.371648e-001
6.931202e+003,1.573188e-001
6.935059e+003,1.484820e-001
6.938916e+003,1.360047e-001
6.942773e+003,1.366788e-001
6.946630e+003,1.539368e-001
6.950487e+003,1.539753e-001
6.954345e+003,1.504526e-001
6.958202e+003,1.661584e-001
6.962059e+003,1.760847e-001
6.965916e+003,1.699530e-001
6.969773e+003,1.575329e-001
6.973630e+003,1.545054e-001
6.977487e+003,1.527614e-001
6.981344e+003,1.635863e-001
6.985201e+003,1.642341e-001
6.989059e+003,1.539614e-001
6.992916e+003,1.495642e-001
6.996772e+003,1.587351e-001
7.000630e+003,1.630833e-001
7.004487e+003,1.642035e-001
7.008344e+003,1.684777e-001
7.012201e+003,1.561712e-001
7.016058e+003,1.468277e-001
7.019915e+003,1.377536e-001
7.023772e+003,1.358036e-001
7.027629e+003,1.446523e-001
7.031486e+003,1.637468e-001
7.035344e+003,1.678680e-001
7.039201e+003,1.631662e-001
7.043058e+003,1.455552e-001
7.046915e+003,1.497461e-001
7.050772e+003,1.613782e-001
7.054629e+003,1.629394e-001
7.058486e+003,1.731048e-001
7.062343e+003,1.647594e-001
7.066200e+003,1.499628e-001
7.070058e+003,1.391618e-001
7.073915e+003,1.546694e-001
7.077771e+003,1.599326e-001
7.081629e+003,1.493556e-001
7.085486e+003,1.439435e-001
7.089343e+003,1.402660e-001
7.093200e+003,1.454268e-001
7.097057e+003,1.585869e-001
7.100914e+003,1.689484e-001
7.104771e+003,1.479339e-001
7.108628e+003,1.469646e-001
7.112485e+003,1.463974e-001
7.116343e+003,1.493943e-001
7.120200e+003,1.859872e-001
7.124057e+003,1.899106e-001
7.127914e+003,1.743326e-001
7.131771e+003,1.504124e-001
7.135628e+003,1.349147e-001
7.139485e+003,1.521411e-001
7.143342e+003,1.727664e-001
7.147199e+003,1.685533e-001
7.151057e+003,1.576665e-001
7.154914e+003,1.598466e-001
7.158771e+003,1.458547e-001
7.162628e+003,1.343126e-001
7.166485e+003,1.322758e-001
7.170342e+003,1.503414e-001
7.174199e+003,1.759008e-001
7.178056e+003,1.575275e-001
7.181913e+003,1.287831e-001
7.185771e+003,1.398212e-001
7.189627e+003,1.522138e-001
7.193484e+003,1.492282e-001
7.197342e+003,1.453370e-001
7.201199e+003,1.590948e-001
7.205056e+003,1.685159e-001
7.208913e+003,1.409520e-001
7.212770e+003,1.249384e-001
7.216627e+003,1.156250e-001
7.220484e+003,1.355168e-001
7.224341e+003,1.484640e-001
7.228198e+003,1.487602e-001
7.232056e+003,1.552798e-001
7.235913e+003,1.718468e-001
7.239770e+003,1.655853e-001
7.243627e+003,1.587918e-001
7.247484e+003,1.688958e-001
7.251341e+003,1.564393e-001
7.255198e+003,1.490472e-001
7.259055e+003,1.652583e-001
7.262912e+003,1.901854e-001
7.266770e+003,1.783552e-001
7.270626e+003,1.303530e-001
7.274483e+003,1.418426e-001
7.278341e+003,1.451205e-001
7.282198e+003,1.355578e-001
7.286055e+003,1.625096e-001
7.289912e+003,1.592157e-001
7.293769e+003,1.450176e-001
7.297626e+003,1.761886e-001
7.301483e+003,1.821334e-001
7.305340e+003,1.539029e-001
7.309197e+003,1.388628e-001
7.313055e+003,1.363976e-001
7.316912e+003,1.412722e-001
7.320769e+003,1.300626e-001
7.324626e+003,1.308050e-001
7.328483e+003,1.595738e-001
7.332340e+003,1.530516e-001
7.336197e+003,1.294449e-001
7.340054e+003,1.303000e-001
7.343911e+003,1.552312e-001
7.347769e+003,1.718362e-001
7.351625e+003,1.433754e-001
7.355482e+003,1.283181e-001
7.359340e+003,1.667788e-001
7.363197e+003,1.651112e-001
7.367054e+003,1.767730e-001
7.370911e+003,1.898938e-001
7.374768e+003,1.598341e-001
7.378625e+003,1.488388e-001
7.382482e+003,1.575926e-001
7.386339e+003,1.948250e-001
7.390196e+003,2.088915e-001
7.394054e+003,1.961875e-001
7.397911e+003,1.697379e-001
7.401768e+003,1.737623e-001
7.405625e+003,2.018708e-001
7.409482e+003,1.817943e-001
7.413339e+003,1.552663e-001
7.417196e+003,1.538242e-001
7.421053e+003,1.661456e-001
7.424910e+003,1.729302e-001
7.428768e+003,1.748710e-001
7.432625e+003,1.740148e-001
7.436481e+003,1.282861e-001
7.440339e+003,1.166297e-001
7.444196e+003,1.785973e-001
7.448053e+003,2.128879e-001
7.451910e+003,1.673619e-001
7.455767e+003,1.668134e-001
7.459624e+003,1.963946e-001
7.463481e+003,2.045458e-001
7.467338e+003,2.236209e-001
7.471195e+003,2.068394e-001
7.475053e+003,1.600292e-001
7.478910e+003,1.402371e-001
7.482767e+003,1.449477e-001
7.486624e+003,1.366697e-001
7.490481e+003,1.644364e-001
7.494338e+003,1.775152e-001
7.498195e+003,1.733937e-001
7.502052e+003,1.516097e-001
7.505909e+003,1.148117e-001
7.509767e+003,1.426732e-001
7.513624e+003,1.771477e-001
7.517480e+003,1.702742e-001
7.521338e+003,1.453849e-001
7.525195e+003,1.596299e-001
7.529052e+003,1.858799e-001
7.532909e+003,1.819511e-001
7.536766e+003,1.728545e-001
7.540623e+003,1.892933e-001
7.544480e+003,1.931379e-001
7.548337e+003,1.787350e-001
7.552194e+003,1.922631e-001
7.556052e+003,2.299335e-001
7.559909e+003,2.539769e-001
7.563766e+003,2.621006e-001
7.567623e+003,2.048241e-001
7.571480e+003,1.643074e-001
7.575337e+003,1.865018e-001
7.579194e+003,2.072612e-001
7.583051e+003,1.886700e-001
7.586908e+003,1.740892e-001
7.590766e+003,1.718170e-001
7.594623e+003,1.478450e-001
7.598479e+003,1.476107e-001
7.602337e+003,1.874990e-001
7.606194e+003,1.948377e-001
7.610051e+003,1.881165e-001
7.613908e+003,2.056865e-001
7.617765e+003,2.107102e-001
7.621622e+003,1.793160e-001
7.625479e+003,1.638224e-001
7.629336e+003,1.806019e-001
7.633193e+003,1.581394e-001
7.637051e+003,1.610337e-001
7.640908e+003,1.845355e-001
7.644765e+003,1.798030e-001
7.648622e+003,2.223630e-001
7.652479e+003,2.229535e-001
7.656336e+003,1.970363e-001
7.660193e+003,1.717462e-001
7.664050e+003,1.703747e-001
7.667907e+003,1.728152e-001
7.671765e+003,1.333517e-001
7.675622e+003,1.348843e-001
7.679479e+003,2.009435e-001
7.683336e+003,2.208429e-001
7.687193e+003,1.685461e-001
7.691050e+003,1.803153e-001
7.694907e+003,1.919012e-001
7.698764e+003,1.549969e-001
7.702621e+003,1.279788e-001
7.706479e+003,1.675477e-001
7.710335e+003,1.898167e-001
7.714192e+003,1.831725e-001
7.718050e+003,1.991097e-001
7.721907e+003,1.731239e-001
7.725764e+003,1.503143e-001
7.729621e+003,1.451965e-001
7.733478e+003,2.206217e-001
7.737335e+003,2.378285e-001
7.741192e+003,1.497867e-001
7.745049e+003,1.649301e-001
7.748906e+003,2.241024e-001
7.752764e+003,2.059557e-001
7.756621e+003,2.255475e-001
7.760478e+003,2.739919e-001
7.764335e+003,2.413386e-001
7.768192e+003,1.938068e-001
7.772049e+003,1.258646e-001
7.775906e+003,1.455661e-001
7.779763e+003,2.548684e-001
7.783620e+003,2.640661e-001
7.787478e+003,2.464340e-001
7.791334e+003,1.910542e-001
7.795191e+003,1.902827e-001
7.799049e+003,1.940197e-001
7.802906e+003,1.662396e-001
7.806763e+003,1.859877e-001
7.810620e+003,1.724438e-001
7.814477e+003,1.016476e-001
7.818334e+003,7.985737e-002
7.822191e+003,1.736605e-001
7.826048e+003,2.776946e-001
7.829905e+003,2.771471e-001
7.833763e+003,2.567390e-001
7.837620e+003,2.403686e-001
7.841477e+003,1.687706e-001
7.845334e+003,1.567116e-001
7.849191e+003,2.011591e-001
7.853048e+003,2.785698e-001
7.856905e+003,2.328987e-001
7.860762e+003,1.450338e-001
7.864619e+003,1.930393e-001
7.868477e+003,2.528746e-001
7.872333e+003,2.759705e-001
7.876190e+003,2.961397e-001
7.880048e+003,2.594339e-001
7.883905e+003,2.334967e-001
7.887762e+003,2.516039e-001
7.891619e+003,2.594534e-001
7.895476e+003,2.051894e-001
7.899333e+003,2.064933e-001
7.903190e+003,2.036084e-001
7.907047e+003,2.163649e-001
7.910904e+003,2.217011e-001
7.914762e+003,2.093136e-001
7.918619e+003,2.450556e-001
7.922476e+003,2.331472e-001
7.926333e+003,1.693865e-001
7.930190e+003,1.177387e-001
7.934047e+003,1.482176e-001
7.937904e+003,1.498888e-001
7.941761e+003,1.624390e-001
7.945618e+003,1.656022e-001
7.949476e+003,1.074041e-001
7.953333e+003,7.067109e-002
7.957189e+003,1.626459e-001
7.961047e+003,1.844544e-001
7.964904e+003,1.700145e-001
7.968761e+003,1.856607e-001
7.972618e+003,2.225027e-001
7.976475e+003,2.524894e-001
7.980332e+003,2.042712e-001
7.984189e+003,2.107651e-001
7.988046e+003,2.890211e-001
7.991903e+003,2.483581e-001
7.995761e+003,2.524950e-001
7.999618e+003,3.317190e-001
