4.011380e+002,6.000000e+000
4.049951e+002,-2.526338e-002
4.088522e+002,1.838250e-001
4.127093e+002,6.000000e+000
4.165664e+002,6.000000e+000
4.204235e+002,-4.027330e-002
4.242806e+002,4.902784e-002
4.281377e+002,-2.183950e-001
4.319948e+002,6.000000e+000
4.358519e+002,1.517483e+000
4.397090e+002,-3.567142e-001
4.435661e+002,-6.577868e-001
4.474232e+002,-5.558598e-001
4.512803e+002,-2.056164e+000
4.551374e+002,6.000000e+000
4.589945e+002,6.000000e+000
4.628516e+002,-8.153430e-002
4.667087e+002,-6.851281e-001
4.705658e+002,6.979148e-001
4.744229e+002,3.433563e-001
4.782800e+002,-2.695114e-001
4.821371e+002,6.000000e+000
4.859941e+002,-4.913413e-001
4.898513e+002,-8.397757e-001
4.937083e+002,6.000000e+000
4.975654e+002,6.000000e+000
5.014225e+002,-6.015038e-002
5.052796e+002,-6.146598e-001
5.091367e+002,-6.012062e-001
5.129938e+002,6.000000e+000
5.168509e+002,9.581590e-001
5.207080e+002,6.000000e+000
5.245651e+002,6.883635e-002
5.284222e+002,6.749009e-001
5.322793e+002,6.000000e+000
5.361364e+002,1.162990e+000
5.399935e+002,4.997584e-001
5.438506e+002,-5.333155e-001
5.477077e+002,6.000000e+000
5.515648e+002,-9.691082e-001
5.554219e+002,6.000000e+000
5.592790e+002,6.000000e+000
5.631361e+002,6.000000e+000
5.669932e+002,6.000000e+000
5.708503e+002,6.000000e+000
5.747074e+002,6.000000e+000
5.785645e+002,6.000000e+000
5.824216e+002,-6.682418e-002
5.862787e+002,1.067032e+000
5.901357e+002,6.000000e+000
5.939929e+002,2.216942e-001
5.978499e+002,-7.372000e-001
6.017070e+002,6.000000e+000
6.055641e+002,6.000000e+000
6.094212e+002,6.000000e+000
6.132783e+002,-3.639113e-001
6.171354e+002,-7.567540e-001
6.209925e+002,-1.048457e+000
6.248496e+002,-4.745114e-002
6.287067e+002,3.422419e-001
6.325638e+002,2.892759e-001
6.364209e+002,4.420619e-001
6.402780e+002,-4.129648e-001
6.441351e+002,-1.592894e-001
6.479922e+002,6.000000e+000
6.518493e+002,6.000000e+000
6.557064e+002,-5.579115e-001
6.595635e+002,1.198427e+000
6.634205e+002,-4.827285e-002
6.672777e+002,-4.136651e-001
6.711348e+002,-6.716456e-001
6.749918e+002,6.000000e+000
6.788490e+002,6.000000e+000
6.827061e+002,6.000000e+000
6.865631e+002,6.000000e+000
6.904203e+002,6.000000e+000
6.942773e+002,3.318454e-001
6.981344e+002,6.000000e+000
7.019916e+002,-4.371958e-001
7.058486e+002,-7.748373e-001
7.097057e+002,-1.353630e-001
7.135629e+002,-1.473848e-001
7.174199e+002,-7.681767e-001
7.212770e+002,-1.097152e+000
7.251342e+002,6.000000e+000
7.289912e+002,6.000000e+000
7.328483e+002,1.180338e-001
7.367054e+002,-5.188743e-001
7.405625e+002,6.000000e+000
7.444196e+002,-8.755313e-001
7.482767e+002,-6.853670e-001
7.521338e+002,6.000000e+000
7.559908e+002,-3.210610e+000
7.598480e+002,6.000000e+000
7.637051e+002,1.053419e-001
7.675621e+002,-4.216416e-001
7.714193e+002,-5.618142e-001
7.752764e+002,-5.639275e-001
7.791334e+002,-3.981931e-001
7.829905e+002,5.248977e-001
7.868477e+002,-1.224073e-001
7.907047e+002,-1.924560e-001
7.945618e+002,3.034253e-001
7.984189e+002,6.000000e+000
8.022760e+002,8.366222e-001
8.061331e+002,4.117498e-001
8.099902e+002,-3.411130e-001
8.138473e+002,2.289093e-001
8.177044e+002,6.000000e+000
8.215615e+002,6.626493e-001
8.254186e+002,4.155506e-001
8.292757e+002,6.000000e+000
8.331328e+002,6.000000e+000
8.369899e+002,7.508623e-001
8.408470e+002,5.538647e-001
8.447041e+002,5.580585e-001
8.485612e+002,1.000120e+000
8.524183e+002,1.313086e+000
8.562754e+002,1.289676e+000
8.601324e+002,1.665003e+000
8.639896e+002,1.048016e+000
8.678467e+002,1.699996e+000
8.717037e+002,6.000000e+000
8.755609e+002,1.696698e+000
8.794180e+002,6.000000e+000
8.832750e+002,6.000000e+000
8.871321e+002,6.000000e+000
8.909893e+002,6.000000e+000
8.948463e+002,6.000000e+000
8.987034e+002,6.000000e+000
9.025605e+002,6.000000e+000
9.064176e+002,6.000000e+000
9.102747e+002,1.656871e+000
9.141318e+002,1.465910e+000
9.179889e+002,1.610604e+000
9.218461e+002,2.059429e+000
9.257031e+002,6.000000e+000
9.295602e+002,4.061601e+000
9.334174e+002,6.000000e+000
9.372744e+002,6.000000e+000
9.411315e+002,2.352747e+000
9.449886e+002,1.835482e+000
9.488457e+002,2.056157e+000
9.527028e+002,2.625683e+000
9.565599e+002,2.104858e+000
9.604170e+002,2.002559e+000
9.642740e+002,1.953969e+000
9.681312e+002,1.789835e+000
9.719883e+002,2.009232e+000
9.758453e+002,2.365579e+000
9.797025e+002,2.100035e+000
9.835596e+002,2.243462e+000
9.874166e+002,1.955919e+000
9.912738e+002,1.874949e+000
9.951309e+002,1.870567e+000
9.989879e+002,1.874010e+000
1.002845e+003,1.694730e+000
1.006702e+003,1.870389e+000
1.010559e+003,2.177918e+000
1.014416e+003,1.811488e+000
1.018273e+003,1.740590e+000
1.022130e+003,1.820373e+000
1.025988e+003,1.766321e+000
1.029845e+003,1.779437e+000
1.033702e+003,1.843528e+000
1.037559e+003,1.797195e+000
1.041416e+003,1.726673e+000
1.045273e+003,1.888664e+000
1.049130e+003,1.942263e+000
1.052987e+003,1.810203e+000
1.056844e+003,1.662411e+000
1.060702e+003,1.697296e+000
1.064559e+003,1.855150e+000
1.068416e+003,1.916766e+000
1.072273e+003,1.930626e+000
1.076130e+003,1.650269e+000
1.079987e+003,1.594451e+000
1.083844e+003,1.771418e+000
1.087701e+003,1.757560e+000
1.091558e+003,1.645516e+000
1.095415e+003,1.668523e+000
1.099272e+003,1.609907e+000
1.103130e+003,1.532526e+000
1.106987e+003,1.562836e+000
1.110844e+003,1.581838e+000
1.114701e+003,1.545226e+000
1.118558e+003,1.495931e+000
1.122415e+003,1.503387e+000
1.126272e+003,1.493245e+000
1.130129e+003,1.447012e+000
1.133986e+003,1.475629e+000
1.137843e+003,1.506895e+000
1.141701e+003,1.522212e+000
1.145558e+003,1.566904e+000
1.149415e+003,1.531640e+000
1.153272e+003,1.440428e+000
1.157129e+003,1.430425e+000
1.160986e+003,1.451771e+000
1.164843e+003,1.490752e+000
1.168700e+003,1.477871e+000
1.172557e+003,1.503121e+000
1.176414e+003,1.543391e+000
1.180271e+003,1.506666e+000
1.184129e+003,1.480400e+000
1.187986e+003,1.479090e+000
1.191843e+003,1.471397e+000
1.195700e+003,1.466342e+000
1.199557e+003,1.440038e+000
1.203414e+003,1.383185e+000
1.207271e+003,1.332841e+000
1.211128e+003,1.275415e+000
1.214985e+003,1.198034e+000
1.218842e+003,1.117620e+000
1.222699e+003,1.037696e+000
1.226557e+003,9.702755e-001
1.230414e+003,9.009665e-001
1.234271e+003,8.409536e-001
1.238128e+003,7.971648e-001
1.241985e+003,7.620956e-001
1.245842e+003,7.254622e-001
1.249699e+003,6.859067e-001
1.253556e+003,6.521429e-001
1.257413e+003,6.182518e-001
1.261271e+003,5.895343e-001
1.265128e+003,5.712885e-001
1.268985e+003,5.536595e-001
1.272842e+003,5.386336e-001
1.276699e+003,5.276763e-001
1.280556e+003,5.158404e-001
1.284413e+003,5.041592e-001
1.288270e+003,4.932852e-001
1.292127e+003,4.795073e-001
1.295984e+003,4.654447e-001
1.299841e+003,4.573874e-001
1.303698e+003,4.472449e-001
1.307556e+003,4.347756e-001
1.311413e+003,4.266937e-001
1.315270e+003,4.213417e-001
1.319127e+003,4.177938e-001
1.322984e+003,4.150573e-001
1.326841e+003,4.094950e-001
1.330698e+003,4.036894e-001
1.334555e+003,4.013973e-001
1.338412e+003,3.990795e-001
1.342270e+003,3.969919e-001
1.346127e+003,3.957110e-001
1.349984e+003,3.950997e-001
1.353841e+003,3.944587e-001
1.357698e+003,3.939718e-001
1.361555e+003,3.954156e-001
1.365412e+003,3.976164e-001
1.369269e+003,4.026704e-001
1.373126e+003,4.075277e-001
1.376983e+003,4.158570e-001
1.380840e+003,4.290563e-001
1.384698e+003,4.404443e-001
1.388555e+003,4.522626e-001
1.392412e+003,4.632731e-001
1.396269e+003,4.744158e-001
1.400126e+003,4.858902e-001
1.403983e+003,4.999494e-001
1.407840e+003,5.153111e-001
1.411697e+003,5.300565e-001
1.415554e+003,5.396599e-001
1.419411e+003,5.440431e-001
1.423269e+003,5.543194e-001
1.427126e+003,5.662858e-001
1.430983e+003,5.642869e-001
1.434840e+003,5.571538e-001
1.438697e+003,5.571255e-001
1.442554e+003,5.596167e-001
1.446411e+003,5.536314e-001
1.450268e+003,5.481399e-001
1.454125e+003,5.441578e-001
1.457982e+003,5.376673e-001
1.461839e+003,5.303736e-001
1.465697e+003,5.210665e-001
1.469554e+003,5.176175e-001
1.473411e+003,5.150254e-001
1.477268e+003,5.184263e-001
1.481125e+003,5.273764e-001
1.484982e+003,5.344906e-001
1.488839e+003,5.421656e-001
1.492696e+003,5.474296e-001
1.496553e+003,5.544603e-001
1.500411e+003,5.642838e-001
1.504268e+003,5.703219e-001
1.508125e+003,5.731706e-001
1.511982e+003,5.733036e-001
1.515839e+003,5.711495e-001
1.519696e+003,5.696615e-001
1.523553e+003,5.677770e-001
1.527410e+003,5.615920e-001
1.531267e+003,5.490146e-001
1.535124e+003,5.374540e-001
1.538981e+003,5.262398e-001
1.542839e+003,5.183119e-001
1.546696e+003,5.091054e-001
1.550553e+003,5.004960e-001
1.554410e+003,4.925789e-001
1.558267e+003,4.814572e-001
1.562124e+003,4.703355e-001
1.565981e+003,4.581749e-001
1.569838e+003,4.474908e-001
1.573695e+003,4.415545e-001
1.577552e+003,4.388160e-001
1.581410e+003,4.355851e-001
1.585267e+003,4.356968e-001
1.589124e+003,4.345741e-001
1.592981e+003,4.391574e-001
1.596838e+003,4.494126e-001
1.600695e+003,4.610434e-001
1.604552e+003,4.722666e-001
1.608409e+003,4.895238e-001
1.612266e+003,5.110765e-001
1.616123e+003,5.367671e-001
1.619980e+003,5.654802e-001
1.623838e+003,5.847834e-001
1.627695e+003,6.030832e-001
1.631552e+003,6.219193e-001
1.635409e+003,6.272736e-001
1.639266e+003,6.272129e-001
1.643123e+003,6.216146e-001
1.646980e+003,6.115469e-001
1.650837e+003,5.996888e-001
1.654694e+003,5.816602e-001
1.658551e+003,5.614796e-001
1.662409e+003,5.398579e-001
1.666266e+003,5.155234e-001
1.670123e+003,4.924077e-001
1.673980e+003,4.716407e-001
1.677837e+003,4.557406e-001
1.681694e+003,4.403429e-001
1.685551e+003,4.229663e-001
1.689408e+003,4.071620e-001
1.693265e+003,3.982237e-001
1.697122e+003,3.913012e-001
1.700979e+003,3.832224e-001
1.704837e+003,3.762988e-001
1.708694e+003,3.721461e-001
1.712551e+003,3.680978e-001
1.716408e+003,3.650572e-001
1.720265e+003,3.619516e-001
1.724122e+003,3.591596e-001
1.727979e+003,3.571777e-001
1.731836e+003,3.536283e-001
1.735693e+003,3.506509e-001
1.739550e+003,3.504865e-001
1.743408e+003,3.487101e-001
1.747265e+003,3.435641e-001
1.751122e+003,3.418066e-001
1.754979e+003,3.410358e-001
1.758836e+003,3.381936e-001
1.762693e+003,3.332327e-001
1.766550e+003,3.313990e-001
1.770407e+003,3.329347e-001
1.774264e+003,3.329743e-001
1.778121e+003,3.315022e-001
1.781979e+003,3.293675e-001
1.785836e+003,3.310804e-001
1.789693e+003,3.329438e-001
1.793550e+003,3.328239e-001
1.797407e+003,3.330041e-001
1.801264e+003,3.317383e-001
1.805121e+003,3.310055e-001
1.808978e+003,3.321921e-001
1.812835e+003,3.303317e-001
1.816692e+003,3.283944e-001
1.820549e+003,3.285611e-001
1.824407e+003,3.274325e-001
1.828264e+003,3.250136e-001
1.832121e+003,3.203042e-001
1.835978e+003,3.168305e-001
1.839835e+003,3.157852e-001
1.843692e+003,3.141407e-001
1.847549e+003,3.116360e-001
1.851406e+003,3.086588e-001
1.855263e+003,3.060281e-001
1.859120e+003,3.055397e-001
1.862978e+003,3.051059e-001
1.866835e+003,3.051800e-001
1.870692e+003,3.062271e-001
1.874549e+003,3.061445e-001
1.878406e+003,3.061533e-001
1.882263e+003,3.076603e-001
1.886120e+003,3.083811e-001
1.889977e+003,3.067685e-001
1.893834e+003,3.081634e-001
1.897691e+003,3.120937e-001
1.901548e+003,3.114487e-001
1.905406e+003,3.077082e-001
1.909263e+003,3.038009e-001
1.913120e+003,3.024935e-001
1.916977e+003,2.999002e-001
1.920834e+003,2.970417e-001
1.924691e+003,2.970563e-001
1.928548e+003,2.940650e-001
1.932405e+003,2.884442e-001
1.936262e+003,2.863136e-001
1.940119e+003,2.836201e-001
1.943977e+003,2.811193e-001
1.947834e+003,2.801054e-001
1.951691e+003,2.798900e-001
1.955548e+003,2.785225e-001
1.959405e+003,2.764470e-001
1.963262e+003,2.778147e-001
1.967119e+003,2.798204e-001
1.970976e+003,2.823547e-001
1.974833e+003,2.838963e-001
1.978690e+003,2.810461e-001
1.982547e+003,2.796770e-001
1.986405e+003,2.795959e-001
1.990262e+003,2.797162e-001
1.994119e+003,2.795142e-001
1.997976e+003,2.790620e-001
2.001833e+003,2.762764e-001
2.005690e+003,2.719134e-001
2.009547e+003,2.708218e-001
2.013404e+003,2.719216e-001
2.017261e+003,2.695298e-001
2.021118e+003,2.672440e-001
2.024976e+003,2.651426e-001
2.028833e+003,2.633396e-001
2.032690e+003,2.616609e-001
2.036547e+003,2.609355e-001
2.040404e+003,2.604027e-001
2.044261e+003,2.577597e-001
2.048118e+003,2.564964e-001
2.051975e+003,2.566085e-001
2.055832e+003,2.560604e-001
2.059689e+003,2.574300e-001
2.063546e+003,2.584336e-001
2.067404e+003,2.591168e-001
2.071261e+003,2.591092e-001
2.075118e+003,2.581508e-001
2.078975e+003,2.593330e-001
2.082832e+003,2.607548e-001
2.086689e+003,2.608453e-001
2.090546e+003,2.596826e-001
2.094403e+003,2.589947e-001
2.098260e+003,2.587061e-001
2.102117e+003,2.553018e-001
2.105975e+003,2.550120e-001
2.109832e+003,2.559243e-001
2.113689e+003,2.538129e-001
2.117546e+003,2.523280e-001
2.121403e+003,2.515882e-001
2.125260e+003,2.507853e-001
2.129117e+003,2.481678e-001
2.132974e+003,2.474215e-001
2.136831e+003,2.482499e-001
2.140688e+003,2.489524e-001
2.144545e+003,2.496898e-001
2.148403e+003,2.515992e-001
2.152260e+003,2.536079e-001
2.156117e+003,2.551916e-001
2.159974e+003,2.556537e-001
2.163831e+003,2.581463e-001
2.167688e+003,2.594945e-001
2.171545e+003,2.586420e-001
2.175402e+003,2.588050e-001
2.179259e+003,2.590363e-001
2.183116e+003,2.568525e-001
2.186974e+003,2.557129e-001
2.190831e+003,2.557720e-001
2.194688e+003,2.570035e-001
2.198545e+003,2.561025e-001
2.202402e+003,2.559968e-001
2.206259e+003,2.578003e-001
2.210116e+003,2.581705e-001
2.213973e+003,2.582780e-001
2.217830e+003,2.571030e-001
2.221688e+003,2.561082e-001
2.225544e+003,2.532082e-001
2.229402e+003,2.536459e-001
2.233259e+003,2.579684e-001
2.237116e+003,2.611126e-001
2.240973e+003,2.619284e-001
2.244830e+003,2.634286e-001
2.248687e+003,2.635947e-001
2.252544e+003,2.642748e-001
2.256401e+003,2.657239e-001
2.260258e+003,2.667980e-001
2.264115e+003,2.669044e-001
2.267973e+003,2.682056e-001
2.271830e+003,2.709237e-001
2.275687e+003,2.722538e-001
2.279544e+003,2.715459e-001
2.283401e+003,2.697228e-001
2.287258e+003,2.684929e-001
2.291115e+003,2.679975e-001
2.294972e+003,2.685109e-001
2.298829e+003,2.705441e-001
2.302687e+003,2.694018e-001
2.306543e+003,2.691056e-001
2.310401e+003,2.695886e-001
2.314258e+003,2.666023e-001
2.318115e+003,2.662949e-001
2.321972e+003,2.666535e-001
2.325829e+003,2.662429e-001
2.329686e+003,2.657413e-001
2.333543e+003,2.630009e-001
2.337400e+003,2.642842e-001
2.341257e+003,2.674406e-001
2.345115e+003,2.709127e-001
2.348972e+003,2.700537e-001
2.352829e+003,2.663562e-001
2.356686e+003,2.651662e-001
2.360543e+003,2.661498e-001
2.364400e+003,2.662327e-001
2.368257e+003,2.687468e-001
2.372114e+003,2.679901e-001
2.375971e+003,2.668360e-001
2.379828e+003,2.684793e-001
2.383686e+003,2.696970e-001
2.387542e+003,2.684563e-001
2.391400e+003,2.668886e-001
2.395257e+003,2.679563e-001
2.399114e+003,2.691336e-001
2.402971e+003,2.684839e-001
2.406828e+003,2.670202e-001
2.410685e+003,2.651562e-001
2.414542e+003,2.644296e-001
2.418399e+003,2.639019e-001
2.422256e+003,2.633631e-001
2.426114e+003,2.627738e-001
2.429971e+003,2.625989e-001
2.433828e+003,2.625453e-001
2.437685e+003,2.620077e-001
2.441542e+003,2.615406e-001
2.445399e+003,2.620311e-001
2.449256e+003,2.626982e-001
2.453113e+003,2.607542e-001
2.456970e+003,2.583356e-001
2.460827e+003,2.580225e-001
2.464684e+003,2.606175e-001
2.468542e+003,2.616742e-001
2.472399e+003,2.598527e-001
2.476256e+003,2.591002e-001
2.480113e+003,2.587734e-001
2.483970e+003,2.572546e-001
2.487827e+003,2.556895e-001
2.491684e+003,2.581835e-001
2.495541e+003,2.595360e-001
2.499398e+003,2.596908e-001
2.503255e+003,2.600292e-001
2.507113e+003,2.573222e-001
2.510969e+003,2.557344e-001
2.514827e+003,2.592396e-001
2.518684e+003,2.611966e-001
2.522541e+003,2.601114e-001
2.526398e+003,2.589570e-001
2.530255e+003,2.584485e-001
2.534112e+003,2.598141e-001
2.537969e+003,2.602284e-001
2.541826e+003,2.597485e-001
2.545683e+003,2.609024e-001
2.549541e+003,2.603331e-001
2.553398e+003,2.616933e-001
2.557255e+003,2.621456e-001
2.561112e+003,2.625788e-001
2.564969e+003,2.642646e-001
2.568826e+003,2.651826e-001
2.572683e+003,2.672320e-001
2.576540e+003,2.697063e-001
2.580397e+003,2.720324e-001
2.584254e+003,2.747230e-001
2.588112e+003,2.756562e-001
2.591969e+003,2.763268e-001
2.595826e+003,2.770441e-001
2.599683e+003,2.786262e-001
2.603540e+003,2.803434e-001
2.607397e+003,2.817720e-001
2.611254e+003,2.818419e-001
2.615111e+003,2.836505e-001
2.618968e+003,2.850614e-001
2.622825e+003,2.857192e-001
2.626682e+003,2.885267e-001
2.630540e+003,2.898374e-001
2.634397e+003,2.921883e-001
2.638254e+003,2.952806e-001
2.642111e+003,2.969925e-001
2.645968e+003,2.983283e-001
2.649825e+003,3.009474e-001
2.653682e+003,3.047029e-001
2.657539e+003,3.072299e-001
2.661396e+003,3.103440e-001
2.665253e+003,3.118885e-001
2.669111e+003,3.122226e-001
2.672968e+003,3.142013e-001
2.676825e+003,3.173345e-001
2.680682e+003,3.206155e-001
2.684539e+003,3.233314e-001
2.688396e+003,3.263855e-001
2.692253e+003,3.291027e-001
2.696110e+003,3.302767e-001
2.699967e+003,3.312066e-001
2.703824e+003,3.331880e-001
2.707681e+003,3.366142e-001
2.711539e+003,3.415532e-001
2.715396e+003,3.460152e-001
2.719253e+003,3.494902e-001
2.723110e+003,3.518433e-001
2.726967e+003,3.522399e-001
2.730824e+003,3.540750e-001
2.734681e+003,3.566602e-001
2.738538e+003,3.584852e-001
2.742395e+003,3.603080e-001
2.746252e+003,3.658989e-001
2.750110e+003,3.710478e-001
2.753967e+003,3.710876e-001
2.757824e+003,3.739302e-001
2.761681e+003,3.808423e-001
2.765538e+003,3.854346e-001
2.769395e+003,3.886140e-001
2.773252e+003,3.913211e-001
2.777109e+003,3.917841e-001
2.780966e+003,3.949070e-001
2.784823e+003,4.002060e-001
2.788680e+003,4.027968e-001
2.792538e+003,4.034089e-001
2.796395e+003,4.082704e-001
2.800252e+003,4.131908e-001
2.804109e+003,4.182810e-001
2.807966e+003,4.181832e-001
2.811823e+003,4.199735e-001
2.815680e+003,4.268292e-001
2.819537e+003,4.325789e-001
2.823394e+003,4.364913e-001
2.827251e+003,4.395235e-001
2.831109e+003,4.391876e-001
2.834966e+003,4.417013e-001
2.838823e+003,4.463539e-001
2.842680e+003,4.532651e-001
2.846537e+003,4.597649e-001
2.850394e+003,4.662760e-001
2.854251e+003,4.699549e-001
2.858108e+003,4.731861e-001
2.861965e+003,4.771184e-001
2.865823e+003,4.779703e-001
2.869679e+003,4.792649e-001
2.873537e+003,4.860522e-001
2.877394e+003,4.913704e-001
2.881251e+003,4.946717e-001
2.885108e+003,4.988401e-001
2.888965e+003,5.038279e-001
2.892822e+003,5.060784e-001
2.896679e+003,5.117631e-001
2.900536e+003,5.206122e-001
2.904393e+003,5.246155e-001
2.908250e+003,5.274655e-001
2.912108e+003,5.355902e-001
2.915965e+003,5.440573e-001
2.919822e+003,5.480371e-001
2.923679e+003,5.489029e-001
2.927536e+003,5.484775e-001
2.931393e+003,5.513485e-001
2.935250e+003,5.560970e-001
2.939107e+003,5.579656e-001
2.942964e+003,5.610895e-001
2.946822e+003,5.657708e-001
2.950678e+003,5.725749e-001
2.954536e+003,5.814760e-001
2.958393e+003,5.848475e-001
2.962250e+003,5.846567e-001
2.966107e+003,5.893848e-001
2.969964e+003,5.956196e-001
2.973821e+003,6.006765e-001
2.977678e+003,6.050246e-001
2.981535e+003,6.083547e-001
2.985392e+003,6.090569e-001
2.989250e+003,6.119347e-001
2.993107e+003,6.185269e-001
2.996964e+003,6.234151e-001
3.000821e+003,6.255948e-001
3.004678e+003,6.320440e-001
3.008535e+003,6.383660e-001
3.012392e+003,6.435639e-001
3.016249e+003,6.494256e-001
3.020106e+003,6.567552e-001
3.023963e+003,6.640096e-001
3.027821e+003,6.662170e-001
3.031677e+003,6.702951e-001
3.035535e+003,6.782576e-001
3.039392e+003,6.867144e-001
3.043249e+003,6.897573e-001
3.047106e+003,6.941934e-001
3.050963e+003,6.993669e-001
3.054820e+003,7.047652e-001
3.058677e+003,7.146541e-001
3.062534e+003,7.220657e-001
3.066391e+003,7.218485e-001
3.070249e+003,7.252992e-001
3.074106e+003,7.313555e-001
3.077963e+003,7.348111e-001
3.081820e+003,7.421656e-001
3.085677e+003,7.557635e-001
3.089534e+003,7.608074e-001
3.093391e+003,7.635574e-001
3.097248e+003,7.695217e-001
3.101105e+003,7.729428e-001
3.104962e+003,7.779990e-001
3.108820e+003,7.849844e-001
3.112677e+003,7.917322e-001
3.116534e+003,7.923642e-001
3.120391e+003,8.001305e-001
3.124248e+003,8.149530e-001
3.128105e+003,8.231403e-001
3.131962e+003,8.250326e-001
3.135819e+003,8.315516e-001
3.139676e+003,8.386284e-001
3.143533e+003,8.416454e-001
3.147390e+003,8.461831e-001
3.151248e+003,8.527751e-001
3.155105e+003,8.603508e-001
3.158962e+003,8.579754e-001
3.162819e+003,8.586410e-001
3.166676e+003,8.672951e-001
3.170533e+003,8.816680e-001
3.174390e+003,8.964569e-001
3.178247e+003,9.096833e-001
3.182104e+003,9.178738e-001
3.185961e+003,9.236631e-001
3.189819e+003,9.187646e-001
3.193676e+003,9.153783e-001
3.197533e+003,9.245017e-001
3.201390e+003,9.342433e-001
3.205247e+003,9.370603e-001
3.209104e+003,9.431584e-001
3.212961e+003,9.571716e-001
3.216818e+003,9.629244e-001
3.220675e+003,9.718480e-001
3.224532e+003,9.804693e-001
3.228389e+003,9.775568e-001
3.232247e+003,9.724789e-001
3.236104e+003,9.773684e-001
3.239961e+003,9.942450e-001
3.243818e+003,1.002608e+000
3.247675e+003,9.961481e-001
3.251532e+003,9.881293e-001
3.255389e+003,9.991603e-001
3.259246e+003,1.013728e+000
3.263103e+003,1.010080e+000
3.266960e+003,1.008882e+000
3.270818e+003,1.021557e+000
3.274675e+003,1.034134e+000
3.278532e+003,1.033305e+000
3.282389e+003,1.037881e+000
3.286246e+003,1.052374e+000
3.290103e+003,1.053126e+000
3.293960e+003,1.052598e+000
3.297817e+003,1.065342e+000
3.301674e+003,1.079362e+000
3.305531e+003,1.085869e+000
3.309388e+003,1.090921e+000
3.313246e+003,1.096024e+000
3.317103e+003,1.095082e+000
3.320960e+003,1.098336e+000
3.324817e+003,1.099039e+000
3.328674e+003,1.103097e+000
3.332531e+003,1.112528e+000
3.336388e+003,1.110793e+000
3.340245e+003,1.127513e+000
3.344102e+003,1.146621e+000
3.347959e+003,1.167934e+000
3.351817e+003,1.170182e+000
3.355674e+003,1.158828e+000
3.359531e+003,1.166101e+000
3.363388e+003,1.181790e+000
3.367245e+003,1.166960e+000
3.371102e+003,1.163727e+000
3.374959e+003,1.196238e+000
3.378816e+003,1.208899e+000
3.382673e+003,1.201979e+000
3.386530e+003,1.190671e+000
3.390387e+003,1.175148e+000
3.394245e+003,1.207319e+000
3.398102e+003,1.233650e+000
3.401959e+003,1.231496e+000
3.405816e+003,1.229768e+000
3.409673e+003,1.234310e+000
3.413530e+003,1.230263e+000
3.417387e+003,1.221756e+000
3.421244e+003,1.242904e+000
3.425101e+003,1.253811e+000
3.428958e+003,1.249111e+000
3.432815e+003,1.239919e+000
3.436673e+003,1.249771e+000
3.440530e+003,1.264281e+000
3.444387e+003,1.255766e+000
3.448244e+003,1.252986e+000
3.452101e+003,1.245696e+000
3.455958e+003,1.244777e+000
3.459815e+003,1.262110e+000
3.463672e+003,1.280576e+000
3.467529e+003,1.287153e+000
3.471386e+003,1.290523e+000
3.475244e+003,1.285703e+000
3.479101e+003,1.288608e+000
3.482958e+003,1.295402e+000
3.486815e+003,1.292311e+000
3.490672e+003,1.291033e+000
3.494529e+003,1.292011e+000
3.498386e+003,1.274744e+000
3.502243e+003,1.268069e+000
3.506100e+003,1.285788e+000
3.509958e+003,1.288245e+000
3.513814e+003,1.288522e+000
3.517672e+003,1.311381e+000
3.521529e+003,1.307618e+000
3.525386e+003,1.294504e+000
3.529243e+003,1.295044e+000
3.533100e+003,1.306308e+000
3.536957e+003,1.301704e+000
3.540814e+003,1.295972e+000
3.544671e+003,1.271763e+000
3.548528e+003,1.266737e+000
3.552385e+003,1.280577e+000
3.556243e+003,1.273402e+000
3.560100e+003,1.267312e+000
3.563957e+003,1.263512e+000
3.567814e+003,1.244806e+000
3.571671e+003,1.226861e+000
3.575528e+003,1.227835e+000
3.579385e+003,1.209689e+000
3.583242e+003,1.164748e+000
3.587099e+003,1.151650e+000
3.590957e+003,1.143638e+000
3.594813e+003,1.112839e+000
3.598671e+003,1.071706e+000
3.602528e+003,1.033823e+000
3.606385e+003,9.832893e-001
3.610242e+003,9.344119e-001
3.614099e+003,9.026990e-001
3.617956e+003,8.582408e-001
3.621813e+003,8.096477e-001
3.625670e+003,7.730769e-001
3.629527e+003,7.231244e-001
3.633385e+003,6.681392e-001
3.637242e+003,6.159071e-001
3.641099e+003,5.700216e-001
3.644956e+003,5.255941e-001
3.648813e+003,4.786837e-001
3.652670e+003,4.341000e-001
3.656527e+003,3.949966e-001
3.660384e+003,3.591427e-001
3.664241e+003,3.254382e-001
3.668098e+003,2.928989e-001
3.671956e+003,2.644938e-001
3.675813e+003,2.394928e-001
3.679670e+003,2.174712e-001
3.683527e+003,2.010958e-001
3.687384e+003,1.859587e-001
3.691241e+003,1.740103e-001
3.695098e+003,1.645578e-001
3.698955e+003,1.529487e-001
3.702812e+003,1.400101e-001
3.706669e+003,1.334856e-001
3.710526e+003,1.302374e-001
3.714384e+003,1.250055e-001
3.718241e+003,1.216722e-001
3.722098e+003,1.162017e-001
3.725955e+003,1.093049e-001
3.729812e+003,1.061567e-001
3.733669e+003,1.042754e-001
3.737526e+003,1.027537e-001
3.741383e+003,1.013937e-001
3.745240e+003,9.956498e-002
3.749097e+003,9.796496e-002
3.752955e+003,9.618896e-002
3.756812e+003,9.450959e-002
3.760669e+003,9.403737e-002
3.764526e+003,9.274538e-002
3.768383e+003,9.218218e-002
3.772240e+003,8.970661e-002
3.776097e+003,8.711991e-002
3.779954e+003,8.670229e-002
3.783811e+003,8.644742e-002
3.787668e+003,8.562755e-002
3.791525e+003,8.468583e-002
3.795383e+003,8.488798e-002
3.799240e+003,8.540735e-002
3.803097e+003,8.457459e-002
3.806954e+003,8.410825e-002
3.810811e+003,8.494366e-002
3.814668e+003,8.529418e-002
3.818525e+003,8.586115e-002
3.822382e+003,8.469920e-002
3.826239e+003,8.420718e-002
3.830096e+003,8.538730e-002
3.833954e+003,8.626147e-002
3.837811e+003,8.664663e-002
3.841668e+003,8.561669e-002
3.845525e+003,8.448912e-002
3.849382e+003,8.353232e-002
3.853239e+003,8.255421e-002
3.857096e+003,8.271500e-002
3.860953e+003,8.176253e-002
3.864810e+003,8.012789e-002
3.868667e+003,7.894523e-002
3.872524e+003,7.938311e-002
3.876382e+003,7.845231e-002
3.880239e+003,7.698476e-002
3.884096e+003,7.736629e-002
3.887953e+003,7.811429e-002
3.891810e+003,7.973613e-002
3.895667e+003,8.180233e-002
3.899524e+003,8.391932e-002
3.903381e+003,8.263884e-002
3.907238e+003,8.101892e-002
3.911095e+003,8.010614e-002
3.914953e+003,8.185086e-002
3.918810e+003,8.460861e-002
3.922667e+003,8.418221e-002
3.926524e+003,8.185489e-002
3.930381e+003,8.327809e-002
3.934238e+003,8.484194e-002
3.938095e+003,8.211085e-002
3.941952e+003,8.168802e-002
3.945809e+003,8.413604e-002
3.949667e+003,8.538298e-002
3.953523e+003,8.375318e-002
3.957381e+003,8.269235e-002
3.961238e+003,8.008900e-002
3.965095e+003,7.646948e-002
3.968952e+003,7.725964e-002
3.972809e+003,7.847347e-002
3.976666e+003,7.690019e-002
3.980523e+003,7.553776e-002
3.984380e+003,7.801205e-002
3.988237e+003,7.906228e-002
3.992094e+003,7.680856e-002
3.995952e+003,7.761803e-002
3.999809e+003,7.876291e-002
4.003666e+003,7.828571e-002
4.007523e+003,7.865095e-002
4.011380e+003,7.905652e-002
4.015237e+003,8.022235e-002
4.019094e+003,8.140102e-002
4.022951e+003,8.089672e-002
4.026808e+003,7.938828e-002
4.030666e+003,7.997459e-002
4.034522e+003,8.300629e-002
4.038380e+003,8.325778e-002
4.042237e+003,8.173081e-002
4.046094e+003,8.056217e-002
4.049951e+003,7.892247e-002
4.053808e+003,7.963749e-002
4.057665e+003,7.641803e-002
4.061522e+003,7.381213e-002
4.065379e+003,7.525874e-002
4.069236e+003,7.439202e-002
4.073094e+003,7.426042e-002
4.076951e+003,7.500648e-002
4.080808e+003,7.524459e-002
4.084665e+003,7.588787e-002
4.088522e+003,7.228497e-002
4.092379e+003,7.263548e-002
4.096236e+003,7.572174e-002
4.100093e+003,7.542580e-002
4.103950e+003,7.498048e-002
4.107808e+003,7.513306e-002
4.111665e+003,7.441035e-002
4.115521e+003,7.753860e-002
4.119379e+003,7.900716e-002
4.123236e+003,7.824770e-002
4.127093e+003,7.872280e-002
4.130950e+003,7.908995e-002
4.134807e+003,7.900243e-002
4.138664e+003,7.602344e-002
4.142521e+003,7.605613e-002
4.146378e+003,7.639599e-002
4.150235e+003,7.490733e-002
4.154093e+003,7.635822e-002
4.157950e+003,7.583366e-002
4.161807e+003,7.421989e-002
4.165664e+003,7.394242e-002
4.169521e+003,7.381535e-002
4.173378e+003,7.219732e-002
4.177235e+003,7.318447e-002
4.181092e+003,7.266767e-002
4.184949e+003,7.103337e-002
4.188807e+003,7.149212e-002
4.192664e+003,7.392164e-002
4.196521e+003,7.536822e-002
4.200378e+003,7.418322e-002
4.204235e+003,7.400626e-002
4.208092e+003,7.666954e-002
4.211949e+003,7.991277e-002
4.215806e+003,7.820687e-002
4.219663e+003,7.942404e-002
4.223521e+003,7.981855e-002
4.227377e+003,7.892946e-002
4.231234e+003,7.992572e-002
4.235092e+003,8.178185e-002
4.238949e+003,8.197749e-002
4.242806e+003,8.104492e-002
4.246663e+003,7.805064e-002
4.250520e+003,7.486355e-002
4.254377e+003,7.641215e-002
4.258234e+003,7.698781e-002
4.262091e+003,7.615045e-002
4.265948e+003,7.353390e-002
4.269806e+003,7.164602e-002
4.273663e+003,7.245320e-002
4.277520e+003,7.282168e-002
4.281377e+003,7.120604e-002
4.285234e+003,7.365900e-002
4.289091e+003,7.864654e-002
4.292948e+003,7.588815e-002
4.296805e+003,7.437252e-002
4.300662e+003,7.615108e-002
4.304520e+003,8.033563e-002
4.308376e+003,8.375519e-002
4.312233e+003,8.411469e-002
4.316091e+003,8.073891e-002
4.319948e+003,8.068070e-002
4.323805e+003,8.407475e-002
4.327662e+003,8.414360e-002
4.331519e+003,8.468289e-002
4.335376e+003,8.523152e-002
4.339233e+003,8.343783e-002
4.343090e+003,8.277257e-002
4.346947e+003,8.312254e-002
4.350805e+003,8.370268e-002
4.354662e+003,8.326797e-002
4.358519e+003,8.213174e-002
4.362376e+003,8.048699e-002
4.366233e+003,7.832476e-002
4.370090e+003,7.737762e-002
4.373947e+003,7.925074e-002
4.377804e+003,8.055452e-002
4.381661e+003,8.167230e-002
4.385519e+003,8.132333e-002
4.389375e+003,8.197957e-002
4.393232e+003,8.706488e-002
4.397090e+003,8.926643e-002
4.400947e+003,8.828077e-002
4.404804e+003,8.690669e-002
4.408661e+003,9.103897e-002
4.412518e+003,9.378503e-002
4.416375e+003,9.153625e-002
4.420232e+003,8.937449e-002
4.424089e+003,9.079779e-002
4.427946e+003,9.060434e-002
4.431804e+003,9.125420e-002
4.435661e+003,9.122419e-002
4.439518e+003,9.089373e-002
4.443375e+003,9.035014e-002
4.447232e+003,8.938548e-002
4.451089e+003,9.179102e-002
4.454946e+003,8.953664e-002
4.458803e+003,8.583370e-002
4.462660e+003,9.086011e-002
4.466518e+003,9.228253e-002
4.470375e+003,8.817847e-002
4.474231e+003,8.742531e-002
4.478089e+003,8.697449e-002
4.481946e+003,8.678742e-002
4.485803e+003,8.600435e-002
4.489660e+003,8.290104e-002
4.493517e+003,8.619710e-002
4.497375e+003,9.219308e-002
4.501231e+003,9.281226e-002
4.505088e+003,9.251006e-002
4.508946e+003,9.451598e-002
4.512803e+003,9.616356e-002
4.516660e+003,9.329863e-002
4.520517e+003,9.188809e-002
4.524374e+003,9.144729e-002
4.528231e+003,9.229593e-002
4.532088e+003,9.541621e-002
4.535945e+003,9.646741e-002
4.539802e+003,9.550744e-002
4.543660e+003,9.721147e-002
4.547517e+003,9.626893e-002
4.551374e+003,9.426739e-002
4.555231e+003,9.095252e-002
4.559088e+003,8.688592e-002
4.562945e+003,8.856184e-002
4.566802e+003,8.873069e-002
4.570659e+003,8.611443e-002
4.574516e+003,8.721634e-002
4.578374e+003,8.745327e-002
4.582230e+003,8.740018e-002
4.586087e+003,9.051128e-002
4.589945e+003,8.960213e-002
4.593802e+003,9.127256e-002
4.597659e+003,9.448270e-002
4.601516e+003,9.237736e-002
4.605373e+003,9.382746e-002
4.609230e+003,9.991763e-002
4.613087e+003,1.007706e-001
4.616944e+003,9.780730e-002
4.620801e+003,9.547362e-002
4.624659e+003,9.716456e-002
4.628516e+003,9.963042e-002
4.632373e+003,9.767314e-002
4.636230e+003,9.672716e-002
4.640087e+003,9.622794e-002
4.643944e+003,9.338170e-002
4.647801e+003,9.011118e-002
4.651658e+003,9.223328e-002
4.655515e+003,9.620550e-002
4.659373e+003,9.284717e-002
4.663229e+003,9.202563e-002
4.667086e+003,9.546950e-002
4.670944e+003,9.347619e-002
4.674801e+003,9.235372e-002
4.678658e+003,9.119987e-002
4.682515e+003,9.154754e-002
4.686372e+003,9.445444e-002
4.690229e+003,9.602214e-002
4.694086e+003,9.705281e-002
4.697943e+003,9.945665e-002
4.701800e+003,1.044157e-001
4.705658e+003,1.044714e-001
4.709515e+003,1.050291e-001
4.713372e+003,1.065997e-001
4.717229e+003,1.062491e-001
4.721086e+003,1.067815e-001
4.724943e+003,1.083468e-001
4.728800e+003,1.031886e-001
4.732657e+003,9.933519e-002
4.736514e+003,9.913473e-002
4.740372e+003,1.037670e-001
4.744229e+003,1.061067e-001
4.748085e+003,1.029954e-001
4.751943e+003,9.958332e-002
4.755800e+003,9.831730e-002
4.759657e+003,1.024700e-001
4.763514e+003,1.024118e-001
4.767371e+003,9.875057e-002
4.771228e+003,9.600321e-002
4.775085e+003,9.445181e-002
4.778942e+003,9.776185e-002
4.782799e+003,1.046938e-001
4.786657e+003,1.101478e-001
4.790514e+003,1.107519e-001
4.794371e+003,1.101771e-001
4.798228e+003,1.103326e-001
4.802085e+003,1.104428e-001
4.805942e+003,1.113520e-001
4.809799e+003,1.099864e-001
4.813656e+003,1.104209e-001
4.817513e+003,1.138950e-001
4.821371e+003,1.157832e-001
4.825228e+003,1.140501e-001
4.829084e+003,1.112473e-001
4.832942e+003,1.099471e-001
4.836799e+003,1.077608e-001
4.840656e+003,1.051031e-001
4.844513e+003,1.054623e-001
4.848370e+003,1.058044e-001
4.852227e+003,1.041830e-001
4.856084e+003,1.033487e-001
4.859941e+003,1.028900e-001
4.863798e+003,1.078863e-001
4.867656e+003,1.129731e-001
4.871513e+003,1.114076e-001
4.875370e+003,1.104424e-001
4.879227e+003,1.109798e-001
4.883084e+003,1.115577e-001
4.886941e+003,1.095338e-001
4.890798e+003,1.091356e-001
4.894655e+003,1.144620e-001
4.898512e+003,1.168376e-001
4.902370e+003,1.195167e-001
4.906227e+003,1.233119e-001
4.910083e+003,1.193932e-001
4.913941e+003,1.166567e-001
4.917798e+003,1.168307e-001
4.921655e+003,1.205758e-001
4.925512e+003,1.211671e-001
4.929369e+003,1.142725e-001
4.933226e+003,1.130801e-001
4.937083e+003,1.143818e-001
4.940940e+003,1.156515e-001
4.944797e+003,1.139838e-001
4.948655e+003,1.116775e-001
4.952512e+003,1.094726e-001
4.956369e+003,1.088278e-001
4.960226e+003,1.073260e-001
4.964083e+003,1.071768e-001
4.967940e+003,1.106597e-001
4.971797e+003,1.142710e-001
4.975654e+003,1.182124e-001
4.979511e+003,1.180067e-001
4.983369e+003,1.177625e-001
4.987226e+003,1.196384e-001
4.991083e+003,1.219247e-001
4.994940e+003,1.190745e-001
4.998797e+003,1.185436e-001
5.002654e+003,1.257444e-001
5.006511e+003,1.304748e-001
5.010368e+003,1.267511e-001
5.014225e+003,1.269368e-001
5.018083e+003,1.283268e-001
5.021939e+003,1.237740e-001
5.025796e+003,1.217042e-001
5.029654e+003,1.232779e-001
5.033511e+003,1.203373e-001
5.037368e+003,1.140634e-001
5.041225e+003,1.107868e-001
5.045082e+003,1.151340e-001
5.048939e+003,1.188234e-001
5.052796e+003,1.168903e-001
5.056653e+003,1.156717e-001
5.060510e+003,1.208138e-001
5.064368e+003,1.269246e-001
5.068225e+003,1.227827e-001
5.072082e+003,1.188364e-001
5.075939e+003,1.225826e-001
5.079796e+003,1.249313e-001
5.083653e+003,1.235775e-001
5.087510e+003,1.289750e-001
5.091367e+003,1.310189e-001
5.095224e+003,1.320436e-001
5.099082e+003,1.324113e-001
5.102938e+003,1.307745e-001
5.106795e+003,1.310958e-001
5.110653e+003,1.325705e-001
5.114510e+003,1.324017e-001
5.118367e+003,1.329802e-001
5.122224e+003,1.305713e-001
5.126081e+003,1.313642e-001
5.129938e+003,1.342691e-001
5.133795e+003,1.329976e-001
5.137652e+003,1.304851e-001
5.141509e+003,1.272069e-001
5.145367e+003,1.248631e-001
5.149224e+003,1.262602e-001
5.153081e+003,1.283903e-001
5.156938e+003,1.294316e-001
5.160795e+003,1.286981e-001
5.164652e+003,1.265394e-001
5.168509e+003,1.295266e-001
5.172366e+003,1.292043e-001
5.176223e+003,1.241823e-001
5.180081e+003,1.292445e-001
5.183938e+003,1.388303e-001
5.187794e+003,1.418332e-001
5.191652e+003,1.406071e-001
5.195509e+003,1.411125e-001
5.199366e+003,1.444745e-001
5.203223e+003,1.441814e-001
5.207080e+003,1.471670e-001
5.210937e+003,1.463608e-001
5.214794e+003,1.386507e-001
5.218651e+003,1.338746e-001
5.222508e+003,1.336103e-001
5.226366e+003,1.363798e-001
5.230223e+003,1.334666e-001
5.234080e+003,1.306044e-001
5.237937e+003,1.345030e-001
5.241794e+003,1.390765e-001
5.245651e+003,1.367025e-001
5.249508e+003,1.328393e-001
5.253365e+003,1.338546e-001
5.257222e+003,1.332501e-001
5.261080e+003,1.339375e-001
5.264937e+003,1.322043e-001
5.268793e+003,1.348232e-001
5.272651e+003,1.409221e-001
5.276508e+003,1.351956e-001
5.280365e+003,1.309969e-001
5.284222e+003,1.341118e-001
5.288079e+003,1.376635e-001
5.291936e+003,1.396269e-001
5.295793e+003,1.395486e-001
5.299650e+003,1.430517e-001
5.303507e+003,1.423259e-001
5.307365e+003,1.385016e-001
5.311222e+003,1.362499e-001
5.315079e+003,1.319153e-001
5.318936e+003,1.324281e-001
5.322793e+003,1.333537e-001
5.326650e+003,1.316984e-001
5.330507e+003,1.232195e-001
5.334364e+003,1.220410e-001
5.338221e+003,1.306779e-001
5.342079e+003,1.309003e-001
5.345936e+003,1.263065e-001
5.349792e+003,1.243637e-001
5.353650e+003,1.290941e-001
5.357507e+003,1.289815e-001
5.361364e+003,1.296779e-001
5.365221e+003,1.298223e-001
5.369078e+003,1.340879e-001
5.372935e+003,1.366909e-001
5.376792e+003,1.367555e-001
5.380649e+003,1.400495e-001
5.384506e+003,1.383050e-001
5.388364e+003,1.338627e-001
5.392221e+003,1.354253e-001
5.396078e+003,1.406259e-001
5.399935e+003,1.425952e-001
5.403792e+003,1.367316e-001
5.407649e+003,1.333624e-001
5.411506e+003,1.348316e-001
5.415363e+003,1.311865e-001
5.419220e+003,1.282683e-001
5.423078e+003,1.298129e-001
5.426935e+003,1.282096e-001
5.430792e+003,1.294396e-001
5.434649e+003,1.299591e-001
5.438506e+003,1.334729e-001
5.442363e+003,1.319328e-001
5.446220e+003,1.283603e-001
5.450077e+003,1.288298e-001
5.453934e+003,1.340027e-001
5.457792e+003,1.391330e-001
5.461648e+003,1.402189e-001
5.465505e+003,1.358221e-001
5.469363e+003,1.355075e-001
5.473220e+003,1.349968e-001
5.477077e+003,1.370500e-001
5.480934e+003,1.437082e-001
5.484791e+003,1.484264e-001
5.488648e+003,1.479818e-001
5.492505e+003,1.470179e-001
5.496362e+003,1.439139e-001
5.500219e+003,1.370875e-001
5.504077e+003,1.352194e-001
5.507934e+003,1.355423e-001
5.511791e+003,1.308609e-001
5.515648e+003,1.319553e-001
5.519505e+003,1.345610e-001
5.523362e+003,1.325888e-001
5.527219e+003,1.293052e-001
5.531076e+003,1.326315e-001
5.534933e+003,1.371215e-001
5.538791e+003,1.315377e-001
5.542647e+003,1.285846e-001
5.546504e+003,1.344253e-001
5.550362e+003,1.405291e-001
5.554219e+003,1.402501e-001
5.558076e+003,1.377144e-001
5.561933e+003,1.401123e-001
5.565790e+003,1.385823e-001
5.569647e+003,1.355702e-001
5.573504e+003,1.340685e-001
5.577361e+003,1.345708e-001
5.581218e+003,1.408545e-001
5.585076e+003,1.455892e-001
5.588933e+003,1.422630e-001
5.592790e+003,1.399606e-001
5.596647e+003,1.452072e-001
5.600504e+003,1.438887e-001
5.604361e+003,1.383847e-001
5.608218e+003,1.400725e-001
5.612075e+003,1.406245e-001
5.615932e+003,1.345144e-001
5.619790e+003,1.365823e-001
5.623646e+003,1.352642e-001
5.627503e+003,1.372966e-001
5.631361e+003,1.390492e-001
5.635218e+003,1.384739e-001
5.639075e+003,1.361076e-001
5.642932e+003,1.363202e-001
5.646789e+003,1.312896e-001
5.650646e+003,1.271601e-001
5.654503e+003,1.318044e-001
5.658360e+003,1.355177e-001
5.662217e+003,1.364964e-001
5.666075e+003,1.396773e-001
5.669932e+003,1.415901e-001
5.673789e+003,1.397936e-001
5.677646e+003,1.404079e-001
5.681503e+003,1.386397e-001
5.685360e+003,1.402877e-001
5.689217e+003,1.459537e-001
5.693074e+003,1.556787e-001
5.696931e+003,1.500780e-001
5.700789e+003,1.411067e-001
5.704646e+003,1.423398e-001
5.708502e+003,1.452679e-001
5.712360e+003,1.412109e-001
5.716217e+003,1.360985e-001
5.720074e+003,1.337989e-001
5.723931e+003,1.343830e-001
5.727788e+003,1.352860e-001
5.731645e+003,1.368766e-001
5.735502e+003,1.395200e-001
5.739359e+003,1.372957e-001
5.743216e+003,1.388725e-001
5.747074e+003,1.429449e-001
5.750931e+003,1.416784e-001
5.754788e+003,1.318551e-001
5.758645e+003,1.283960e-001
5.762502e+003,1.330567e-001
5.766359e+003,1.363593e-001
5.770216e+003,1.404883e-001
5.774073e+003,1.402010e-001
5.777930e+003,1.402411e-001
5.781788e+003,1.398228e-001
5.785645e+003,1.378546e-001
5.789501e+003,1.399403e-001
5.793359e+003,1.359522e-001
5.797216e+003,1.329326e-001
5.801073e+003,1.435533e-001
5.804930e+003,1.454223e-001
5.808787e+003,1.381459e-001
5.812644e+003,1.352634e-001
5.816501e+003,1.432831e-001
5.820358e+003,1.339463e-001
5.824215e+003,1.251973e-001
5.828073e+003,1.303084e-001
5.831930e+003,1.334107e-001
5.835787e+003,1.324522e-001
5.839644e+003,1.333111e-001
5.843501e+003,1.361195e-001
5.847358e+003,1.309212e-001
5.851215e+003,1.318379e-001
5.855072e+003,1.345020e-001
5.858929e+003,1.374806e-001
5.862787e+003,1.431393e-001
5.866644e+003,1.471914e-001
5.870500e+003,1.412462e-001
5.874358e+003,1.400197e-001
5.878215e+003,1.427246e-001
5.882072e+003,1.399589e-001
5.885929e+003,1.403605e-001
5.889786e+003,1.340196e-001
5.893643e+003,1.327109e-001
5.897500e+003,1.356827e-001
5.901357e+003,1.312000e-001
5.905214e+003,1.281790e-001
5.909072e+003,1.352120e-001
5.912929e+003,1.423911e-001
5.916786e+003,1.411847e-001
5.920643e+003,1.309197e-001
5.924500e+003,1.257777e-001
5.928357e+003,1.300087e-001
5.932214e+003,1.308112e-001
5.936071e+003,1.364358e-001
5.939928e+003,1.439940e-001
5.943786e+003,1.356539e-001
5.947643e+003,1.315360e-001
5.951500e+003,1.397908e-001
5.955357e+003,1.414682e-001
5.959214e+003,1.376383e-001
5.963071e+003,1.379837e-001
5.966928e+003,1.363369e-001
5.970785e+003,1.358095e-001
5.974642e+003,1.408729e-001
5.978500e+003,1.458998e-001
5.982356e+003,1.410488e-001
5.986213e+003,1.416900e-001
5.990071e+003,1.411669e-001
5.993928e+003,1.433581e-001
5.997785e+003,1.418183e-001
6.001642e+003,1.379576e-001
6.005499e+003,1.370431e-001
6.009356e+003,1.414782e-001
6.013213e+003,1.382730e-001
6.017070e+003,1.241980e-001
6.020927e+003,1.274844e-001
6.024785e+003,1.360449e-001
6.028642e+003,1.358884e-001
6.032499e+003,1.352452e-001
6.036356e+003,1.348605e-001
6.040213e+003,1.384405e-001
6.044070e+003,1.365866e-001
6.047927e+003,1.379631e-001
6.051784e+003,1.399927e-001
6.055641e+003,1.385753e-001
6.059499e+003,1.361437e-001
6.063355e+003,1.390167e-001
6.067212e+003,1.379653e-001
6.071070e+003,1.357371e-001
6.074927e+003,1.424908e-001
6.078784e+003,1.449003e-001
6.082641e+003,1.401853e-001
6.086498e+003,1.378108e-001
6.090355e+003,1.344386e-001
6.094212e+003,1.320692e-001
6.098069e+003,1.355918e-001
6.101926e+003,1.368305e-001
6.105784e+003,1.387724e-001
6.109641e+003,1.357862e-001
6.113498e+003,1.275570e-001
6.117355e+003,1.238182e-001
6.121212e+003,1.236877e-001
6.125069e+003,1.247032e-001
6.128926e+003,1.299517e-001
6.132783e+003,1.322778e-001
6.136640e+003,1.264842e-001
6.140498e+003,1.286492e-001
6.144354e+003,1.368823e-001
6.148211e+003,1.439582e-001
6.152069e+003,1.398609e-001
6.155926e+003,1.293952e-001
6.159783e+003,1.278242e-001
6.163640e+003,1.310079e-001
6.167497e+003,1.314729e-001
6.171354e+003,1.343557e-001
6.175211e+003,1.335854e-001
6.179068e+003,1.302280e-001
6.182925e+003,1.303197e-001
6.186783e+003,1.297250e-001
6.190640e+003,1.311439e-001
6.194497e+003,1.438096e-001
6.198354e+003,1.469723e-001
6.202211e+003,1.404122e-001
6.206068e+003,1.416562e-001
6.209925e+003,1.377947e-001
6.213782e+003,1.270797e-001
6.217639e+003,1.285257e-001
6.221497e+003,1.314778e-001
6.225354e+003,1.310939e-001
6.229210e+003,1.298731e-001
6.233068e+003,1.321279e-001
6.236925e+003,1.387658e-001
6.240782e+003,1.360800e-001
6.244639e+003,1.261438e-001
6.248496e+003,1.249496e-001
6.252353e+003,1.265384e-001
6.256210e+003,1.253960e-001
6.260067e+003,1.281067e-001
6.263924e+003,1.273024e-001
6.267782e+003,1.251902e-001
6.271639e+003,1.287025e-001
6.275496e+003,1.353197e-001
6.279353e+003,1.366451e-001
6.283210e+003,1.330771e-001
6.287067e+003,1.319379e-001
6.290924e+003,1.231136e-001
6.294781e+003,1.239693e-001
6.298638e+003,1.355058e-001
6.302496e+003,1.372274e-001
6.306353e+003,1.330787e-001
6.310209e+003,1.331154e-001
6.314067e+003,1.320174e-001
6.317924e+003,1.379320e-001
6.321781e+003,1.401349e-001
6.325638e+003,1.301657e-001
6.329495e+003,1.229482e-001
6.333352e+003,1.204600e-001
6.337209e+003,1.262161e-001
6.341066e+003,1.227161e-001
6.344923e+003,1.148348e-001
6.348780e+003,1.116602e-001
6.352638e+003,1.241457e-001
6.356495e+003,1.275628e-001
6.360352e+003,1.253563e-001
6.364209e+003,1.226462e-001
6.368066e+003,1.291776e-001
6.371923e+003,1.257609e-001
6.375780e+003,1.211711e-001
6.379637e+003,1.226143e-001
6.383494e+003,1.266277e-001
6.387352e+003,1.290792e-001
6.391208e+003,1.366214e-001
6.395065e+003,1.378686e-001
6.398923e+003,1.300492e-001
6.402780e+003,1.260208e-001
6.406637e+003,1.178813e-001
6.410494e+003,1.143912e-001
6.414351e+003,1.217943e-001
6.418208e+003,1.303813e-001
6.422065e+003,1.310746e-001
6.425922e+003,1.279220e-001
6.429779e+003,1.349692e-001
6.433637e+003,1.412069e-001
6.437494e+003,1.323436e-001
6.441351e+003,1.301019e-001
6.445208e+003,1.307399e-001
6.449065e+003,1.291396e-001
6.452922e+003,1.273437e-001
6.456779e+003,1.225776e-001
6.460636e+003,1.228727e-001
6.464493e+003,1.321459e-001
6.468351e+003,1.280801e-001
6.472208e+003,1.220666e-001
6.476064e+003,1.243647e-001
6.479922e+003,1.310377e-001
6.483779e+003,1.339233e-001
6.487636e+003,1.211283e-001
6.491493e+003,1.180107e-001
6.495350e+003,1.219911e-001
6.499207e+003,1.189754e-001
6.503064e+003,1.193094e-001
6.506921e+003,1.195826e-001
6.510778e+003,1.186001e-001
6.514636e+003,1.218856e-001
6.518493e+003,1.299625e-001
6.522350e+003,1.243025e-001
6.526207e+003,1.235535e-001
6.530064e+003,1.215135e-001
6.533921e+003,1.184803e-001
6.537778e+003,1.161177e-001
6.541635e+003,1.166491e-001
6.545492e+003,1.180630e-001
6.549350e+003,1.149089e-001
6.553207e+003,1.219899e-001
6.557063e+003,1.271790e-001
6.560921e+003,1.237926e-001
6.564778e+003,1.235628e-001
6.568635e+003,1.333623e-001
6.572492e+003,1.327614e-001
6.576349e+003,1.208854e-001
6.580206e+003,1.111543e-001
6.584063e+003,1.034459e-001
6.587920e+003,1.092414e-001
6.591777e+003,1.078828e-001
6.595635e+003,1.101134e-001
6.599492e+003,1.209161e-001
6.603349e+003,1.202182e-001
6.607206e+003,1.233944e-001
6.611063e+003,1.235001e-001
6.614920e+003,1.216429e-001
6.618777e+003,1.121681e-001
6.622634e+003,1.176338e-001
6.626491e+003,1.159818e-001
6.630349e+003,1.028269e-001
6.634206e+003,1.030045e-001
6.638063e+003,1.144574e-001
6.641920e+003,1.221530e-001
6.645777e+003,1.209666e-001
6.649634e+003,1.251585e-001
6.653491e+003,1.240764e-001
6.657348e+003,1.173079e-001
6.661205e+003,1.186498e-001
6.665063e+003,1.173279e-001
6.668919e+003,1.154868e-001
6.672776e+003,1.231824e-001
6.676634e+003,1.292379e-001
6.680491e+003,1.173550e-001
6.684348e+003,1.189862e-001
6.688205e+003,1.280828e-001
6.692062e+003,1.325384e-001
6.695919e+003,1.339808e-001
6.699776e+003,1.245565e-001
6.703633e+003,1.079633e-001
6.707490e+003,1.001107e-001
6.711348e+003,1.004763e-001
6.715205e+003,1.037975e-001
6.719062e+003,1.058005e-001
6.722919e+003,1.072583e-001
6.726776e+003,1.200139e-001
6.730633e+003,1.219711e-001
6.734490e+003,1.087609e-001
6.738347e+003,1.102301e-001
6.742204e+003,1.320834e-001
6.746062e+003,1.295443e-001
6.749918e+003,1.194345e-001
6.753775e+003,1.252919e-001
6.757633e+003,1.160401e-001
6.761490e+003,1.137197e-001
6.765347e+003,1.309860e-001
6.769204e+003,1.401818e-001
6.773061e+003,1.356840e-001
6.776918e+003,1.220987e-001
6.780775e+003,1.204415e-001
6.784632e+003,1.276937e-001
6.788489e+003,1.130910e-001
6.792347e+003,1.069586e-001
6.796204e+003,1.134072e-001
6.800061e+003,1.241062e-001
6.803918e+003,1.147636e-001
6.807775e+003,1.097889e-001
6.811632e+003,1.009302e-001
6.815489e+003,1.003931e-001
6.819346e+003,9.680503e-002
6.823203e+003,1.006544e-001
6.827061e+003,1.100326e-001
6.830917e+003,1.085139e-001
6.834774e+003,1.053884e-001
6.838632e+003,1.134458e-001
6.842489e+003,1.227201e-001
6.846346e+003,1.112704e-001
6.850203e+003,9.560066e-002
6.854060e+003,1.084703e-001
6.857917e+003,1.234322e-001
6.861774e+003,1.201592e-001
6.865631e+003,1.160169e-001
6.869488e+003,1.114566e-001
6.873346e+003,1.071428e-001
6.877203e+003,1.175519e-001
6.881060e+003,1.312960e-001
6.884917e+003,1.174769e-001
6.888774e+003,1.147220e-001
6.892631e+003,1.103431e-001
6.896488e+003,1.063665e-001
6.900345e+003,1.155612e-001
6.904202e+003,1.160095e-001
6.908060e+003,1.019608e-001
6.911917e+003,9.892567e-002
6.915773e+003,9.767285e-002
6.919631e+003,1.063897e-001
6.923488e+003,1.281248e-001
6.927345e+003,1.340500e-001
6.931202e+003,1.212505e-001
6.935059e+003,1.107934e-001
6.938916e+003,1.136285e-001
6.942773e+003,1.141988e-001
6.946630e+003,1.131196e-001
6.950487e+003,1.226854e-001
6.954345e+003,1.338331e-001
6.958202e+003,1.272304e-001
6.962059e+003,1.120024e-001
6.965916e+003,1.077679e-001
6.969773e+003,1.067273e-001
6.973630e+003,1.174087e-001
6.977487e+003,1.302507e-001
6.981344e+003,1.379948e-001
6.985201e+003,1.299610e-001
6.989059e+003,1.057559e-001
6.992916e+003,1.090148e-001
6.996772e+003,1.158986e-001
7.000630e+003,1.204026e-001
7.004487e+003,1.198942e-001
7.008344e+003,1.200238e-001
7.012201e+003,1.191672e-001
7.016058e+003,1.225707e-001
7.019915e+003,1.114115e-001
7.023772e+003,1.097795e-001
7.027629e+003,1.308475e-001
7.031486e+003,1.310521e-001
7.035344e+003,1.257918e-001
7.039201e+003,1.236608e-001
7.043058e+003,1.141743e-001
7.046915e+003,1.175415e-001
7.050772e+003,1.305896e-001
7.054629e+003,1.358458e-001
7.058486e+003,1.452545e-001
7.062343e+003,1.253105e-001
7.066200e+003,1.198955e-001
7.070058e+003,1.216197e-001
7.073915e+003,1.346831e-001
7.077771e+003,1.440407e-001
7.081629e+003,1.215782e-001
7.085486e+003,1.055056e-001
7.089343e+003,7.859503e-002
7.093200e+003,7.841290e-002
7.097057e+003,1.003897e-001
7.100914e+003,1.060019e-001
7.104771e+003,1.148175e-001
7.108628e+003,1.091736e-001
7.112485e+003,1.247570e-001
7.116343e+003,1.464610e-001
7.120200e+003,1.293284e-001
7.124057e+003,1.135088e-001
7.127914e+003,1.100638e-001
7.131771e+003,1.179509e-001
7.135628e+003,1.158625e-001
7.139485e+003,1.081296e-001
7.143342e+003,9.518142e-002
7.147199e+003,1.047239e-001
7.151057e+003,1.148292e-001
7.154914e+003,1.098071e-001
7.158771e+003,1.160618e-001
7.162628e+003,1.122414e-001
7.166485e+003,1.009063e-001
7.170342e+003,9.568095e-002
7.174199e+003,8.754689e-002
7.178056e+003,1.057987e-001
7.181913e+003,1.204093e-001
7.185771e+003,1.156574e-001
7.189627e+003,1.059871e-001
7.193484e+003,1.051561e-001
7.197342e+003,1.163629e-001
7.201199e+003,1.046606e-001
7.205056e+003,8.299842e-002
7.208913e+003,8.751670e-002
7.212770e+003,1.073522e-001
7.216627e+003,1.213609e-001
7.220484e+003,1.220652e-001
7.224341e+003,1.157095e-001
7.228198e+003,1.061492e-001
7.232056e+003,1.133329e-001
7.235913e+003,1.194430e-001
7.239770e+003,1.055672e-001
7.243627e+003,9.468028e-002
7.247484e+003,9.616390e-002
7.251341e+003,8.161660e-002
7.255198e+003,6.852606e-002
7.259055e+003,9.035896e-002
7.262912e+003,1.060485e-001
7.266770e+003,1.054107e-001
7.270626e+003,1.095078e-001
7.274483e+003,1.253155e-001
7.278341e+003,1.273595e-001
7.282198e+003,1.068492e-001
7.286055e+003,1.106399e-001
7.289912e+003,1.138213e-001
7.293769e+003,1.032783e-001
7.297626e+003,1.012720e-001
7.301483e+003,1.333486e-001
7.305340e+003,1.352526e-001
7.309197e+003,1.220577e-001
7.313055e+003,1.056560e-001
7.316912e+003,9.919085e-002
7.320769e+003,9.603669e-002
7.324626e+003,9.636422e-002
7.328483e+003,1.207014e-001
7.332340e+003,1.308233e-001
7.336197e+003,1.323544e-001
7.340054e+003,1.158139e-001
7.343911e+003,1.057581e-001
7.347769e+003,1.103221e-001
7.351625e+003,1.056499e-001
7.355482e+003,1.063899e-001
7.359340e+003,1.123528e-001
7.363197e+003,1.108058e-001
7.367054e+003,1.037484e-001
7.370911e+003,9.775837e-002
7.374768e+003,9.734479e-002
7.378625e+003,1.155736e-001
7.382482e+003,1.205498e-001
7.386339e+003,1.008629e-001
7.390196e+003,1.178113e-001
7.394054e+003,1.303405e-001
7.397911e+003,1.109755e-001
7.401768e+003,8.517960e-002
7.405625e+003,7.886771e-002
7.409482e+003,9.842057e-002
7.413339e+003,1.098480e-001
7.417196e+003,9.102777e-002
7.421053e+003,9.473076e-002
7.424910e+003,9.885852e-002
7.428768e+003,8.851255e-002
7.432625e+003,9.010755e-002
7.436481e+003,9.311285e-002
7.440339e+003,9.089455e-002
7.444196e+003,1.003399e-001
7.448053e+003,1.045979e-001
7.451910e+003,8.528212e-002
7.455767e+003,9.089055e-002
7.459624e+003,9.553687e-002
7.463481e+003,8.957981e-002
7.467338e+003,8.847283e-002
7.471195e+003,8.592185e-002
7.475053e+003,1.108044e-001
7.478910e+003,1.231889e-001
7.482767e+003,9.683141e-002
7.486624e+003,6.836648e-002
7.490481e+003,8.190490e-002
7.494338e+003,9.607604e-002
7.498195e+003,1.100447e-001
7.502052e+003,1.277209e-001
7.505909e+003,1.472699e-001
7.509767e+003,1.282741e-001
7.513624e+003,8.214692e-002
7.517480e+003,6.955929e-002
7.521338e+003,7.567520e-002
7.525195e+003,9.877224e-002
7.529052e+003,9.086424e-002
7.532909e+003,6.829811e-002
7.536766e+003,6.933150e-002
7.540623e+003,6.936345e-002
7.544480e+003,5.414515e-002
7.548337e+003,4.365325e-002
7.552194e+003,6.737535e-002
7.556052e+003,1.106977e-001
7.559909e+003,1.177167e-001
7.563766e+003,9.209939e-002
7.567623e+003,7.656677e-002
7.571480e+003,1.027480e-001
7.575337e+003,1.196989e-001
7.579194e+003,9.085117e-002
7.583051e+003,7.372743e-002
7.586908e+003,8.937827e-002
7.590766e+003,1.076367e-001
7.594623e+003,1.269837e-001
7.598479e+003,1.385571e-001
7.602337e+003,1.360106e-001
7.606194e+003,1.252939e-001
7.610051e+003,8.256984e-002
7.613908e+003,7.025574e-002
7.617765e+003,1.098252e-001
7.621622e+003,1.331873e-001
7.625479e+003,1.521071e-001
7.629336e+003,1.728145e-001
7.633193e+003,1.313899e-001
7.637051e+003,8.376190e-002
7.640908e+003,6.916808e-002
7.644765e+003,8.731320e-002
7.648622e+003,8.125381e-002
7.652479e+003,9.928708e-002
7.656336e+003,1.415073e-001
7.660193e+003,1.143686e-001
7.664050e+003,1.011519e-001
7.667907e+003,1.386952e-001
7.671765e+003,1.408547e-001
7.675622e+003,1.116366e-001
7.679479e+003,5.840027e-002
7.683336e+003,4.549011e-002
7.687193e+003,8.010411e-002
7.691050e+003,1.196771e-001
7.694907e+003,1.243869e-001
7.698764e+003,1.233645e-001
7.702621e+003,1.187267e-001
7.706479e+003,1.064135e-001
7.710335e+003,1.077136e-001
7.714192e+003,1.245909e-001
7.718050e+003,1.396733e-001
7.721907e+003,1.286739e-001
7.725764e+003,1.231742e-001
7.729621e+003,1.039425e-001
7.733478e+003,7.464083e-002
7.737335e+003,7.099997e-002
7.741192e+003,1.070305e-001
7.745049e+003,9.799190e-002
7.748906e+003,1.062856e-001
7.752764e+003,1.247505e-001
7.756621e+003,1.316525e-001
7.760478e+003,1.538077e-001
7.764335e+003,1.327626e-001
7.768192e+003,8.683428e-002
7.772049e+003,1.056614e-001
7.775906e+003,1.336085e-001
7.779763e+003,1.372911e-001
7.783620e+003,1.300644e-001
7.787478e+003,1.468713e-001
7.791334e+003,1.387058e-001
7.795191e+003,1.155422e-001
7.799049e+003,1.109672e-001
7.802906e+003,7.048129e-002
7.806763e+003,9.724517e-002
7.810620e+003,1.322192e-001
7.814477e+003,1.214364e-001
7.818334e+003,1.319852e-001
7.822191e+003,9.120371e-002
7.826048e+003,7.860655e-002
7.829905e+003,8.829848e-002
7.833763e+003,8.252131e-002
7.837620e+003,9.981208e-002
7.841477e+003,1.272757e-001
7.845334e+003,1.387947e-001
7.849191e+003,8.294106e-002
7.853048e+003,5.433778e-002
7.856905e+003,8.828740e-002
7.860762e+003,1.180108e-001
7.864619e+003,1.267579e-001
7.868477e+003,1.306252e-001
7.872333e+003,1.127309e-001
7.876190e+003,1.415561e-001
7.880048e+003,1.903531e-001
7.883905e+003,1.609931e-001
7.887762e+003,1.263084e-001
7.891619e+003,1.294191e-001
7.895476e+003,1.400612e-001
7.899333e+003,1.733067e-001
7.903190e+003,1.565263e-001
7.907047e+003,1.042231e-001
7.910904e+003,5.598911e-002
7.914762e+003,2.490348e-002
7.918619e+003,2.050667e-002
7.922476e+003,3.457190e-002
7.926333e+003,6.675092e-002
7.930190e+003,1.207298e-001
7.934047e+003,1.441997e-001
7.937904e+003,1.607632e-001
7.941761e+003,1.558202e-001
7.945618e+003,7.710813e-002
7.949476e+003,3.098723e-002
7.953333e+003,7.337008e-002
7.957189e+003,1.310258e-001
7.961047e+003,1.136749e-001
7.964904e+003,1.248980e-001
7.968761e+003,2.183818e-001
7.972618e+003,2.610282e-001
7.976475e+003,1.414066e-001
7.980332e+003,7.218417e-002
7.984189e+003,1.006528e-001
7.988046e+003,1.288485e-001
7.991903e+003,1.226632e-001
7.995761e+003,1.156796e-001
7.999618e+003,1.702918e-001
