4.011380e+002,6.000000e+000
4.049951e+002,6.000000e+000
4.088522e+002,6.000000e+000
4.127093e+002,6.000000e+000
4.165664e+002,6.000000e+000
4.204235e+002,-3.651982e-001
4.242806e+002,6.000000e+000
4.281377e+002,4.937713e-001
4.319948e+002,6.000000e+000
4.358519e+002,7.663497e-001
4.397090e+002,2.503255e-001
4.435661e+002,2.866031e-001
4.474232e+002,-4.604388e-001
4.512803e+002,6.000000e+000
4.551374e+002,-1.592440e-001
4.589945e+002,8.183313e-002
4.628516e+002,-4.423174e-002
4.667087e+002,-2.749808e-002
4.705658e+002,1.771617e-002
4.744229e+002,-1.924363e-001
4.782800e+002,6.000000e+000
4.821371e+002,6.000000e+000
4.859941e+002,6.030744e-001
4.898513e+002,-9.940562e-002
4.937083e+002,-3.483535e-001
4.975654e+002,9.783573e-002
5.014225e+002,-2.967611e-001
5.052796e+002,-3.114044e-001
5.091367e+002,-1.987646e-001
5.129938e+002,6.000000e+000
5.168509e+002,6.000000e+000
5.207080e+002,6.000000e+000
5.245651e+002,1.269819e+000
5.284222e+002,-1.462920e+000
5.322793e+002,1.406487e-001
5.361364e+002,2.980834e+000
5.399935e+002,2.945205e-001
5.438506e+002,-3.099170e-002
5.477077e+002,4.842364e-001
5.515648e+002,6.000000e+000
5.554219e+002,6.000000e+000
5.592790e+002,-3.793722e-001
5.631361e+002,6.000000e+000
5.669932e+002,-5.079370e-002
5.708503e+002,-5.653788e-001
5.747074e+002,6.000000e+000
5.785645e+002,-1.002711e+000
5.824216e+002,6.000000e+000
5.862787e+002,5.263807e-001
5.901357e+002,6.000000e+000
5.939929e+002,6.000000e+000
5.978499e+002,4.130432e-001
6.017070e+002,3.484251e-001
6.055641e+002,4.525683e-002
6.094212e+002,6.000000e+000
6.132783e+002,6.000000e+000
6.171354e+002,6.000000e+000
6.209925e+002,5.483081e-001
6.248496e+002,-3.062311e-002
6.287067e+002,6.000000e+000
6.325638e+002,6.000000e+000
6.364209e+002,1.951055e-001
6.402780e+002,6.000000e+000
6.441351e+002,6.000000e+000
6.479922e+002,-2.524648e-001
6.518493e+002,-1.936639e+000
6.557064e+002,-1.272130e-001
6.595635e+002,-1.164430e+000
6.634205e+002,6.000000e+000
6.672777e+002,6.000000e+000
6.711348e+002,6.000000e+000
6.749918e+002,2.022637e-001
6.788490e+002,1.279168e-001
6.827061e+002,6.000000e+000
6.865631e+002,-6.208855e-004
6.904203e+002,1.459909e-001
6.942773e+002,6.000000e+000
6.981344e+002,6.000000e+000
7.019916e+002,1.681690e-001
7.058486e+002,6.000000e+000
7.097057e+002,6.000000e+000
7.135629e+002,6.000000e+000
7.174199e+002,6.000000e+000
7.212770e+002,-1.500556e-001
7.251342e+002,-3.232692e-001
7.289912e+002,6.000000e+000
7.328483e+002,6.000000e+000
7.367054e+002,6.000000e+000
7.405625e+002,6.000000e+000
7.444196e+002,6.000000e+000
7.482767e+002,6.000000e+000
7.521338e+002,2.932832e-002
7.559908e+002,1.641945e-001
7.598480e+002,8.462112e-002
7.637051e+002,8.257592e-002
7.675621e+002,1.215118e-001
7.714193e+002,1.198392e-001
7.752764e+002,6.000000e+000
7.791334e+002,6.000000e+000
7.829905e+002,2.003895e-001
7.868477e+002,1.005149e+000
7.907047e+002,6.000000e+000
7.945618e+002,6.000000e+000
7.984189e+002,-8.310094e-001
8.022760e+002,4.774118e-002
8.061331e+002,5.941740e-001
8.099902e+002,6.000000e+000
8.138473e+002,5.600805e-001
8.177044e+002,1.394079e-001
8.215615e+002,2.232446e-001
8.254186e+002,8.814556e-001
8.292757e+002,6.000000e+000
8.331328e+002,6.000000e+000
8.369899e+002,6.000000e+000
8.408470e+002,6.000000e+000
8.447041e+002,6.000000e+000
8.485612e+002,6.000000e+000
8.524183e+002,6.000000e+000
8.562754e+002,1.276633e+000
8.601324e+002,1.464091e+000
8.639896e+002,6.000000e+000
8.678467e+002,6.000000e+000
8.717037e+002,6.000000e+000
8.755609e+002,6.000000e+000
8.794180e+002,6.000000e+000
8.832750e+002,6.000000e+000
8.871321e+002,6.000000e+000
8.909893e+002,2.240004e+000
8.948463e+002,1.754834e+000
8.987034e+002,1.340207e+000
9.025605e+002,1.609830e+000
9.064176e+002,6.000000e+000
9.102747e+002,6.000000e+000
9.141318e+002,6.000000e+000
9.179889e+002,6.000000e+000
9.218461e+002,6.000000e+000
9.257031e+002,2.280019e+000
9.295602e+002,1.631265e+000
9.334174e+002,1.824833e+000
9.372744e+002,1.799199e+000
9.411315e+002,2.059585e+000
9.449886e+002,1.872283e+000
9.488457e+002,1.876333e+000
9.527028e+002,3.320596e+000
9.565599e+002,6.000000e+000
9.604170e+002,6.000000e+000
9.642740e+002,3.811824e+000
9.681312e+002,2.113782e+000
9.719883e+002,1.884241e+000
9.758453e+002,1.949560e+000
9.797025e+002,2.025986e+000
9.835596e+002,1.864766e+000
9.874166e+002,2.393539e+000
9.912738e+002,6.000000e+000
9.951309e+002,6.000000e+000
9.989879e+002,2.797024e+000
1.002845e+003,2.313601e+000
1.006702e+003,2.663158e+000
1.010559e+003,2.494316e+000
1.014416e+003,2.155257e+000
1.018273e+003,1.945647e+000
1.022130e+003,1.980759e+000
1.025988e+003,2.390498e+000
1.029845e+003,2.606380e+000
1.033702e+003,2.751304e+000
1.037559e+003,2.117728e+000
1.041416e+003,1.907629e+000
1.045273e+003,2.084440e+000
1.049130e+003,2.422423e+000
1.052987e+003,2.181369e+000
1.056844e+003,2.231897e+000
1.060702e+003,6.000000e+000
1.064559e+003,6.000000e+000
1.068416e+003,6.000000e+000
1.072273e+003,2.438420e+000
1.076130e+003,2.198039e+000
1.079987e+003,2.282773e+000
1.083844e+003,2.610539e+000
1.087701e+003,2.124245e+000
1.091558e+003,2.000822e+000
1.095415e+003,2.142774e+000
1.099272e+003,1.981795e+000
1.103130e+003,1.895356e+000
1.106987e+003,2.006614e+000
1.110844e+003,2.400837e+000
1.114701e+003,2.233012e+000
1.118558e+003,1.918705e+000
1.122415e+003,1.817025e+000
1.126272e+003,1.790889e+000
1.130129e+003,1.909317e+000
1.133986e+003,1.840852e+000
1.137843e+003,1.786158e+000
1.141701e+003,1.856926e+000
1.145558e+003,1.767057e+000
1.149415e+003,1.718407e+000
1.153272e+003,1.717738e+000
1.157129e+003,1.683061e+000
1.160986e+003,1.703037e+000
1.164843e+003,1.717477e+000
1.168700e+003,1.629511e+000
1.172557e+003,1.730283e+000
1.176414e+003,1.873318e+000
1.180271e+003,1.866442e+000
1.184129e+003,1.782784e+000
1.187986e+003,1.654950e+000
1.191843e+003,1.661043e+000
1.195700e+003,1.751677e+000
1.199557e+003,1.742579e+000
1.203414e+003,1.705530e+000
1.207271e+003,1.699851e+000
1.211128e+003,1.670568e+000
1.214985e+003,1.642915e+000
1.218842e+003,1.653112e+000
1.222699e+003,1.568775e+000
1.226557e+003,1.494549e+000
1.230414e+003,1.453437e+000
1.234271e+003,1.383714e+000
1.238128e+003,1.321921e+000
1.241985e+003,1.282378e+000
1.245842e+003,1.217176e+000
1.249699e+003,1.150064e+000
1.253556e+003,1.104704e+000
1.257413e+003,1.063621e+000
1.261271e+003,1.022008e+000
1.265128e+003,9.899122e-001
1.268985e+003,9.388965e-001
1.272842e+003,8.930284e-001
1.276699e+003,8.702663e-001
1.280556e+003,8.430946e-001
1.284413e+003,8.184865e-001
1.288270e+003,8.048420e-001
1.292127e+003,7.804321e-001
1.295984e+003,7.617886e-001
1.299841e+003,7.524543e-001
1.303698e+003,7.326443e-001
1.307556e+003,7.117327e-001
1.311413e+003,6.974400e-001
1.315270e+003,6.864752e-001
1.319127e+003,6.771257e-001
1.322984e+003,6.706001e-001
1.326841e+003,6.558197e-001
1.330698e+003,6.438257e-001
1.334555e+003,6.432216e-001
1.338412e+003,6.464223e-001
1.342270e+003,6.398460e-001
1.346127e+003,6.325617e-001
1.349984e+003,6.309844e-001
1.353841e+003,6.345024e-001
1.357698e+003,6.408454e-001
1.361555e+003,6.463521e-001
1.365412e+003,6.490645e-001
1.369269e+003,6.535896e-001
1.373126e+003,6.712781e-001
1.376983e+003,6.939306e-001
1.380840e+003,7.057472e-001
1.384698e+003,7.142293e-001
1.388555e+003,7.352779e-001
1.392412e+003,7.610783e-001
1.396269e+003,7.797649e-001
1.400126e+003,8.062545e-001
1.403983e+003,8.321250e-001
1.407840e+003,8.620048e-001
1.411697e+003,8.861988e-001
1.415554e+003,8.928632e-001
1.419411e+003,9.129058e-001
1.423269e+003,9.371645e-001
1.427126e+003,9.476860e-001
1.430983e+003,9.419988e-001
1.434840e+003,9.357997e-001
1.438697e+003,9.415474e-001
1.442554e+003,9.407764e-001
1.446411e+003,9.222062e-001
1.450268e+003,8.992547e-001
1.454125e+003,8.913419e-001
1.457982e+003,8.854447e-001
1.461839e+003,8.769551e-001
1.465697e+003,8.701212e-001
1.469554e+003,8.619717e-001
1.473411e+003,8.581793e-001
1.477268e+003,8.623278e-001
1.481125e+003,8.763315e-001
1.484982e+003,8.942824e-001
1.488839e+003,9.188393e-001
1.492696e+003,9.343034e-001
1.496553e+003,9.432452e-001
1.500411e+003,9.573398e-001
1.504268e+003,9.768584e-001
1.508125e+003,9.860355e-001
1.511982e+003,9.739093e-001
1.515839e+003,9.614841e-001
1.519696e+003,9.583388e-001
1.523553e+003,9.496908e-001
1.527410e+003,9.338904e-001
1.531267e+003,9.160577e-001
1.535124e+003,8.900010e-001
1.538981e+003,8.648397e-001
1.542839e+003,8.469068e-001
1.546696e+003,8.212320e-001
1.550553e+003,7.944794e-001
1.554410e+003,7.791538e-001
1.558267e+003,7.641106e-001
1.562124e+003,7.513744e-001
1.565981e+003,7.415528e-001
1.569838e+003,7.325761e-001
1.573695e+003,7.221553e-001
1.577552e+003,7.109681e-001
1.581410e+003,7.067683e-001
1.585267e+003,7.097629e-001
1.589124e+003,7.228834e-001
1.592981e+003,7.369178e-001
1.596838e+003,7.534027e-001
1.600695e+003,7.841882e-001
1.604552e+003,8.171266e-001
1.608409e+003,8.507137e-001
1.612266e+003,9.004309e-001
1.616123e+003,9.549508e-001
1.619980e+003,1.008483e+000
1.623838e+003,1.052706e+000
1.627695e+003,1.072124e+000
1.631552e+003,1.093444e+000
1.635409e+003,1.125059e+000
1.639266e+003,1.126542e+000
1.643123e+003,1.095868e+000
1.646980e+003,1.077808e+000
1.650837e+003,1.065299e+000
1.654694e+003,1.030588e+000
1.658551e+003,9.869460e-001
1.662409e+003,9.488063e-001
1.666266e+003,9.048415e-001
1.670123e+003,8.576472e-001
1.673980e+003,8.137701e-001
1.677837e+003,7.783885e-001
1.681694e+003,7.439653e-001
1.685551e+003,7.050236e-001
1.689408e+003,6.809131e-001
1.693265e+003,6.559525e-001
1.697122e+003,6.296138e-001
1.700979e+003,6.102592e-001
1.704837e+003,5.954113e-001
1.708694e+003,5.827506e-001
1.712551e+003,5.732785e-001
1.716408e+003,5.590662e-001
1.720265e+003,5.523175e-001
1.724122e+003,5.514273e-001
1.727979e+003,5.464102e-001
1.731836e+003,5.373459e-001
1.735693e+003,5.337249e-001
1.739550e+003,5.332638e-001
1.743408e+003,5.298905e-001
1.747265e+003,5.211956e-001
1.751122e+003,5.135875e-001
1.754979e+003,5.121546e-001
1.758836e+003,5.140863e-001
1.762693e+003,5.138903e-001
1.766550e+003,5.146552e-001
1.770407e+003,5.124925e-001
1.774264e+003,5.096278e-001
1.778121e+003,5.106186e-001
1.781979e+003,5.127998e-001
1.785836e+003,5.136820e-001
1.789693e+003,5.103325e-001
1.793550e+003,5.005968e-001
1.797407e+003,4.950409e-001
1.801264e+003,4.905125e-001
1.805121e+003,4.875410e-001
1.808978e+003,4.884317e-001
1.812835e+003,4.871946e-001
1.816692e+003,4.825725e-001
1.820549e+003,4.800454e-001
1.824407e+003,4.777384e-001
1.828264e+003,4.762453e-001
1.832121e+003,4.780584e-001
1.835978e+003,4.761196e-001
1.839835e+003,4.723027e-001
1.843692e+003,4.728855e-001
1.847549e+003,4.674506e-001
1.851406e+003,4.636149e-001
1.855263e+003,4.594963e-001
1.859120e+003,4.582781e-001
1.862978e+003,4.589554e-001
1.866835e+003,4.547716e-001
1.870692e+003,4.529865e-001
1.874549e+003,4.540711e-001
1.878406e+003,4.537206e-001
1.882263e+003,4.519491e-001
1.886120e+003,4.487985e-001
1.889977e+003,4.473403e-001
1.893834e+003,4.478213e-001
1.897691e+003,4.457763e-001
1.901548e+003,4.453778e-001
1.905406e+003,4.420992e-001
1.909263e+003,4.383297e-001
1.913120e+003,4.372558e-001
1.916977e+003,4.361190e-001
1.920834e+003,4.359282e-001
1.924691e+003,4.334901e-001
1.928548e+003,4.324850e-001
1.932405e+003,4.329871e-001
1.936262e+003,4.318345e-001
1.940119e+003,4.291942e-001
1.943977e+003,4.250803e-001
1.947834e+003,4.222076e-001
1.951691e+003,4.209874e-001
1.955548e+003,4.208135e-001
1.959405e+003,4.174618e-001
1.963262e+003,4.150530e-001
1.967119e+003,4.133605e-001
1.970976e+003,4.108656e-001
1.974833e+003,4.083068e-001
1.978690e+003,4.062371e-001
1.982547e+003,4.062365e-001
1.986405e+003,4.084824e-001
1.990262e+003,4.055321e-001
1.994119e+003,4.005863e-001
1.997976e+003,3.990014e-001
2.001833e+003,4.001818e-001
2.005690e+003,4.006149e-001
2.009547e+003,4.007644e-001
2.013404e+003,3.987506e-001
2.017261e+003,3.951070e-001
2.021118e+003,3.925298e-001
2.024976e+003,3.913893e-001
2.028833e+003,3.918320e-001
2.032690e+003,3.914996e-001
2.036547e+003,3.917334e-001
2.040404e+003,3.918042e-001
2.044261e+003,3.898244e-001
2.048118e+003,3.894067e-001
2.051975e+003,3.904643e-001
2.055832e+003,3.882079e-001
2.059689e+003,3.844783e-001
2.063546e+003,3.838148e-001
2.067404e+003,3.841197e-001
2.071261e+003,3.817207e-001
2.075118e+003,3.811875e-001
2.078975e+003,3.814486e-001
2.082832e+003,3.799902e-001
2.086689e+003,3.783539e-001
2.090546e+003,3.810899e-001
2.094403e+003,3.838455e-001
2.098260e+003,3.830347e-001
2.102117e+003,3.787433e-001
2.105975e+003,3.761199e-001
2.109832e+003,3.784403e-001
2.113689e+003,3.797453e-001
2.117546e+003,3.771729e-001
2.121403e+003,3.765787e-001
2.125260e+003,3.770374e-001
2.129117e+003,3.778429e-001
2.132974e+003,3.778964e-001
2.136831e+003,3.796614e-001
2.140688e+003,3.793630e-001
2.144545e+003,3.802184e-001
2.148403e+003,3.838945e-001
2.152260e+003,3.835842e-001
2.156117e+003,3.824636e-001
2.159974e+003,3.831955e-001
2.163831e+003,3.813614e-001
2.167688e+003,3.808669e-001
2.171545e+003,3.846160e-001
2.175402e+003,3.849025e-001
2.179259e+003,3.832610e-001
2.183116e+003,3.819394e-001
2.186974e+003,3.812599e-001
2.190831e+003,3.839827e-001
2.194688e+003,3.874697e-001
2.198545e+003,3.893804e-001
2.202402e+003,3.910021e-001
2.206259e+003,3.908947e-001
2.210116e+003,3.892004e-001
2.213973e+003,3.885120e-001
2.217830e+003,3.895328e-001
2.221688e+003,3.906527e-001
2.225544e+003,3.927821e-001
2.229402e+003,3.926167e-001
2.233259e+003,3.897093e-001
2.237116e+003,3.929477e-001
2.240973e+003,3.960697e-001
2.244830e+003,3.953930e-001
2.248687e+003,3.972315e-001
2.252544e+003,3.999833e-001
2.256401e+003,4.003732e-001
2.260258e+003,4.016549e-001
2.264115e+003,4.031369e-001
2.267973e+003,4.024354e-001
2.271830e+003,4.030977e-001
2.275687e+003,4.013612e-001
2.279544e+003,3.984559e-001
2.283401e+003,4.002133e-001
2.287258e+003,4.036417e-001
2.291115e+003,4.056202e-001
2.294972e+003,4.076394e-001
2.298829e+003,4.093982e-001
2.302687e+003,4.085349e-001
2.306543e+003,4.097517e-001
2.310401e+003,4.119331e-001
2.314258e+003,4.130253e-001
2.318115e+003,4.123819e-001
2.321972e+003,4.132155e-001
2.325829e+003,4.142092e-001
2.329686e+003,4.133627e-001
2.333543e+003,4.113588e-001
2.337400e+003,4.115318e-001
2.341257e+003,4.148169e-001
2.345115e+003,4.120277e-001
2.348972e+003,4.097311e-001
2.352829e+003,4.097053e-001
2.356686e+003,4.098733e-001
2.360543e+003,4.116040e-001
2.364400e+003,4.135938e-001
2.368257e+003,4.150662e-001
2.372114e+003,4.179462e-001
2.375971e+003,4.175334e-001
2.379828e+003,4.158641e-001
2.383686e+003,4.132214e-001
2.387542e+003,4.129465e-001
2.391400e+003,4.109492e-001
2.395257e+003,4.084717e-001
2.399114e+003,4.097078e-001
2.402971e+003,4.106525e-001
2.406828e+003,4.100568e-001
2.410685e+003,4.104391e-001
2.414542e+003,4.105561e-001
2.418399e+003,4.101064e-001
2.422256e+003,4.085733e-001
2.426114e+003,4.074387e-001
2.429971e+003,4.073015e-001
2.433828e+003,4.064825e-001
2.437685e+003,4.053175e-001
2.441542e+003,4.060883e-001
2.445399e+003,4.046045e-001
2.449256e+003,4.002334e-001
2.453113e+003,3.979447e-001
2.456970e+003,3.969981e-001
2.460827e+003,3.993155e-001
2.464684e+003,4.019788e-001
2.468542e+003,3.987820e-001
2.472399e+003,3.976635e-001
2.476256e+003,4.006377e-001
2.480113e+003,4.018316e-001
2.483970e+003,4.013349e-001
2.487827e+003,4.010106e-001
2.491684e+003,4.004022e-001
2.495541e+003,3.998004e-001
2.499398e+003,3.983064e-001
2.503255e+003,3.955085e-001
2.507113e+003,3.965546e-001
2.510969e+003,3.978954e-001
2.514827e+003,3.955801e-001
2.518684e+003,3.975632e-001
2.522541e+003,4.011524e-001
2.526398e+003,4.041766e-001
2.530255e+003,4.047671e-001
2.534112e+003,4.036592e-001
2.537969e+003,4.044875e-001
2.541826e+003,4.092394e-001
2.545683e+003,4.120298e-001
2.549541e+003,4.096260e-001
2.553398e+003,4.100468e-001
2.557255e+003,4.135388e-001
2.561112e+003,4.136180e-001
2.564969e+003,4.152451e-001
2.568826e+003,4.196470e-001
2.572683e+003,4.223100e-001
2.576540e+003,4.241339e-001
2.580397e+003,4.285941e-001
2.584254e+003,4.326827e-001
2.588112e+003,4.358565e-001
2.591969e+003,4.370793e-001
2.595826e+003,4.390029e-001
2.599683e+003,4.434979e-001
2.603540e+003,4.451019e-001
2.607397e+003,4.460816e-001
2.611254e+003,4.501464e-001
2.615111e+003,4.535495e-001
2.618968e+003,4.573885e-001
2.622825e+003,4.609893e-001
2.626682e+003,4.633457e-001
2.630540e+003,4.663354e-001
2.634397e+003,4.690302e-001
2.638254e+003,4.752409e-001
2.642111e+003,4.793546e-001
2.645968e+003,4.814493e-001
2.649825e+003,4.871536e-001
2.653682e+003,4.948578e-001
2.657539e+003,4.986046e-001
2.661396e+003,5.009990e-001
2.665253e+003,5.064103e-001
2.669111e+003,5.097995e-001
2.672968e+003,5.106999e-001
2.676825e+003,5.159230e-001
2.680682e+003,5.224372e-001
2.684539e+003,5.266463e-001
2.688396e+003,5.312911e-001
2.692253e+003,5.349220e-001
2.696110e+003,5.412668e-001
2.699967e+003,5.477692e-001
2.703824e+003,5.528639e-001
2.707681e+003,5.563384e-001
2.711539e+003,5.652508e-001
2.715396e+003,5.717711e-001
2.719253e+003,5.751960e-001
2.723110e+003,5.805369e-001
2.726967e+003,5.851123e-001
2.730824e+003,5.865496e-001
2.734681e+003,5.928305e-001
2.738538e+003,5.980417e-001
2.742395e+003,6.077385e-001
2.746252e+003,6.159992e-001
2.750110e+003,6.192583e-001
2.753967e+003,6.257524e-001
2.757824e+003,6.332866e-001
2.761681e+003,6.384837e-001
2.765538e+003,6.469810e-001
2.769395e+003,6.540199e-001
2.773252e+003,6.571409e-001
2.777109e+003,6.615984e-001
2.780966e+003,6.661348e-001
2.784823e+003,6.698797e-001
2.788680e+003,6.741018e-001
2.792538e+003,6.829019e-001
2.796395e+003,6.909527e-001
2.800252e+003,6.980668e-001
2.804109e+003,7.097324e-001
2.807966e+003,7.180073e-001
2.811823e+003,7.260039e-001
2.815680e+003,7.346694e-001
2.819537e+003,7.377840e-001
2.823394e+003,7.389268e-001
2.827251e+003,7.471385e-001
2.831109e+003,7.589270e-001
2.834966e+003,7.641224e-001
2.838823e+003,7.714960e-001
2.842680e+003,7.779211e-001
2.846537e+003,7.856854e-001
2.850394e+003,7.968079e-001
2.854251e+003,8.026169e-001
2.858108e+003,8.046170e-001
2.861965e+003,8.152494e-001
2.865823e+003,8.268174e-001
2.869679e+003,8.282841e-001
2.873537e+003,8.342720e-001
2.877394e+003,8.490879e-001
2.881251e+003,8.605477e-001
2.885108e+003,8.669103e-001
2.888965e+003,8.756423e-001
2.892822e+003,8.792127e-001
2.896679e+003,8.837085e-001
2.900536e+003,9.017466e-001
2.904393e+003,9.127933e-001
2.908250e+003,9.175273e-001
2.912108e+003,9.212084e-001
2.915965e+003,9.209869e-001
2.919822e+003,9.312585e-001
2.923679e+003,9.480046e-001
2.927536e+003,9.552134e-001
2.931393e+003,9.706955e-001
2.935250e+003,9.796438e-001
2.939107e+003,9.825839e-001
2.942964e+003,9.924551e-001
2.946822e+003,1.002497e+000
2.950678e+003,1.020203e+000
2.954536e+003,1.029579e+000
2.958393e+003,1.031056e+000
2.962250e+003,1.032132e+000
2.966107e+003,1.041161e+000
2.969964e+003,1.063876e+000
2.973821e+003,1.078058e+000
2.977678e+003,1.085730e+000
2.981535e+003,1.088638e+000
2.985392e+003,1.103605e+000
2.989250e+003,1.124110e+000
2.993107e+003,1.127505e+000
2.996964e+003,1.131721e+000
3.000821e+003,1.135921e+000
3.004678e+003,1.151415e+000
3.008535e+003,1.166941e+000
3.012392e+003,1.171566e+000
3.016249e+003,1.169935e+000
3.020106e+003,1.178048e+000
3.023963e+003,1.191140e+000
3.027821e+003,1.201283e+000
3.031677e+003,1.217623e+000
3.035535e+003,1.212868e+000
3.039392e+003,1.215397e+000
3.043249e+003,1.253306e+000
3.047106e+003,1.275901e+000
3.050963e+003,1.281047e+000
3.054820e+003,1.304675e+000
3.058677e+003,1.302218e+000
3.062534e+003,1.283743e+000
3.066391e+003,1.294222e+000
3.070249e+003,1.308963e+000
3.074106e+003,1.344602e+000
3.077963e+003,1.356035e+000
3.081820e+003,1.340309e+000
3.085677e+003,1.342070e+000
3.089534e+003,1.347909e+000
3.093391e+003,1.382369e+000
3.097248e+003,1.410600e+000
3.101105e+003,1.393341e+000
3.104962e+003,1.364829e+000
3.108820e+003,1.355345e+000
3.112677e+003,1.392431e+000
3.116534e+003,1.432773e+000
3.120391e+003,1.466377e+000
3.124248e+003,1.492095e+000
3.128105e+003,1.471467e+000
3.131962e+003,1.488645e+000
3.135819e+003,1.519265e+000
3.139676e+003,1.475353e+000
3.143533e+003,1.479579e+000
3.147390e+003,1.526877e+000
3.151248e+003,1.532280e+000
3.155105e+003,1.565097e+000
3.158962e+003,1.594916e+000
3.162819e+003,1.573671e+000
3.166676e+003,1.545104e+000
3.170533e+003,1.547272e+000
3.174390e+003,1.588321e+000
3.178247e+003,1.613487e+000
3.182104e+003,1.619372e+000
3.185961e+003,1.625950e+000
3.189819e+003,1.597885e+000
3.193676e+003,1.609130e+000
3.197533e+003,1.678915e+000
3.201390e+003,1.700300e+000
3.205247e+003,1.675163e+000
3.209104e+003,1.719194e+000
3.212961e+003,1.711749e+000
3.216818e+003,1.644581e+000
3.220675e+003,1.633954e+000
3.224532e+003,1.671422e+000
3.228389e+003,1.733426e+000
3.232247e+003,1.726727e+000
3.236104e+003,1.706729e+000
3.239961e+003,1.727874e+000
3.243818e+003,1.714158e+000
3.247675e+003,1.679085e+000
3.251532e+003,1.672415e+000
3.255389e+003,1.717210e+000
3.259246e+003,1.779374e+000
3.263103e+003,1.753292e+000
3.266960e+003,1.680783e+000
3.270818e+003,1.659431e+000
3.274675e+003,1.693564e+000
3.278532e+003,1.707275e+000
3.282389e+003,1.729907e+000
3.286246e+003,1.753018e+000
3.290103e+003,1.768655e+000
3.293960e+003,1.792703e+000
3.297817e+003,1.842305e+000
3.301674e+003,1.835595e+000
3.305531e+003,1.784414e+000
3.309388e+003,1.815982e+000
3.313246e+003,1.905674e+000
3.317103e+003,1.930946e+000
3.320960e+003,1.864322e+000
3.324817e+003,1.922987e+000
3.328674e+003,1.904502e+000
3.332531e+003,1.878168e+000
3.336388e+003,1.880447e+000
3.340245e+003,1.847662e+000
3.344102e+003,1.808194e+000
3.347959e+003,1.882820e+000
3.351817e+003,1.936511e+000
3.355674e+003,1.955405e+000
3.359531e+003,1.963930e+000
3.363388e+003,2.006878e+000
3.367245e+003,1.934132e+000
3.371102e+003,1.909976e+000
3.374959e+003,1.926252e+000
3.378816e+003,1.873599e+000
3.382673e+003,1.913128e+000
3.386530e+003,1.911415e+000
3.390387e+003,1.853973e+000
3.394245e+003,1.784674e+000
3.398102e+003,1.842331e+000
3.401959e+003,1.934148e+000
3.405816e+003,1.941061e+000
3.409673e+003,1.992562e+000
3.413530e+003,1.902699e+000
3.417387e+003,1.880570e+000
3.421244e+003,1.797180e+000
3.425101e+003,1.798355e+000
3.428958e+003,1.869607e+000
3.432815e+003,1.920778e+000
3.436673e+003,1.987469e+000
3.440530e+003,2.018025e+000
3.444387e+003,1.906177e+000
3.448244e+003,1.809548e+000
3.452101e+003,1.823332e+000
3.455958e+003,1.878818e+000
3.459815e+003,1.970881e+000
3.463672e+003,1.916707e+000
3.467529e+003,1.868614e+000
3.471386e+003,1.950776e+000
3.475244e+003,2.050502e+000
3.479101e+003,2.057819e+000
3.482958e+003,2.032852e+000
3.486815e+003,1.941142e+000
3.490672e+003,1.885999e+000
3.494529e+003,1.902349e+000
3.498386e+003,1.964432e+000
3.502243e+003,1.969814e+000
3.506100e+003,1.954360e+000
3.509958e+003,2.016924e+000
3.513814e+003,2.198824e+000
3.517672e+003,2.220762e+000
3.521529e+003,1.992637e+000
3.525386e+003,1.997209e+000
3.529243e+003,2.095147e+000
3.533100e+003,2.046037e+000
3.536957e+003,1.943332e+000
3.540814e+003,1.916153e+000
3.544671e+003,1.990089e+000
3.548528e+003,2.024488e+000
3.552385e+003,1.985317e+000
3.556243e+003,1.899543e+000
3.560100e+003,1.850298e+000
3.563957e+003,1.832162e+000
3.567814e+003,1.860100e+000
3.571671e+003,1.925586e+000
3.575528e+003,1.994857e+000
3.579385e+003,2.035204e+000
3.583242e+003,1.986926e+000
3.587099e+003,1.892191e+000
3.590957e+003,1.853087e+000
3.594813e+003,1.904806e+000
3.598671e+003,1.875180e+000
3.602528e+003,1.817836e+000
3.606385e+003,1.780433e+000
3.610242e+003,1.753518e+000
3.614099e+003,1.706572e+000
3.617956e+003,1.655454e+000
3.621813e+003,1.580693e+000
3.625670e+003,1.490868e+000
3.629527e+003,1.419567e+000
3.633385e+003,1.322533e+000
3.637242e+003,1.195875e+000
3.641099e+003,1.092997e+000
3.644956e+003,1.008954e+000
3.648813e+003,9.208840e-001
3.652670e+003,8.409961e-001
3.656527e+003,7.627439e-001
3.660384e+003,6.855845e-001
3.664241e+003,6.143010e-001
3.668098e+003,5.512237e-001
3.671956e+003,4.998859e-001
3.675813e+003,4.527695e-001
3.679670e+003,4.127460e-001
3.683527e+003,3.806079e-001
3.687384e+003,3.491363e-001
3.691241e+003,3.206212e-001
3.695098e+003,2.984448e-001
3.698955e+003,2.776628e-001
3.702812e+003,2.591623e-001
3.706669e+003,2.449255e-001
3.710526e+003,2.322321e-001
3.714384e+003,2.207931e-001
3.718241e+003,2.114318e-001
3.722098e+003,2.032154e-001
3.725955e+003,1.966301e-001
3.729812e+003,1.914821e-001
3.733669e+003,1.861417e-001
3.737526e+003,1.820737e-001
3.741383e+003,1.787235e-001
3.745240e+003,1.741930e-001
3.749097e+003,1.705848e-001
3.752955e+003,1.655799e-001
3.756812e+003,1.609832e-001
3.760669e+003,1.605158e-001
3.764526e+003,1.597897e-001
3.768383e+003,1.574033e-001
3.772240e+003,1.568038e-001
3.776097e+003,1.554793e-001
3.779954e+003,1.539536e-001
3.783811e+003,1.536989e-001
3.787668e+003,1.530796e-001
3.791525e+003,1.505008e-001
3.795383e+003,1.491342e-001
3.799240e+003,1.475034e-001
3.803097e+003,1.451621e-001
3.806954e+003,1.447533e-001
3.810811e+003,1.437357e-001
3.814668e+003,1.422713e-001
3.818525e+003,1.432488e-001
3.822382e+003,1.439150e-001
3.826239e+003,1.431914e-001
3.830096e+003,1.432794e-001
3.833954e+003,1.425688e-001
3.837811e+003,1.411883e-001
3.841668e+003,1.398401e-001
3.845525e+003,1.390377e-001
3.849382e+003,1.389525e-001
3.853239e+003,1.393318e-001
3.857096e+003,1.399006e-001
3.860953e+003,1.397705e-001
3.864810e+003,1.367069e-001
3.868667e+003,1.353178e-001
3.872524e+003,1.360969e-001
3.876382e+003,1.373546e-001
3.880239e+003,1.385373e-001
3.884096e+003,1.385537e-001
3.887953e+003,1.353001e-001
3.891810e+003,1.322237e-001
3.895667e+003,1.320228e-001
3.899524e+003,1.336387e-001
3.903381e+003,1.336399e-001
3.907238e+003,1.342996e-001
3.911095e+003,1.339559e-001
3.914953e+003,1.317648e-001
3.918810e+003,1.318374e-001
3.922667e+003,1.316528e-001
3.926524e+003,1.313273e-001
3.930381e+003,1.310968e-001
3.934238e+003,1.296476e-001
3.938095e+003,1.301444e-001
3.941952e+003,1.314023e-001
3.945809e+003,1.318940e-001
3.949667e+003,1.298384e-001
3.953523e+003,1.296161e-001
3.957381e+003,1.285119e-001
3.961238e+003,1.280139e-001
3.965095e+003,1.281104e-001
3.968952e+003,1.266834e-001
3.972809e+003,1.276408e-001
3.976666e+003,1.299787e-001
3.980523e+003,1.298954e-001
3.984380e+003,1.283294e-001
3.988237e+003,1.280660e-001
3.992094e+003,1.273837e-001
3.995952e+003,1.264729e-001
3.999809e+003,1.270189e-001
4.003666e+003,1.276939e-001
4.007523e+003,1.267964e-001
4.011380e+003,1.255974e-001
4.015237e+003,1.233926e-001
4.019094e+003,1.221691e-001
4.022951e+003,1.229269e-001
4.026808e+003,1.222874e-001
4.030666e+003,1.214765e-001
4.034522e+003,1.242126e-001
4.038380e+003,1.248586e-001
4.042237e+003,1.232820e-001
4.046094e+003,1.231829e-001
4.049951e+003,1.217967e-001
4.053808e+003,1.200502e-001
4.057665e+003,1.185009e-001
4.061522e+003,1.176435e-001
4.065379e+003,1.161509e-001
4.069236e+003,1.159266e-001
4.073094e+003,1.191040e-001
4.076951e+003,1.196330e-001
4.080808e+003,1.195690e-001
4.084665e+003,1.196692e-001
4.088522e+003,1.185241e-001
4.092379e+003,1.181683e-001
4.096236e+003,1.178755e-001
4.100093e+003,1.137644e-001
4.103950e+003,1.135392e-001
4.107808e+003,1.154188e-001
4.111665e+003,1.165797e-001
4.115521e+003,1.161595e-001
4.119379e+003,1.129812e-001
4.123236e+003,1.098725e-001
4.127093e+003,1.089550e-001
4.130950e+003,1.091330e-001
4.134807e+003,1.113397e-001
4.138664e+003,1.114369e-001
4.142521e+003,1.119328e-001
4.146378e+003,1.103336e-001
4.150235e+003,1.067518e-001
4.154093e+003,1.064291e-001
4.157950e+003,1.079143e-001
4.161807e+003,1.052329e-001
4.165664e+003,1.045025e-001
4.169521e+003,1.036806e-001
4.173378e+003,1.050675e-001
4.177235e+003,1.062933e-001
4.181092e+003,1.048967e-001
4.184949e+003,1.048369e-001
4.188807e+003,1.063028e-001
4.192664e+003,1.071749e-001
4.196521e+003,1.058096e-001
4.200378e+003,1.053823e-001
4.204235e+003,1.066776e-001
4.208092e+003,1.068344e-001
4.211949e+003,1.050776e-001
4.215806e+003,1.045287e-001
4.219663e+003,1.022085e-001
4.223521e+003,1.022919e-001
4.227377e+003,1.035664e-001
4.231234e+003,1.013765e-001
4.235092e+003,1.014706e-001
4.238949e+003,1.030607e-001
4.242806e+003,1.013059e-001
4.246663e+003,9.962621e-002
4.250520e+003,1.007022e-001
4.254377e+003,1.029747e-001
4.258234e+003,1.043804e-001
4.262091e+003,1.015452e-001
4.265948e+003,9.727439e-002
4.269806e+003,9.958623e-002
4.273663e+003,1.009101e-001
4.277520e+003,9.911616e-002
4.281377e+003,9.890969e-002
4.285234e+003,1.014350e-001
4.289091e+003,9.950877e-002
4.292948e+003,9.702993e-002
4.296805e+003,9.660798e-002
4.300662e+003,9.812603e-002
4.304520e+003,9.970852e-002
4.308376e+003,9.888448e-002
4.312233e+003,9.864518e-002
4.316091e+003,9.950698e-002
4.319948e+003,1.016675e-001
4.323805e+003,1.034767e-001
4.327662e+003,1.004818e-001
4.331519e+003,1.016941e-001
4.335376e+003,1.040992e-001
4.339233e+003,1.033487e-001
4.343090e+003,1.022497e-001
4.346947e+003,1.030834e-001
4.350805e+003,1.036169e-001
4.354662e+003,1.034256e-001
4.358519e+003,1.049671e-001
4.362376e+003,1.052960e-001
4.366233e+003,1.080359e-001
4.370090e+003,1.090974e-001
4.373947e+003,1.075253e-001
4.377804e+003,1.059425e-001
4.381661e+003,1.052873e-001
4.385519e+003,1.034586e-001
4.389375e+003,1.036171e-001
4.393232e+003,1.057759e-001
4.397090e+003,1.031077e-001
4.400947e+003,9.966546e-002
4.404804e+003,1.037507e-001
4.408661e+003,1.089011e-001
4.412518e+003,1.106297e-001
4.416375e+003,1.065118e-001
4.420232e+003,1.050002e-001
4.424089e+003,1.062577e-001
4.427946e+003,1.061646e-001
4.431804e+003,1.043875e-001
4.435661e+003,1.068699e-001
4.439518e+003,1.084501e-001
4.443375e+003,1.087612e-001
4.447232e+003,1.102776e-001
4.451089e+003,1.104711e-001
4.454946e+003,1.060985e-001
4.458803e+003,1.034087e-001
4.462660e+003,1.026928e-001
4.466518e+003,1.057412e-001
4.470375e+003,1.114184e-001
4.474231e+003,1.130565e-001
4.478089e+003,1.096495e-001
4.481946e+003,1.095532e-001
4.485803e+003,1.105780e-001
4.489660e+003,1.102990e-001
4.493517e+003,1.112164e-001
4.497375e+003,1.143407e-001
4.501231e+003,1.143936e-001
4.505088e+003,1.091958e-001
4.508946e+003,1.071099e-001
4.512803e+003,1.127771e-001
4.516660e+003,1.145848e-001
4.520517e+003,1.140236e-001
4.524374e+003,1.130726e-001
4.528231e+003,1.098489e-001
4.532088e+003,1.084705e-001
4.535945e+003,1.100660e-001
4.539802e+003,1.067343e-001
4.543660e+003,1.030834e-001
4.547517e+003,1.036249e-001
4.551374e+003,1.050915e-001
4.555231e+003,1.055684e-001
4.559088e+003,1.049569e-001
4.562945e+003,1.035589e-001
4.566802e+003,1.011163e-001
4.570659e+003,9.945177e-002
4.574516e+003,1.019667e-001
4.578374e+003,1.052607e-001
4.582230e+003,1.064286e-001
4.586087e+003,1.043767e-001
4.589945e+003,1.014620e-001
4.593802e+003,1.033081e-001
4.597659e+003,1.057469e-001
4.601516e+003,1.036885e-001
4.605373e+003,9.986354e-002
4.609230e+003,1.004897e-001
4.613087e+003,1.026057e-001
4.616944e+003,1.044910e-001
4.620801e+003,1.047781e-001
4.624659e+003,1.055928e-001
4.628516e+003,1.089799e-001
4.632373e+003,1.087793e-001
4.636230e+003,1.058100e-001
4.640087e+003,1.061279e-001
4.643944e+003,1.027265e-001
4.647801e+003,1.008495e-001
4.651658e+003,1.042901e-001
4.655515e+003,1.050151e-001
4.659373e+003,1.060894e-001
4.663229e+003,1.085550e-001
4.667086e+003,1.072883e-001
4.670944e+003,1.061284e-001
4.674801e+003,1.053232e-001
4.678658e+003,1.068637e-001
4.682515e+003,1.062989e-001
4.686372e+003,1.041778e-001
4.690229e+003,1.055662e-001
4.694086e+003,1.071826e-001
4.697943e+003,1.095895e-001
4.701800e+003,1.139789e-001
4.705658e+003,1.135243e-001
4.709515e+003,1.088511e-001
4.713372e+003,1.066029e-001
4.717229e+003,1.058263e-001
4.721086e+003,1.051346e-001
4.724943e+003,1.079134e-001
4.728800e+003,1.122096e-001
4.732657e+003,1.135934e-001
4.736514e+003,1.087012e-001
4.740372e+003,1.076303e-001
4.744229e+003,1.133657e-001
4.748085e+003,1.115514e-001
4.751943e+003,1.067267e-001
4.755800e+003,1.100348e-001
4.759657e+003,1.130094e-001
4.763514e+003,1.157473e-001
4.767371e+003,1.126486e-001
4.771228e+003,1.112743e-001
4.775085e+003,1.139127e-001
4.778942e+003,1.167598e-001
4.782799e+003,1.148189e-001
4.786657e+003,1.093479e-001
4.790514e+003,1.056628e-001
4.794371e+003,1.098538e-001
4.798228e+003,1.131492e-001
4.802085e+003,1.096079e-001
4.805942e+003,1.061710e-001
4.809799e+003,1.078983e-001
4.813656e+003,1.116378e-001
4.817513e+003,1.130357e-001
4.821371e+003,1.170271e-001
4.825228e+003,1.166595e-001
4.829084e+003,1.140116e-001
4.832942e+003,1.181320e-001
4.836799e+003,1.164045e-001
4.840656e+003,1.088688e-001
4.844513e+003,1.084285e-001
4.848370e+003,1.148837e-001
4.852227e+003,1.193423e-001
4.856084e+003,1.187239e-001
4.859941e+003,1.167038e-001
4.863798e+003,1.177722e-001
4.867656e+003,1.220966e-001
4.871513e+003,1.203496e-001
4.875370e+003,1.174661e-001
4.879227e+003,1.172602e-001
4.883084e+003,1.209417e-001
4.886941e+003,1.238384e-001
4.890798e+003,1.219224e-001
4.894655e+003,1.209386e-001
4.898512e+003,1.229182e-001
4.902370e+003,1.224705e-001
4.906227e+003,1.213316e-001
4.910083e+003,1.225554e-001
4.913941e+003,1.224390e-001
4.917798e+003,1.242123e-001
4.921655e+003,1.244422e-001
4.925512e+003,1.219344e-001
4.929369e+003,1.203965e-001
4.933226e+003,1.223070e-001
4.937083e+003,1.266176e-001
4.940940e+003,1.281050e-001
4.944797e+003,1.242379e-001
4.948655e+003,1.224018e-001
4.952512e+003,1.235092e-001
4.956369e+003,1.263240e-001
4.960226e+003,1.270519e-001
4.964083e+003,1.223521e-001
4.967940e+003,1.196341e-001
4.971797e+003,1.228618e-001
4.975654e+003,1.310496e-001
4.979511e+003,1.302093e-001
4.983369e+003,1.224732e-001
4.987226e+003,1.227943e-001
4.991083e+003,1.247659e-001
4.994940e+003,1.252892e-001
4.998797e+003,1.299128e-001
5.002654e+003,1.312442e-001
5.006511e+003,1.314687e-001
5.010368e+003,1.332430e-001
5.014225e+003,1.324412e-001
5.018083e+003,1.281163e-001
5.021939e+003,1.308676e-001
5.025796e+003,1.318001e-001
5.029654e+003,1.277408e-001
5.033511e+003,1.312610e-001
5.037368e+003,1.358939e-001
5.041225e+003,1.386250e-001
5.045082e+003,1.383840e-001
5.048939e+003,1.346250e-001
5.052796e+003,1.333166e-001
5.056653e+003,1.365979e-001
5.060510e+003,1.382181e-001
5.064368e+003,1.382272e-001
5.068225e+003,1.420208e-001
5.072082e+003,1.388652e-001
5.075939e+003,1.383261e-001
5.079796e+003,1.390517e-001
5.083653e+003,1.343293e-001
5.087510e+003,1.287948e-001
5.091367e+003,1.318036e-001
5.095224e+003,1.382139e-001
5.099082e+003,1.431727e-001
5.102938e+003,1.432199e-001
5.106795e+003,1.413331e-001
5.110653e+003,1.412874e-001
5.114510e+003,1.382784e-001
5.118367e+003,1.407682e-001
5.122224e+003,1.488156e-001
5.126081e+003,1.542978e-001
5.129938e+003,1.504270e-001
5.133795e+003,1.483407e-001
5.137652e+003,1.474634e-001
5.141509e+003,1.450972e-001
5.145367e+003,1.446219e-001
5.149224e+003,1.454184e-001
5.153081e+003,1.530372e-001
5.156938e+003,1.508188e-001
5.160795e+003,1.397038e-001
5.164652e+003,1.448961e-001
5.168509e+003,1.540786e-001
5.172366e+003,1.509671e-001
5.176223e+003,1.532338e-001
5.180081e+003,1.568201e-001
5.183938e+003,1.537968e-001
5.187794e+003,1.500592e-001
5.191652e+003,1.495708e-001
5.195509e+003,1.562866e-001
5.199366e+003,1.591170e-001
5.203223e+003,1.573857e-001
5.207080e+003,1.535293e-001
5.210937e+003,1.521697e-001
5.214794e+003,1.524041e-001
5.218651e+003,1.522959e-001
5.222508e+003,1.516855e-001
5.226366e+003,1.564333e-001
5.230223e+003,1.560442e-001
5.234080e+003,1.525442e-001
5.237937e+003,1.533913e-001
5.241794e+003,1.520268e-001
5.245651e+003,1.522626e-001
5.249508e+003,1.488325e-001
5.253365e+003,1.489098e-001
5.257222e+003,1.507517e-001
5.261080e+003,1.485239e-001
5.264937e+003,1.442730e-001
5.268793e+003,1.386030e-001
5.272651e+003,1.429303e-001
5.276508e+003,1.456625e-001
5.280365e+003,1.372886e-001
5.284222e+003,1.403060e-001
5.288079e+003,1.487986e-001
5.291936e+003,1.442975e-001
5.295793e+003,1.424347e-001
5.299650e+003,1.468419e-001
5.303507e+003,1.458183e-001
5.307365e+003,1.457511e-001
5.311222e+003,1.493973e-001
5.315079e+003,1.522119e-001
5.318936e+003,1.426942e-001
5.322793e+003,1.384795e-001
5.326650e+003,1.401269e-001
5.330507e+003,1.380658e-001
5.334364e+003,1.414356e-001
5.338221e+003,1.439944e-001
5.342079e+003,1.425280e-001
5.345936e+003,1.386390e-001
5.349792e+003,1.414348e-001
5.353650e+003,1.433920e-001
5.357507e+003,1.450882e-001
5.361364e+003,1.475228e-001
5.365221e+003,1.468846e-001
5.369078e+003,1.481062e-001
5.372935e+003,1.456805e-001
5.376792e+003,1.427117e-001
5.380649e+003,1.398186e-001
5.384506e+003,1.403972e-001
5.388364e+003,1.408859e-001
5.392221e+003,1.367660e-001
5.396078e+003,1.336361e-001
5.399935e+003,1.365880e-001
5.403792e+003,1.444039e-001
5.407649e+003,1.498728e-001
5.411506e+003,1.475776e-001
5.415363e+003,1.482329e-001
5.419220e+003,1.485108e-001
5.423078e+003,1.493678e-001
5.426935e+003,1.486815e-001
5.430792e+003,1.445125e-001
5.434649e+003,1.421832e-001
5.438506e+003,1.429527e-001
5.442363e+003,1.447289e-001
5.446220e+003,1.419695e-001
5.450077e+003,1.439203e-001
5.453934e+003,1.513336e-001
5.457792e+003,1.551160e-001
5.461648e+003,1.515898e-001
5.465505e+003,1.484474e-001
5.469363e+003,1.529263e-001
5.473220e+003,1.588586e-001
5.477077e+003,1.596588e-001
5.480934e+003,1.565936e-001
5.484791e+003,1.491672e-001
5.488648e+003,1.411151e-001
5.492505e+003,1.453134e-001
5.496362e+003,1.544328e-001
5.500219e+003,1.535506e-001
5.504077e+003,1.489332e-001
5.507934e+003,1.481609e-001
5.511791e+003,1.525400e-001
5.515648e+003,1.517886e-001
5.519505e+003,1.466670e-001
5.523362e+003,1.493752e-001
5.527219e+003,1.528668e-001
5.531076e+003,1.547830e-001
5.534933e+003,1.521074e-001
5.538791e+003,1.524231e-001
5.542647e+003,1.549148e-001
5.546504e+003,1.536361e-001
5.550362e+003,1.533799e-001
5.554219e+003,1.570327e-001
5.558076e+003,1.544546e-001
5.561933e+003,1.497636e-001
5.565790e+003,1.536764e-001
5.569647e+003,1.590541e-001
5.573504e+003,1.600041e-001
5.577361e+003,1.570767e-001
5.581218e+003,1.514166e-001
5.585076e+003,1.493915e-001
5.588933e+003,1.519052e-001
5.592790e+003,1.561245e-001
5.596647e+003,1.566111e-001
5.600504e+003,1.556051e-001
5.604361e+003,1.498556e-001
5.608218e+003,1.482778e-001
5.612075e+003,1.514159e-001
5.615932e+003,1.541817e-001
5.619790e+003,1.535776e-001
5.623646e+003,1.506464e-001
5.627503e+003,1.512075e-001
5.631361e+003,1.590500e-001
5.635218e+003,1.628073e-001
5.639075e+003,1.571448e-001
5.642932e+003,1.556062e-001
5.646789e+003,1.599962e-001
5.650646e+003,1.635548e-001
5.654503e+003,1.561298e-001
5.658360e+003,1.513456e-001
5.662217e+003,1.566504e-001
5.666075e+003,1.614288e-001
5.669932e+003,1.627107e-001
5.673789e+003,1.590517e-001
5.677646e+003,1.561316e-001
5.681503e+003,1.537052e-001
5.685360e+003,1.552278e-001
5.689217e+003,1.586819e-001
5.693074e+003,1.603104e-001
5.696931e+003,1.677740e-001
5.700789e+003,1.662834e-001
5.704646e+003,1.578754e-001
5.708502e+003,1.545980e-001
5.712360e+003,1.586911e-001
5.716217e+003,1.662842e-001
5.720074e+003,1.632467e-001
5.723931e+003,1.621345e-001
5.727788e+003,1.609545e-001
5.731645e+003,1.580524e-001
5.735502e+003,1.572150e-001
5.739359e+003,1.584313e-001
5.743216e+003,1.608691e-001
5.747074e+003,1.595377e-001
5.750931e+003,1.552794e-001
5.754788e+003,1.553509e-001
5.758645e+003,1.586231e-001
5.762502e+003,1.614681e-001
5.766359e+003,1.561588e-001
5.770216e+003,1.553983e-001
5.774073e+003,1.654890e-001
5.777930e+003,1.660920e-001
5.781788e+003,1.584337e-001
5.785645e+003,1.591768e-001
5.789501e+003,1.664096e-001
5.793359e+003,1.665632e-001
5.797216e+003,1.593393e-001
5.801073e+003,1.552221e-001
5.804930e+003,1.575938e-001
5.808787e+003,1.597788e-001
5.812644e+003,1.628513e-001
5.816501e+003,1.608620e-001
5.820358e+003,1.577546e-001
5.824215e+003,1.543476e-001
5.828073e+003,1.592486e-001
5.831930e+003,1.679838e-001
5.835787e+003,1.660388e-001
5.839644e+003,1.608871e-001
5.843501e+003,1.676848e-001
5.847358e+003,1.692703e-001
5.851215e+003,1.607576e-001
5.855072e+003,1.571887e-001
5.858929e+003,1.604789e-001
5.862787e+003,1.643655e-001
5.866644e+003,1.699296e-001
5.870500e+003,1.632604e-001
5.874358e+003,1.632272e-001
5.878215e+003,1.693122e-001
5.882072e+003,1.723875e-001
5.885929e+003,1.687300e-001
5.889786e+003,1.687981e-001
5.893643e+003,1.655101e-001
5.897500e+003,1.579433e-001
5.901357e+003,1.559956e-001
5.905214e+003,1.592879e-001
5.909072e+003,1.605673e-001
5.912929e+003,1.567652e-001
5.916786e+003,1.573412e-001
5.920643e+003,1.646341e-001
5.924500e+003,1.658716e-001
5.928357e+003,1.639371e-001
5.932214e+003,1.656806e-001
5.936071e+003,1.693577e-001
5.939928e+003,1.734486e-001
5.943786e+003,1.647921e-001
5.947643e+003,1.606475e-001
5.951500e+003,1.637943e-001
5.955357e+003,1.668830e-001
5.959214e+003,1.622650e-001
5.963071e+003,1.616657e-001
5.966928e+003,1.709127e-001
5.970785e+003,1.740286e-001
5.974642e+003,1.651101e-001
5.978500e+003,1.592357e-001
5.982356e+003,1.626307e-001
5.986213e+003,1.610912e-001
5.990071e+003,1.625649e-001
5.993928e+003,1.670813e-001
5.997785e+003,1.659328e-001
6.001642e+003,1.679510e-001
6.005499e+003,1.679393e-001
6.009356e+003,1.687335e-001
6.013213e+003,1.760037e-001
6.017070e+003,1.717693e-001
6.020927e+003,1.632065e-001
6.024785e+003,1.690034e-001
6.028642e+003,1.710607e-001
6.032499e+003,1.717793e-001
6.036356e+003,1.713911e-001
6.040213e+003,1.572630e-001
6.044070e+003,1.549283e-001
6.047927e+003,1.589172e-001
6.051784e+003,1.615074e-001
6.055641e+003,1.584979e-001
6.059499e+003,1.639208e-001
6.063355e+003,1.754885e-001
6.067212e+003,1.758453e-001
6.071070e+003,1.714262e-001
6.074927e+003,1.674236e-001
6.078784e+003,1.590704e-001
6.082641e+003,1.649345e-001
6.086498e+003,1.690360e-001
6.090355e+003,1.558790e-001
6.094212e+003,1.548108e-001
6.098069e+003,1.700127e-001
6.101926e+003,1.739334e-001
6.105784e+003,1.661307e-001
6.109641e+003,1.648025e-001
6.113498e+003,1.710059e-001
6.117355e+003,1.724669e-001
6.121212e+003,1.683774e-001
6.125069e+003,1.645838e-001
6.128926e+003,1.670640e-001
6.132783e+003,1.690641e-001
6.136640e+003,1.696217e-001
6.140498e+003,1.620994e-001
6.144354e+003,1.590353e-001
6.148211e+003,1.694429e-001
6.152069e+003,1.734179e-001
6.155926e+003,1.663094e-001
6.159783e+003,1.721434e-001
6.163640e+003,1.797873e-001
6.167497e+003,1.777586e-001
6.171354e+003,1.713838e-001
6.175211e+003,1.691852e-001
6.179068e+003,1.715152e-001
6.182925e+003,1.698245e-001
6.186783e+003,1.729736e-001
6.190640e+003,1.783032e-001
6.194497e+003,1.724656e-001
6.198354e+003,1.735451e-001
6.202211e+003,1.789967e-001
6.206068e+003,1.752025e-001
6.209925e+003,1.722233e-001
6.213782e+003,1.724581e-001
6.217639e+003,1.701257e-001
6.221497e+003,1.701608e-001
6.225354e+003,1.684946e-001
6.229210e+003,1.654103e-001
6.233068e+003,1.690574e-001
6.236925e+003,1.678588e-001
6.240782e+003,1.600744e-001
6.244639e+003,1.631951e-001
6.248496e+003,1.689265e-001
6.252353e+003,1.704872e-001
6.256210e+003,1.677639e-001
6.260067e+003,1.635691e-001
6.263924e+003,1.517810e-001
6.267782e+003,1.510800e-001
6.271639e+003,1.710311e-001
6.275496e+003,1.802639e-001
6.279353e+003,1.685535e-001
6.283210e+003,1.632528e-001
6.287067e+003,1.776857e-001
6.290924e+003,1.815486e-001
6.294781e+003,1.683152e-001
6.298638e+003,1.671370e-001
6.302496e+003,1.791593e-001
6.306353e+003,1.874366e-001
6.310209e+003,1.797606e-001
6.314067e+003,1.691351e-001
6.317924e+003,1.665128e-001
6.321781e+003,1.710963e-001
6.325638e+003,1.673329e-001
6.329495e+003,1.610259e-001
6.333352e+003,1.664064e-001
6.337209e+003,1.756556e-001
6.341066e+003,1.748029e-001
6.344923e+003,1.728719e-001
6.348780e+003,1.777160e-001
6.352638e+003,1.738548e-001
6.356495e+003,1.653078e-001
6.360352e+003,1.618998e-001
6.364209e+003,1.619658e-001
6.368066e+003,1.670212e-001
6.371923e+003,1.635724e-001
6.375780e+003,1.656646e-001
6.379637e+003,1.791291e-001
6.383494e+003,1.854536e-001
6.387352e+003,1.747096e-001
6.391208e+003,1.713907e-001
6.395065e+003,1.717417e-001
6.398923e+003,1.696504e-001
6.402780e+003,1.735122e-001
6.406637e+003,1.818123e-001
6.410494e+003,1.811739e-001
6.414351e+003,1.822819e-001
6.418208e+003,1.819133e-001
6.422065e+003,1.799636e-001
6.425922e+003,1.806273e-001
6.429779e+003,1.691369e-001
6.433637e+003,1.697254e-001
6.437494e+003,1.677167e-001
6.441351e+003,1.633001e-001
6.445208e+003,1.607024e-001
6.449065e+003,1.736106e-001
6.452922e+003,1.754814e-001
6.456779e+003,1.752460e-001
6.460636e+003,1.810884e-001
6.464493e+003,1.767088e-001
6.468351e+003,1.756015e-001
6.472208e+003,1.679540e-001
6.476064e+003,1.659225e-001
6.479922e+003,1.844200e-001
6.483779e+003,1.779801e-001
6.487636e+003,1.657013e-001
6.491493e+003,1.728855e-001
6.495350e+003,1.775831e-001
6.499207e+003,1.920848e-001
6.503064e+003,1.919032e-001
6.506921e+003,1.778676e-001
6.510778e+003,1.808645e-001
6.514636e+003,1.950300e-001
6.518493e+003,1.919626e-001
6.522350e+003,1.854081e-001
6.526207e+003,1.967539e-001
6.530064e+003,1.882904e-001
6.533921e+003,1.694173e-001
6.537778e+003,1.694125e-001
6.541635e+003,1.742260e-001
6.545492e+003,1.694809e-001
6.549350e+003,1.784663e-001
6.553207e+003,1.884398e-001
6.557063e+003,1.940396e-001
6.560921e+003,1.921158e-001
6.564778e+003,1.698561e-001
6.568635e+003,1.614856e-001
6.572492e+003,1.710323e-001
6.576349e+003,1.783871e-001
6.580206e+003,1.761917e-001
6.584063e+003,1.791871e-001
6.587920e+003,1.916147e-001
6.591777e+003,1.964437e-001
6.595635e+003,1.759402e-001
6.599492e+003,1.724692e-001
6.603349e+003,1.887107e-001
6.607206e+003,1.828410e-001
6.611063e+003,1.737868e-001
6.614920e+003,1.667845e-001
6.618777e+003,1.689844e-001
6.622634e+003,1.800574e-001
6.626491e+003,1.843452e-001
6.630349e+003,1.800889e-001
6.634206e+003,1.770665e-001
6.638063e+003,1.826393e-001
6.641920e+003,1.763506e-001
6.645777e+003,1.719688e-001
6.649634e+003,1.880427e-001
6.653491e+003,1.873072e-001
6.657348e+003,1.827962e-001
6.661205e+003,1.858596e-001
6.665063e+003,1.829961e-001
6.668919e+003,1.823321e-001
6.672776e+003,1.818311e-001
6.676634e+003,1.829331e-001
6.680491e+003,1.758580e-001
6.684348e+003,1.774648e-001
6.688205e+003,1.787777e-001
6.692062e+003,1.764619e-001
6.695919e+003,1.862823e-001
6.699776e+003,1.818588e-001
6.703633e+003,1.698568e-001
6.707490e+003,1.784441e-001
6.711348e+003,1.877629e-001
6.715205e+003,1.898396e-001
6.719062e+003,1.848141e-001
6.722919e+003,1.914442e-001
6.726776e+003,2.026411e-001
6.730633e+003,2.052641e-001
6.734490e+003,1.970230e-001
6.738347e+003,2.033582e-001
6.742204e+003,2.124569e-001
6.746062e+003,1.903218e-001
6.749918e+003,1.798866e-001
6.753775e+003,1.805187e-001
6.757633e+003,1.779509e-001
6.761490e+003,1.758978e-001
6.765347e+003,1.989966e-001
6.769204e+003,2.081894e-001
6.773061e+003,1.922068e-001
6.776918e+003,1.845932e-001
6.780775e+003,1.797073e-001
6.784632e+003,1.829816e-001
6.788489e+003,1.867734e-001
6.792347e+003,1.831941e-001
6.796204e+003,1.794703e-001
6.800061e+003,1.876927e-001
6.803918e+003,1.913604e-001
6.807775e+003,1.866276e-001
6.811632e+003,1.809976e-001
6.815489e+003,1.726294e-001
6.819346e+003,1.661602e-001
6.823203e+003,1.624973e-001
6.827061e+003,1.680310e-001
6.830917e+003,1.782170e-001
6.834774e+003,1.771980e-001
6.838632e+003,1.781958e-001
6.842489e+003,1.903139e-001
6.846346e+003,2.043764e-001
6.850203e+003,2.064403e-001
6.854060e+003,1.937716e-001
6.857917e+003,1.890130e-001
6.861774e+003,1.931568e-001
6.865631e+003,1.967656e-001
6.869488e+003,2.043885e-001
6.873346e+003,2.015607e-001
6.877203e+003,1.849687e-001
6.881060e+003,1.685951e-001
6.884917e+003,1.711095e-001
6.888774e+003,1.777746e-001
6.892631e+003,1.705058e-001
6.896488e+003,1.799372e-001
6.900345e+003,2.055508e-001
6.904202e+003,2.128125e-001
6.908060e+003,1.943265e-001
6.911917e+003,1.938822e-001
6.915773e+003,1.930348e-001
6.919631e+003,1.847011e-001
6.923488e+003,1.703931e-001
6.927345e+003,1.636640e-001
6.931202e+003,2.051219e-001
6.935059e+003,2.284024e-001
6.938916e+003,2.154817e-001
6.942773e+003,1.963514e-001
6.946630e+003,1.883192e-001
6.950487e+003,1.852870e-001
6.954345e+003,1.836154e-001
6.958202e+003,1.983558e-001
6.962059e+003,2.199277e-001
6.965916e+003,2.248777e-001
6.969773e+003,2.216159e-001
6.973630e+003,1.929764e-001
6.977487e+003,1.875567e-001
6.981344e+003,1.968977e-001
6.985201e+003,1.935296e-001
6.989059e+003,1.860669e-001
6.992916e+003,1.896407e-001
6.996772e+003,2.063080e-001
7.000630e+003,2.143075e-001
7.004487e+003,1.996204e-001
7.008344e+003,1.982584e-001
7.012201e+003,2.052496e-001
7.016058e+003,1.987408e-001
7.019915e+003,2.022643e-001
7.023772e+003,2.195549e-001
7.027629e+003,2.360349e-001
7.031486e+003,2.078378e-001
7.035344e+003,1.945460e-001
7.039201e+003,1.985109e-001
7.043058e+003,2.018843e-001
7.046915e+003,2.026685e-001
7.050772e+003,2.045461e-001
7.054629e+003,2.112383e-001
7.058486e+003,2.012667e-001
7.062343e+003,1.873161e-001
7.066200e+003,1.733482e-001
7.070058e+003,1.976489e-001
7.073915e+003,2.125864e-001
7.077771e+003,2.119817e-001
7.081629e+003,1.927024e-001
7.085486e+003,1.929729e-001
7.089343e+003,1.913521e-001
7.093200e+003,1.974627e-001
7.097057e+003,2.017884e-001
7.100914e+003,1.926724e-001
7.104771e+003,1.942924e-001
7.108628e+003,2.102385e-001
7.112485e+003,2.036985e-001
7.116343e+003,1.970669e-001
7.120200e+003,1.834979e-001
7.124057e+003,1.770129e-001
7.127914e+003,1.849404e-001
7.131771e+003,1.824899e-001
7.135628e+003,1.772274e-001
7.139485e+003,1.837526e-001
7.143342e+003,2.121208e-001
7.147199e+003,2.045090e-001
7.151057e+003,1.963261e-001
7.154914e+003,1.878771e-001
7.158771e+003,2.046671e-001
7.162628e+003,2.216532e-001
7.166485e+003,2.075639e-001
7.170342e+003,2.089560e-001
7.174199e+003,2.006772e-001
7.178056e+003,1.739777e-001
7.181913e+003,1.585240e-001
7.185771e+003,1.662761e-001
7.189627e+003,1.769398e-001
7.193484e+003,1.768202e-001
7.197342e+003,1.754675e-001
7.201199e+003,1.915923e-001
7.205056e+003,2.224535e-001
7.208913e+003,2.278026e-001
7.212770e+003,2.235037e-001
7.216627e+003,2.160577e-001
7.220484e+003,2.121605e-001
7.224341e+003,2.222522e-001
7.228198e+003,1.991118e-001
7.232056e+003,1.851450e-001
7.235913e+003,1.919875e-001
7.239770e+003,1.939344e-001
7.243627e+003,2.078852e-001
7.247484e+003,1.970298e-001
7.251341e+003,1.889010e-001
7.255198e+003,1.890623e-001
7.259055e+003,2.015484e-001
7.262912e+003,1.746076e-001
7.266770e+003,1.568841e-001
7.270626e+003,1.748837e-001
7.274483e+003,1.801511e-001
7.278341e+003,1.900335e-001
7.282198e+003,1.990350e-001
7.286055e+003,2.007152e-001
7.289912e+003,2.075288e-001
7.293769e+003,2.051041e-001
7.297626e+003,2.032347e-001
7.301483e+003,1.950685e-001
7.305340e+003,1.919824e-001
7.309197e+003,2.095456e-001
7.313055e+003,2.188158e-001
7.316912e+003,1.847051e-001
7.320769e+003,1.487230e-001
7.324626e+003,1.696347e-001
7.328483e+003,1.958004e-001
7.332340e+003,1.885676e-001
7.336197e+003,1.705741e-001
7.340054e+003,1.912384e-001
7.343911e+003,2.155228e-001
7.347769e+003,2.049809e-001
7.351625e+003,2.073826e-001
7.355482e+003,2.137896e-001
7.359340e+003,2.135767e-001
7.363197e+003,1.991336e-001
7.367054e+003,1.786411e-001
7.370911e+003,1.761166e-001
7.374768e+003,2.018476e-001
7.378625e+003,2.120951e-001
7.382482e+003,1.987941e-001
7.386339e+003,1.879181e-001
7.390196e+003,1.825584e-001
7.394054e+003,1.808162e-001
7.397911e+003,1.526538e-001
7.401768e+003,1.501235e-001
7.405625e+003,1.586912e-001
7.409482e+003,1.777596e-001
7.413339e+003,1.818532e-001
7.417196e+003,1.651932e-001
7.421053e+003,1.372325e-001
7.424910e+003,1.254636e-001
7.428768e+003,1.484524e-001
7.432625e+003,1.860310e-001
7.436481e+003,1.984552e-001
7.440339e+003,1.736504e-001
7.444196e+003,1.694646e-001
7.448053e+003,1.772195e-001
7.451910e+003,1.723264e-001
7.455767e+003,1.663290e-001
7.459624e+003,1.600382e-001
7.463481e+003,1.618570e-001
7.467338e+003,1.712611e-001
7.471195e+003,1.895870e-001
7.475053e+003,2.074422e-001
7.478910e+003,2.045988e-001
7.482767e+003,1.896724e-001
7.486624e+003,1.451152e-001
7.490481e+003,1.335809e-001
7.494338e+003,1.416432e-001
7.498195e+003,1.707437e-001
7.502052e+003,1.955819e-001
7.505909e+003,1.869667e-001
7.509767e+003,1.727380e-001
7.513624e+003,1.765758e-001
7.517480e+003,1.959013e-001
7.521338e+003,1.977777e-001
7.525195e+003,1.810279e-001
7.529052e+003,1.711806e-001
7.532909e+003,1.658629e-001
7.536766e+003,1.868600e-001
7.540623e+003,1.657217e-001
7.544480e+003,1.272246e-001
7.548337e+003,1.130049e-001
7.552194e+003,1.339606e-001
7.556052e+003,1.451335e-001
7.559909e+003,1.549785e-001
7.563766e+003,1.587703e-001
7.567623e+003,1.502429e-001
7.571480e+003,1.436374e-001
7.575337e+003,1.860908e-001
7.579194e+003,2.006781e-001
7.583051e+003,1.451019e-001
7.586908e+003,1.440364e-001
7.590766e+003,1.774702e-001
7.594623e+003,1.745449e-001
7.598479e+003,1.865752e-001
7.602337e+003,1.839793e-001
7.606194e+003,1.525494e-001
7.610051e+003,1.465053e-001
7.613908e+003,1.415066e-001
7.617765e+003,1.295315e-001
7.621622e+003,1.340833e-001
7.625479e+003,1.140720e-001
7.629336e+003,1.287002e-001
7.633193e+003,1.818427e-001
7.637051e+003,1.672464e-001
7.640908e+003,1.370442e-001
7.644765e+003,1.524125e-001
7.648622e+003,1.681510e-001
7.652479e+003,1.932473e-001
7.656336e+003,1.961862e-001
7.660193e+003,1.676880e-001
7.664050e+003,1.490854e-001
7.667907e+003,1.268863e-001
7.671765e+003,1.477971e-001
7.675622e+003,1.531952e-001
7.679479e+003,1.619361e-001
7.683336e+003,2.102557e-001
7.687193e+003,2.082984e-001
7.691050e+003,1.633417e-001
7.694907e+003,1.824092e-001
7.698764e+003,1.834943e-001
7.702621e+003,1.426287e-001
7.706479e+003,1.005014e-001
7.710335e+003,7.603560e-002
7.714192e+003,1.492782e-001
7.718050e+003,1.877107e-001
7.721907e+003,1.511939e-001
7.725764e+003,1.339273e-001
7.729621e+003,1.497348e-001
7.733478e+003,1.055766e-001
7.737335e+003,9.174870e-002
7.741192e+003,1.809674e-001
7.745049e+003,2.030150e-001
7.748906e+003,1.546823e-001
7.752764e+003,1.114814e-001
7.756621e+003,1.116899e-001
7.760478e+003,1.441570e-001
7.764335e+003,1.378606e-001
7.768192e+003,1.397276e-001
7.772049e+003,1.517039e-001
7.775906e+003,1.461426e-001
7.779763e+003,1.360641e-001
7.783620e+003,1.426543e-001
7.787478e+003,1.430173e-001
7.791334e+003,1.592003e-001
7.795191e+003,2.049604e-001
7.799049e+003,1.755841e-001
7.802906e+003,1.409054e-001
7.806763e+003,1.649509e-001
7.810620e+003,1.733563e-001
7.814477e+003,1.353873e-001
7.818334e+003,1.266228e-001
7.822191e+003,9.829648e-002
7.826048e+003,1.159843e-001
7.829905e+003,1.937219e-001
7.833763e+003,2.178424e-001
7.837620e+003,1.941787e-001
7.841477e+003,1.796569e-001
7.845334e+003,1.545841e-001
7.849191e+003,1.649138e-001
7.853048e+003,1.990558e-001
7.856905e+003,1.746086e-001
7.860762e+003,1.647713e-001
7.864619e+003,1.523158e-001
7.868477e+003,1.256439e-001
7.872333e+003,1.213773e-001
7.876190e+003,9.806851e-002
7.880048e+003,1.252472e-001
7.883905e+003,1.399588e-001
7.887762e+003,1.258861e-001
7.891619e+003,1.850627e-001
7.895476e+003,1.824473e-001
7.899333e+003,9.490074e-002
7.903190e+003,1.083048e-001
7.907047e+003,2.244863e-001
7.910904e+003,2.137672e-001
7.914762e+003,1.523787e-001
7.918619e+003,1.113811e-001
7.922476e+003,1.287969e-001
7.926333e+003,1.840277e-001
7.930190e+003,1.697120e-001
7.934047e+003,1.132988e-001
7.937904e+003,1.017147e-001
7.941761e+003,1.294093e-001
7.945618e+003,1.416039e-001
7.949476e+003,9.894502e-002
7.953333e+003,1.565265e-001
7.957189e+003,2.157913e-001
7.961047e+003,2.045441e-001
7.964904e+003,1.743572e-001
7.968761e+003,2.173057e-001
7.972618e+003,2.575612e-001
7.976475e+003,1.388611e-001
7.980332e+003,9.897282e-002
7.984189e+003,1.442972e-001
7.988046e+003,1.698845e-001
7.991903e+003,1.739997e-001
7.995761e+003,1.641902e-001
7.999618e+003,1.503045e-001
