4.011380e+002,6.000000e+000
4.049951e+002,-3.079141e-001
4.088522e+002,1.676073e-001
4.127093e+002,6.000000e+000
4.165664e+002,6.000000e+000
4.204235e+002,6.000000e+000
4.242806e+002,-6.912608e-001
4.281377e+002,3.069323e-001
4.319948e+002,-6.721685e-001
4.358519e+002,6.000000e+000
4.397090e+002,3.080113e-001
4.435661e+002,6.000000e+000
4.474232e+002,-1.582421e+000
4.512803e+002,6.000000e+000
4.551374e+002,6.000000e+000
4.589945e+002,-4.070508e-001
4.628516e+002,6.000000e+000
4.667087e+002,9.493800e-001
4.705658e+002,2.803928e-001
4.744229e+002,6.000000e+000
4.782800e+002,-4.230559e-001
4.821371e+002,6.000000e+000
4.859941e+002,6.000000e+000
4.898513e+002,4.897028e-001
4.937083e+002,-1.306920e-001
4.975654e+002,-7.430706e-001
5.014225e+002,-1.728317e+000
5.052796e+002,-3.145706e-001
5.091367e+002,6.000000e+000
5.129938e+002,2.358926e-001
5.168509e+002,2.367702e-001
5.207080e+002,6.000000e+000
5.245651e+002,8.737834e-001
5.284222e+002,5.368498e-001
5.322793e+002,2.007063e-001
5.361364e+002,6.000000e+000
5.399935e+002,6.000000e+000
5.438506e+002,6.000000e+000
5.477077e+002,3.866636e-001
5.515648e+002,6.000000e+000
5.554219e+002,8.066000e-001
5.592790e+002,6.000000e+000
5.631361e+002,6.000000e+000
5.669932e+002,1.040448e+000
5.708503e+002,6.000000e+000
5.747074e+002,6.000000e+000
5.785645e+002,-1.349954e+000
5.824216e+002,-1.566220e-001
5.862787e+002,5.614876e-001
5.901357e+002,1.655280e+000
5.939929e+002,6.000000e+000
5.978499e+002,2.940197e-001
6.017070e+002,-4.841423e-001
6.055641e+002,-1.360381e-001
6.094212e+002,6.000000e+000
6.132783e+002,6.000000e+000
6.171354e+002,3.788953e-001
6.209925e+002,6.000000e+000
6.248496e+002,6.000000e+000
6.287067e+002,-4.006242e-001
6.325638e+002,6.000000e+000
6.364209e+002,6.000000e+000
6.402780e+002,2.433407e+000
6.441351e+002,6.000000e+000
6.479922e+002,6.000000e+000
6.518493e+002,6.000000e+000
6.557064e+002,-5.960338e-001
6.595635e+002,-1.696995e-001
6.634205e+002,-2.035717e-001
6.672777e+002,6.000000e+000
6.711348e+002,6.000000e+000
6.749918e+002,6.000000e+000
6.788490e+002,6.000000e+000
6.827061e+002,6.000000e+000
6.865631e+002,6.000000e+000
6.904203e+002,-8.267920e-001
6.942773e+002,6.000000e+000
6.981344e+002,5.281936e-001
7.019916e+002,6.000000e+000
7.058486e+002,6.000000e+000
7.097057e+002,6.000000e+000
7.135629e+002,6.000000e+000
7.174199e+002,6.000000e+000
7.212770e+002,6.000000e+000
7.251342e+002,-6.906715e-002
7.289912e+002,6.000000e+000
7.328483e+002,6.000000e+000
7.367054e+002,2.401484e-001
7.405625e+002,4.505294e-001
7.444196e+002,6.000000e+000
7.482767e+002,6.000000e+000
7.521338e+002,4.142281e-001
7.559908e+002,6.870788e-001
7.598480e+002,-3.478369e-001
7.637051e+002,6.000000e+000
7.675621e+002,6.000000e+000
7.714193e+002,1.026691e+000
7.752764e+002,6.000000e+000
7.791334e+002,2.144338e-001
7.829905e+002,6.000000e+000
7.868477e+002,3.904307e-001
7.907047e+002,6.000000e+000
7.945618e+002,6.000000e+000
7.984189e+002,1.905349e-001
8.022760e+002,-2.799928e-001
8.061331e+002,-1.761995e-001
8.099902e+002,6.000000e+000
8.138473e+002,5.373812e-001
8.177044e+002,2.697425e-001
8.215615e+002,4.862872e-001
8.254186e+002,3.706495e-001
8.292757e+002,4.372024e-001
8.331328e+002,6.000000e+000
8.369899e+002,6.000000e+000
8.408470e+002,9.366873e-001
8.447041e+002,1.283005e+000
8.485612e+002,6.000000e+000
8.524183e+002,6.000000e+000
8.562754e+002,2.176772e+000
8.601324e+002,1.011052e+000
8.639896e+002,6.000000e+000
8.678467e+002,6.000000e+000
8.717037e+002,9.179250e-001
8.755609e+002,7.471251e-001
8.794180e+002,1.201414e+000
8.832750e+002,6.000000e+000
8.871321e+002,1.716595e+000
8.909893e+002,1.537438e+000
8.948463e+002,1.989806e+000
8.987034e+002,1.525622e+000
9.025605e+002,1.134086e+000
9.064176e+002,1.086009e+000
9.102747e+002,1.170159e+000
9.141318e+002,1.113111e+000
9.179889e+002,1.092627e+000
9.218461e+002,1.165716e+000
9.257031e+002,1.301217e+000
9.295602e+002,1.121007e+000
9.334174e+002,1.046527e+000
9.372744e+002,1.169111e+000
9.411315e+002,1.230837e+000
9.449886e+002,1.203930e+000
9.488457e+002,1.148700e+000
9.527028e+002,1.295167e+000
9.565599e+002,1.401119e+000
9.604170e+002,1.416851e+000
9.642740e+002,1.448503e+000
9.681312e+002,1.323290e+000
9.719883e+002,1.188681e+000
9.758453e+002,1.184755e+000
9.797025e+002,1.267614e+000
9.835596e+002,1.344592e+000
9.874166e+002,1.433086e+000
9.912738e+002,1.466032e+000
9.951309e+002,1.419400e+000
9.989879e+002,1.326430e+000
1.002845e+003,1.256547e+000
1.006702e+003,1.243565e+000
1.010559e+003,1.271666e+000
1.014416e+003,1.221049e+000
1.018273e+003,1.111171e+000
1.022130e+003,1.078497e+000
1.025988e+003,1.090175e+000
1.029845e+003,1.079933e+000
1.033702e+003,1.079656e+000
1.037559e+003,1.085066e+000
1.041416e+003,1.061221e+000
1.045273e+003,1.087236e+000
1.049130e+003,1.088613e+000
1.052987e+003,1.116198e+000
1.056844e+003,1.082676e+000
1.060702e+003,1.050930e+000
1.064559e+003,1.089975e+000
1.068416e+003,1.129086e+000
1.072273e+003,1.133703e+000
1.076130e+003,1.128210e+000
1.079987e+003,1.156550e+000
1.083844e+003,1.144057e+000
1.087701e+003,1.072195e+000
1.091558e+003,1.068756e+000
1.095415e+003,1.076047e+000
1.099272e+003,1.018039e+000
1.103130e+003,9.871063e-001
1.106987e+003,9.838948e-001
1.110844e+003,9.812822e-001
1.114701e+003,9.777134e-001
1.118558e+003,9.800101e-001
1.122415e+003,9.807682e-001
1.126272e+003,9.693751e-001
1.130129e+003,9.462388e-001
1.133986e+003,9.807282e-001
1.137843e+003,1.021971e+000
1.141701e+003,1.037613e+000
1.145558e+003,1.074766e+000
1.149415e+003,1.073411e+000
1.153272e+003,1.062506e+000
1.157129e+003,1.095553e+000
1.160986e+003,1.121970e+000
1.164843e+003,1.120163e+000
1.168700e+003,1.097154e+000
1.172557e+003,1.089210e+000
1.176414e+003,1.096469e+000
1.180271e+003,1.077286e+000
1.184129e+003,1.066589e+000
1.187986e+003,1.090514e+000
1.191843e+003,1.076617e+000
1.195700e+003,1.015131e+000
1.199557e+003,9.710567e-001
1.203414e+003,9.426842e-001
1.207271e+003,9.022345e-001
1.211128e+003,8.568960e-001
1.214985e+003,7.965332e-001
1.218842e+003,7.339344e-001
1.222699e+003,6.794085e-001
1.226557e+003,6.337485e-001
1.230414e+003,5.952808e-001
1.234271e+003,5.526257e-001
1.238128e+003,5.233534e-001
1.241985e+003,4.995801e-001
1.245842e+003,4.619139e-001
1.249699e+003,4.377424e-001
1.253556e+003,4.198381e-001
1.257413e+003,4.050077e-001
1.261271e+003,3.916153e-001
1.265128e+003,3.778647e-001
1.268985e+003,3.648677e-001
1.272842e+003,3.561190e-001
1.276699e+003,3.483906e-001
1.280556e+003,3.400461e-001
1.284413e+003,3.341174e-001
1.288270e+003,3.217810e-001
1.292127e+003,3.107682e-001
1.295984e+003,3.062987e-001
1.299841e+003,3.019806e-001
1.303698e+003,2.915833e-001
1.307556e+003,2.850266e-001
1.311413e+003,2.834209e-001
1.315270e+003,2.780151e-001
1.319127e+003,2.743855e-001
1.322984e+003,2.713126e-001
1.326841e+003,2.648863e-001
1.330698e+003,2.592590e-001
1.334555e+003,2.541680e-001
1.338412e+003,2.509443e-001
1.342270e+003,2.485960e-001
1.346127e+003,2.482384e-001
1.349984e+003,2.469505e-001
1.353841e+003,2.466297e-001
1.357698e+003,2.484626e-001
1.361555e+003,2.518475e-001
1.365412e+003,2.540683e-001
1.369269e+003,2.553532e-001
1.373126e+003,2.562501e-001
1.376983e+003,2.579429e-001
1.380840e+003,2.610659e-001
1.384698e+003,2.670763e-001
1.388555e+003,2.748716e-001
1.392412e+003,2.769045e-001
1.396269e+003,2.815847e-001
1.400126e+003,2.865833e-001
1.403983e+003,2.902202e-001
1.407840e+003,2.960466e-001
1.411697e+003,3.006088e-001
1.415554e+003,3.074602e-001
1.419411e+003,3.121535e-001
1.423269e+003,3.120570e-001
1.427126e+003,3.155705e-001
1.430983e+003,3.170433e-001
1.434840e+003,3.152009e-001
1.438697e+003,3.187408e-001
1.442554e+003,3.185948e-001
1.446411e+003,3.116323e-001
1.450268e+003,3.007843e-001
1.454125e+003,2.925650e-001
1.457982e+003,2.922811e-001
1.461839e+003,2.912473e-001
1.465697e+003,2.882876e-001
1.469554e+003,2.829430e-001
1.473411e+003,2.834241e-001
1.477268e+003,2.926157e-001
1.481125e+003,2.997697e-001
1.484982e+003,3.035604e-001
1.488839e+003,3.075972e-001
1.492696e+003,3.134765e-001
1.496553e+003,3.199062e-001
1.500411e+003,3.221750e-001
1.504268e+003,3.226152e-001
1.508125e+003,3.243168e-001
1.511982e+003,3.237950e-001
1.515839e+003,3.255020e-001
1.519696e+003,3.276953e-001
1.523553e+003,3.220803e-001
1.527410e+003,3.123729e-001
1.531267e+003,3.085189e-001
1.535124e+003,3.034595e-001
1.538981e+003,2.990565e-001
1.542839e+003,2.975008e-001
1.546696e+003,2.943271e-001
1.550553e+003,2.861484e-001
1.554410e+003,2.766557e-001
1.558267e+003,2.694641e-001
1.562124e+003,2.675361e-001
1.565981e+003,2.689419e-001
1.569838e+003,2.653978e-001
1.573695e+003,2.579892e-001
1.577552e+003,2.535488e-001
1.581410e+003,2.525509e-001
1.585267e+003,2.521462e-001
1.589124e+003,2.525325e-001
1.592981e+003,2.533947e-001
1.596838e+003,2.567991e-001
1.600695e+003,2.615694e-001
1.604552e+003,2.672130e-001
1.608409e+003,2.765994e-001
1.612266e+003,2.891048e-001
1.616123e+003,3.014193e-001
1.619980e+003,3.146126e-001
1.623838e+003,3.287657e-001
1.627695e+003,3.402396e-001
1.631552e+003,3.481057e-001
1.635409e+003,3.578092e-001
1.639266e+003,3.614909e-001
1.643123e+003,3.575682e-001
1.646980e+003,3.488217e-001
1.650837e+003,3.410204e-001
1.654694e+003,3.337653e-001
1.658551e+003,3.284181e-001
1.662409e+003,3.236485e-001
1.666266e+003,3.151351e-001
1.670123e+003,3.032224e-001
1.673980e+003,2.937884e-001
1.677837e+003,2.835122e-001
1.681694e+003,2.749088e-001
1.685551e+003,2.708401e-001
1.689408e+003,2.694934e-001
1.693265e+003,2.652601e-001
1.697122e+003,2.616264e-001
1.700979e+003,2.591117e-001
1.704837e+003,2.530031e-001
1.708694e+003,2.477514e-001
1.712551e+003,2.461078e-001
1.716408e+003,2.441782e-001
1.720265e+003,2.434967e-001
1.724122e+003,2.392642e-001
1.727979e+003,2.359439e-001
1.731836e+003,2.374930e-001
1.735693e+003,2.378052e-001
1.739550e+003,2.347000e-001
1.743408e+003,2.322311e-001
1.747265e+003,2.313667e-001
1.751122e+003,2.305771e-001
1.754979e+003,2.314726e-001
1.758836e+003,2.304680e-001
1.762693e+003,2.288196e-001
1.766550e+003,2.269158e-001
1.770407e+003,2.252050e-001
1.774264e+003,2.257259e-001
1.778121e+003,2.255122e-001
1.781979e+003,2.196547e-001
1.785836e+003,2.158882e-001
1.789693e+003,2.139369e-001
1.793550e+003,2.112461e-001
1.797407e+003,2.100153e-001
1.801264e+003,2.082672e-001
1.805121e+003,2.061503e-001
1.808978e+003,2.078722e-001
1.812835e+003,2.095718e-001
1.816692e+003,2.091289e-001
1.820549e+003,2.071568e-001
1.824407e+003,2.086372e-001
1.828264e+003,2.109514e-001
1.832121e+003,2.123108e-001
1.835978e+003,2.091868e-001
1.839835e+003,2.074820e-001
1.843692e+003,2.112943e-001
1.847549e+003,2.137151e-001
1.851406e+003,2.148152e-001
1.855263e+003,2.159413e-001
1.859120e+003,2.174589e-001
1.862978e+003,2.167064e-001
1.866835e+003,2.146386e-001
1.870692e+003,2.156816e-001
1.874549e+003,2.165360e-001
1.878406e+003,2.168587e-001
1.882263e+003,2.165937e-001
1.886120e+003,2.169904e-001
1.889977e+003,2.162605e-001
1.893834e+003,2.152945e-001
1.897691e+003,2.147260e-001
1.901548e+003,2.143887e-001
1.905406e+003,2.136119e-001
1.909263e+003,2.124148e-001
1.913120e+003,2.089583e-001
1.916977e+003,2.060633e-001
1.920834e+003,2.044914e-001
1.924691e+003,2.005406e-001
1.928548e+003,1.974730e-001
1.932405e+003,1.966602e-001
1.936262e+003,1.947324e-001
1.940119e+003,1.936498e-001
1.943977e+003,1.907682e-001
1.947834e+003,1.880294e-001
1.951691e+003,1.863717e-001
1.955548e+003,1.837989e-001
1.959405e+003,1.821724e-001
1.963262e+003,1.811351e-001
1.967119e+003,1.811501e-001
1.970976e+003,1.817780e-001
1.974833e+003,1.788958e-001
1.978690e+003,1.765567e-001
1.982547e+003,1.782645e-001
1.986405e+003,1.813852e-001
1.990262e+003,1.812369e-001
1.994119e+003,1.819123e-001
1.997976e+003,1.839035e-001
2.001833e+003,1.852886e-001
2.005690e+003,1.875391e-001
2.009547e+003,1.906740e-001
2.013404e+003,1.917738e-001
2.017261e+003,1.919189e-001
2.021118e+003,1.935505e-001
2.024976e+003,1.962249e-001
2.028833e+003,1.971091e-001
2.032690e+003,1.971378e-001
2.036547e+003,1.975803e-001
2.040404e+003,1.969512e-001
2.044261e+003,1.987824e-001
2.048118e+003,2.013493e-001
2.051975e+003,2.024134e-001
2.055832e+003,2.004741e-001
2.059689e+003,2.001818e-001
2.063546e+003,2.012605e-001
2.067404e+003,2.021389e-001
2.071261e+003,2.041449e-001
2.075118e+003,2.048327e-001
2.078975e+003,2.021039e-001
2.082832e+003,2.008708e-001
2.086689e+003,1.981941e-001
2.090546e+003,1.955074e-001
2.094403e+003,1.961202e-001
2.098260e+003,1.953786e-001
2.102117e+003,1.941915e-001
2.105975e+003,1.942659e-001
2.109832e+003,1.928313e-001
2.113689e+003,1.891089e-001
2.117546e+003,1.855170e-001
2.121403e+003,1.827879e-001
2.125260e+003,1.819609e-001
2.129117e+003,1.829843e-001
2.132974e+003,1.833448e-001
2.136831e+003,1.823651e-001
2.140688e+003,1.811868e-001
2.144545e+003,1.812875e-001
2.148403e+003,1.797440e-001
2.152260e+003,1.756401e-001
2.156117e+003,1.745879e-001
2.159974e+003,1.764002e-001
2.163831e+003,1.776885e-001
2.167688e+003,1.789911e-001
2.171545e+003,1.781586e-001
2.175402e+003,1.781252e-001
2.179259e+003,1.798560e-001
2.183116e+003,1.812398e-001
2.186974e+003,1.826465e-001
2.190831e+003,1.840516e-001
2.194688e+003,1.871068e-001
2.198545e+003,1.891769e-001
2.202402e+003,1.908414e-001
2.206259e+003,1.943996e-001
2.210116e+003,1.972357e-001
2.213973e+003,1.984588e-001
2.217830e+003,2.004158e-001
2.221688e+003,2.037168e-001
2.225544e+003,2.045492e-001
2.229402e+003,2.043404e-001
2.233259e+003,2.057113e-001
2.237116e+003,2.091388e-001
2.240973e+003,2.130115e-001
2.244830e+003,2.174598e-001
2.248687e+003,2.180219e-001
2.252544e+003,2.172493e-001
2.256401e+003,2.176619e-001
2.260258e+003,2.164555e-001
2.264115e+003,2.139689e-001
2.267973e+003,2.136861e-001
2.271830e+003,2.144965e-001
2.275687e+003,2.138363e-001
2.279544e+003,2.121288e-001
2.283401e+003,2.102235e-001
2.287258e+003,2.089525e-001
2.291115e+003,2.079030e-001
2.294972e+003,2.079809e-001
2.298829e+003,2.042223e-001
2.302687e+003,2.016748e-001
2.306543e+003,2.016168e-001
2.310401e+003,2.007365e-001
2.314258e+003,2.013808e-001
2.318115e+003,1.982152e-001
2.321972e+003,1.946343e-001
2.325829e+003,1.944017e-001
2.329686e+003,1.955917e-001
2.333543e+003,1.967391e-001
2.337400e+003,1.965946e-001
2.341257e+003,1.955853e-001
2.345115e+003,1.936732e-001
2.348972e+003,1.903393e-001
2.352829e+003,1.896059e-001
2.356686e+003,1.945890e-001
2.360543e+003,1.961750e-001
2.364400e+003,1.962367e-001
2.368257e+003,1.936381e-001
2.372114e+003,1.922518e-001
2.375971e+003,1.924269e-001
2.379828e+003,1.933498e-001
2.383686e+003,1.918541e-001
2.387542e+003,1.900052e-001
2.391400e+003,1.910710e-001
2.395257e+003,1.945580e-001
2.399114e+003,1.975621e-001
2.402971e+003,1.986177e-001
2.406828e+003,1.993907e-001
2.410685e+003,2.014183e-001
2.414542e+003,2.021167e-001
2.418399e+003,2.030362e-001
2.422256e+003,2.058798e-001
2.426114e+003,2.078196e-001
2.429971e+003,2.073502e-001
2.433828e+003,2.063991e-001
2.437685e+003,2.062647e-001
2.441542e+003,2.093011e-001
2.445399e+003,2.096637e-001
2.449256e+003,2.052550e-001
2.453113e+003,2.046005e-001
2.456970e+003,2.042049e-001
2.460827e+003,2.015307e-001
2.464684e+003,2.005861e-001
2.468542e+003,1.986770e-001
2.472399e+003,1.971653e-001
2.476256e+003,1.952243e-001
2.480113e+003,1.934023e-001
2.483970e+003,1.916590e-001
2.487827e+003,1.892380e-001
2.491684e+003,1.878810e-001
2.495541e+003,1.856131e-001
2.499398e+003,1.831223e-001
2.503255e+003,1.819831e-001
2.507113e+003,1.788198e-001
2.510969e+003,1.771315e-001
2.514827e+003,1.769935e-001
2.518684e+003,1.747251e-001
2.522541e+003,1.721280e-001
2.526398e+003,1.710088e-001
2.530255e+003,1.717570e-001
2.534112e+003,1.726621e-001
2.537969e+003,1.746114e-001
2.541826e+003,1.749391e-001
2.545683e+003,1.751544e-001
2.549541e+003,1.769688e-001
2.553398e+003,1.763392e-001
2.557255e+003,1.770321e-001
2.561112e+003,1.779591e-001
2.564969e+003,1.797927e-001
2.568826e+003,1.821330e-001
2.572683e+003,1.836801e-001
2.576540e+003,1.840256e-001
2.580397e+003,1.854801e-001
2.584254e+003,1.906365e-001
2.588112e+003,1.947014e-001
2.591969e+003,1.940974e-001
2.595826e+003,1.967458e-001
2.599683e+003,2.011743e-001
2.603540e+003,2.041396e-001
2.607397e+003,2.051599e-001
2.611254e+003,2.075871e-001
2.615111e+003,2.111820e-001
2.618968e+003,2.112497e-001
2.622825e+003,2.089467e-001
2.626682e+003,2.098207e-001
2.630540e+003,2.111870e-001
2.634397e+003,2.131746e-001
2.638254e+003,2.141781e-001
2.642111e+003,2.166654e-001
2.645968e+003,2.176578e-001
2.649825e+003,2.178461e-001
2.653682e+003,2.182736e-001
2.657539e+003,2.179195e-001
2.661396e+003,2.179574e-001
2.665253e+003,2.179690e-001
2.669111e+003,2.174806e-001
2.672968e+003,2.157432e-001
2.676825e+003,2.147752e-001
2.680682e+003,2.147195e-001
2.684539e+003,2.139410e-001
2.688396e+003,2.129756e-001
2.692253e+003,2.133767e-001
2.696110e+003,2.126763e-001
2.699967e+003,2.129916e-001
2.703824e+003,2.127304e-001
2.707681e+003,2.132988e-001
2.711539e+003,2.150882e-001
2.715396e+003,2.171575e-001
2.719253e+003,2.175165e-001
2.723110e+003,2.153384e-001
2.726967e+003,2.144745e-001
2.730824e+003,2.150829e-001
2.734681e+003,2.169758e-001
2.738538e+003,2.227455e-001
2.742395e+003,2.262912e-001
2.746252e+003,2.288443e-001
2.750110e+003,2.316958e-001
2.753967e+003,2.332384e-001
2.757824e+003,2.351447e-001
2.761681e+003,2.374424e-001
2.765538e+003,2.415978e-001
2.769395e+003,2.459736e-001
2.773252e+003,2.491727e-001
2.777109e+003,2.518484e-001
2.780966e+003,2.569144e-001
2.784823e+003,2.612522e-001
2.788680e+003,2.648987e-001
2.792538e+003,2.664251e-001
2.796395e+003,2.690342e-001
2.800252e+003,2.730140e-001
2.804109e+003,2.750219e-001
2.807966e+003,2.752578e-001
2.811823e+003,2.769334e-001
2.815680e+003,2.803170e-001
2.819537e+003,2.836931e-001
2.823394e+003,2.876244e-001
2.827251e+003,2.908401e-001
2.831109e+003,2.927763e-001
2.834966e+003,2.935677e-001
2.838823e+003,2.934608e-001
2.842680e+003,2.965980e-001
2.846537e+003,3.010007e-001
2.850394e+003,3.010025e-001
2.854251e+003,3.014932e-001
2.858108e+003,3.008015e-001
2.861965e+003,3.015156e-001
2.865823e+003,3.030497e-001
2.869679e+003,3.048818e-001
2.873537e+003,3.055710e-001
2.877394e+003,3.053457e-001
2.881251e+003,3.076195e-001
2.885108e+003,3.081499e-001
2.888965e+003,3.079338e-001
2.892822e+003,3.087173e-001
2.896679e+003,3.122137e-001
2.900536e+003,3.171324e-001
2.904393e+003,3.205140e-001
2.908250e+003,3.203831e-001
2.912108e+003,3.210614e-001
2.915965e+003,3.196717e-001
2.919822e+003,3.182999e-001
2.923679e+003,3.232995e-001
2.927536e+003,3.291069e-001
2.931393e+003,3.317392e-001
2.935250e+003,3.348081e-001
2.939107e+003,3.393919e-001
2.942964e+003,3.438510e-001
2.946822e+003,3.454190e-001
2.950678e+003,3.469699e-001
2.954536e+003,3.522614e-001
2.958393e+003,3.556493e-001
2.962250e+003,3.572678e-001
2.966107e+003,3.594110e-001
2.969964e+003,3.645279e-001
2.973821e+003,3.681139e-001
2.977678e+003,3.720449e-001
2.981535e+003,3.762392e-001
2.985392e+003,3.811188e-001
2.989250e+003,3.874687e-001
2.993107e+003,3.866853e-001
2.996964e+003,3.888164e-001
3.000821e+003,3.924489e-001
3.004678e+003,3.933221e-001
3.008535e+003,3.985268e-001
3.012392e+003,4.073595e-001
3.016249e+003,4.110329e-001
3.020106e+003,4.134175e-001
3.023963e+003,4.143155e-001
3.027821e+003,4.138738e-001
3.031677e+003,4.147527e-001
3.035535e+003,4.216086e-001
3.039392e+003,4.271782e-001
3.043249e+003,4.251842e-001
3.047106e+003,4.257834e-001
3.050963e+003,4.304399e-001
3.054820e+003,4.341340e-001
3.058677e+003,4.318994e-001
3.062534e+003,4.305016e-001
3.066391e+003,4.348545e-001
3.070249e+003,4.374363e-001
3.074106e+003,4.401206e-001
3.077963e+003,4.442270e-001
3.081820e+003,4.459771e-001
3.085677e+003,4.473748e-001
3.089534e+003,4.492211e-001
3.093391e+003,4.493114e-001
3.097248e+003,4.497565e-001
3.101105e+003,4.512430e-001
3.104962e+003,4.549244e-001
3.108820e+003,4.583780e-001
3.112677e+003,4.606090e-001
3.116534e+003,4.681759e-001
3.120391e+003,4.703313e-001
3.124248e+003,4.716627e-001
3.128105e+003,4.770480e-001
3.131962e+003,4.793393e-001
3.135819e+003,4.819404e-001
3.139676e+003,4.820185e-001
3.143533e+003,4.884483e-001
3.147390e+003,4.921042e-001
3.151248e+003,4.938777e-001
3.155105e+003,4.951490e-001
3.158962e+003,4.955000e-001
3.162819e+003,5.010954e-001
3.166676e+003,5.093207e-001
3.170533e+003,5.118900e-001
3.174390e+003,5.145603e-001
3.178247e+003,5.213630e-001
3.182104e+003,5.272359e-001
3.185961e+003,5.273265e-001
3.189819e+003,5.286452e-001
3.193676e+003,5.311984e-001
3.197533e+003,5.328986e-001
3.201390e+003,5.387217e-001
3.205247e+003,5.385390e-001
3.209104e+003,5.409485e-001
3.212961e+003,5.449683e-001
3.216818e+003,5.484876e-001
3.220675e+003,5.496768e-001
3.224532e+003,5.504923e-001
3.228389e+003,5.531547e-001
3.232247e+003,5.553881e-001
3.236104e+003,5.552358e-001
3.239961e+003,5.527451e-001
3.243818e+003,5.532621e-001
3.247675e+003,5.549946e-001
3.251532e+003,5.582032e-001
3.255389e+003,5.630553e-001
3.259246e+003,5.643669e-001
3.263103e+003,5.668205e-001
3.266960e+003,5.696236e-001
3.270818e+003,5.726461e-001
3.274675e+003,5.753649e-001
3.278532e+003,5.838732e-001
3.282389e+003,5.877277e-001
3.286246e+003,5.809283e-001
3.290103e+003,5.770915e-001
3.293960e+003,5.791998e-001
3.297817e+003,5.812061e-001
3.301674e+003,5.863260e-001
3.305531e+003,5.850782e-001
3.309388e+003,5.856208e-001
3.313246e+003,5.926654e-001
3.317103e+003,5.968305e-001
3.320960e+003,6.020178e-001
3.324817e+003,6.026801e-001
3.328674e+003,6.014410e-001
3.332531e+003,6.057605e-001
3.336388e+003,6.017395e-001
3.340245e+003,5.982592e-001
3.344102e+003,6.008152e-001
3.347959e+003,6.070192e-001
3.351817e+003,6.146554e-001
3.355674e+003,6.175179e-001
3.359531e+003,6.178531e-001
3.363388e+003,6.177328e-001
3.367245e+003,6.217859e-001
3.371102e+003,6.201774e-001
3.374959e+003,6.169960e-001
3.378816e+003,6.218629e-001
3.382673e+003,6.255651e-001
3.386530e+003,6.285173e-001
3.390387e+003,6.314456e-001
3.394245e+003,6.361589e-001
3.398102e+003,6.390656e-001
3.401959e+003,6.375442e-001
3.405816e+003,6.380847e-001
3.409673e+003,6.397281e-001
3.413530e+003,6.463468e-001
3.417387e+003,6.462185e-001
3.421244e+003,6.462924e-001
3.425101e+003,6.497370e-001
3.428958e+003,6.537815e-001
3.432815e+003,6.601113e-001
3.436673e+003,6.598061e-001
3.440530e+003,6.619418e-001
3.444387e+003,6.657703e-001
3.448244e+003,6.598375e-001
3.452101e+003,6.628112e-001
3.455958e+003,6.674216e-001
3.459815e+003,6.623606e-001
3.463672e+003,6.631975e-001
3.467529e+003,6.689104e-001
3.471386e+003,6.728491e-001
3.475244e+003,6.724823e-001
3.479101e+003,6.736078e-001
3.482958e+003,6.715329e-001
3.486815e+003,6.673816e-001
3.490672e+003,6.698621e-001
3.494529e+003,6.674199e-001
3.498386e+003,6.706783e-001
3.502243e+003,6.800164e-001
3.506100e+003,6.800176e-001
3.509958e+003,6.845254e-001
3.513814e+003,6.866089e-001
3.517672e+003,6.861377e-001
3.521529e+003,6.779040e-001
3.525386e+003,6.703877e-001
3.529243e+003,6.739488e-001
3.533100e+003,6.797536e-001
3.536957e+003,6.764193e-001
3.540814e+003,6.709981e-001
3.544671e+003,6.731231e-001
3.548528e+003,6.676660e-001
3.552385e+003,6.628433e-001
3.556243e+003,6.629735e-001
3.560100e+003,6.661155e-001
3.563957e+003,6.634471e-001
3.567814e+003,6.544570e-001
3.571671e+003,6.418371e-001
3.575528e+003,6.379986e-001
3.579385e+003,6.440474e-001
3.583242e+003,6.350441e-001
3.587099e+003,6.212727e-001
3.590957e+003,6.169034e-001
3.594813e+003,6.061698e-001
3.598671e+003,5.887966e-001
3.602528e+003,5.758929e-001
3.606385e+003,5.649583e-001
3.610242e+003,5.544149e-001
3.614099e+003,5.358804e-001
3.617956e+003,5.142365e-001
3.621813e+003,4.949886e-001
3.625670e+003,4.753159e-001
3.629527e+003,4.557559e-001
3.633385e+003,4.361539e-001
3.637242e+003,4.144713e-001
3.641099e+003,3.920356e-001
3.644956e+003,3.707557e-001
3.648813e+003,3.515729e-001
3.652670e+003,3.335996e-001
3.656527e+003,3.174393e-001
3.660384e+003,3.046753e-001
3.664241e+003,2.923078e-001
3.668098e+003,2.784346e-001
3.671956e+003,2.646545e-001
3.675813e+003,2.506453e-001
3.679670e+003,2.413218e-001
3.683527e+003,2.369196e-001
3.687384e+003,2.294550e-001
3.691241e+003,2.206084e-001
3.695098e+003,2.192193e-001
3.698955e+003,2.168206e-001
3.702812e+003,2.131089e-001
3.706669e+003,2.040972e-001
3.710526e+003,1.969059e-001
3.714384e+003,1.933902e-001
3.718241e+003,1.870231e-001
3.722098e+003,1.807138e-001
3.725955e+003,1.793509e-001
3.729812e+003,1.782664e-001
3.733669e+003,1.748048e-001
3.737526e+003,1.738412e-001
3.741383e+003,1.723473e-001
3.745240e+003,1.693025e-001
3.749097e+003,1.688559e-001
3.752955e+003,1.687936e-001
3.756812e+003,1.703127e-001
3.760669e+003,1.736554e-001
3.764526e+003,1.741943e-001
3.768383e+003,1.714135e-001
3.772240e+003,1.701662e-001
3.776097e+003,1.705049e-001
3.779954e+003,1.709614e-001
3.783811e+003,1.719482e-001
3.787668e+003,1.727428e-001
3.791525e+003,1.740867e-001
3.795383e+003,1.761898e-001
3.799240e+003,1.799636e-001
3.803097e+003,1.815522e-001
3.806954e+003,1.835966e-001
3.810811e+003,1.866565e-001
3.814668e+003,1.857738e-001
3.818525e+003,1.855142e-001
3.822382e+003,1.869156e-001
3.826239e+003,1.869408e-001
3.830096e+003,1.859508e-001
3.833954e+003,1.858974e-001
3.837811e+003,1.868432e-001
3.841668e+003,1.893696e-001
3.845525e+003,1.910459e-001
3.849382e+003,1.910950e-001
3.853239e+003,1.892046e-001
3.857096e+003,1.868675e-001
3.860953e+003,1.862273e-001
3.864810e+003,1.818085e-001
3.868667e+003,1.788020e-001
3.872524e+003,1.809496e-001
3.876382e+003,1.804198e-001
3.880239e+003,1.784263e-001
3.884096e+003,1.787203e-001
3.887953e+003,1.767171e-001
3.891810e+003,1.747641e-001
3.895667e+003,1.726901e-001
3.899524e+003,1.703252e-001
3.903381e+003,1.694234e-001
3.907238e+003,1.671331e-001
3.911095e+003,1.683100e-001
3.914953e+003,1.672187e-001
3.918810e+003,1.648409e-001
3.922667e+003,1.653588e-001
3.926524e+003,1.656761e-001
3.930381e+003,1.649340e-001
3.934238e+003,1.641922e-001
3.938095e+003,1.639054e-001
3.941952e+003,1.639352e-001
3.945809e+003,1.654985e-001
3.949667e+003,1.648985e-001
3.953523e+003,1.633560e-001
3.957381e+003,1.656435e-001
3.961238e+003,1.656873e-001
3.965095e+003,1.629759e-001
3.968952e+003,1.650004e-001
3.972809e+003,1.675185e-001
3.976666e+003,1.661074e-001
3.980523e+003,1.699129e-001
3.984380e+003,1.698513e-001
3.988237e+003,1.703524e-001
3.992094e+003,1.740773e-001
3.995952e+003,1.752004e-001
3.999809e+003,1.777842e-001
4.003666e+003,1.787236e-001
4.007523e+003,1.778159e-001
4.011380e+003,1.765606e-001
4.015237e+003,1.775988e-001
4.019094e+003,1.768212e-001
4.022951e+003,1.779013e-001
4.026808e+003,1.768939e-001
4.030666e+003,1.748426e-001
4.034522e+003,1.766035e-001
4.038380e+003,1.757648e-001
4.042237e+003,1.745091e-001
4.046094e+003,1.762420e-001
4.049951e+003,1.788282e-001
4.053808e+003,1.808993e-001
4.057665e+003,1.783722e-001
4.061522e+003,1.750868e-001
4.065379e+003,1.725788e-001
4.069236e+003,1.677596e-001
4.073094e+003,1.674300e-001
4.076951e+003,1.705555e-001
4.080808e+003,1.685280e-001
4.084665e+003,1.657394e-001
4.088522e+003,1.653829e-001
4.092379e+003,1.668163e-001
4.096236e+003,1.637109e-001
4.100093e+003,1.599867e-001
4.103950e+003,1.585169e-001
4.107808e+003,1.560394e-001
4.111665e+003,1.577531e-001
4.115521e+003,1.576639e-001
4.119379e+003,1.525541e-001
4.123236e+003,1.533825e-001
4.127093e+003,1.584930e-001
4.130950e+003,1.587000e-001
4.134807e+003,1.556157e-001
4.138664e+003,1.559661e-001
4.142521e+003,1.549348e-001
4.146378e+003,1.514502e-001
4.150235e+003,1.518264e-001
4.154093e+003,1.563020e-001
4.157950e+003,1.597579e-001
4.161807e+003,1.579961e-001
4.165664e+003,1.558178e-001
4.169521e+003,1.549441e-001
4.173378e+003,1.580568e-001
4.177235e+003,1.615404e-001
4.181092e+003,1.609179e-001
4.184949e+003,1.626580e-001
4.188807e+003,1.664402e-001
4.192664e+003,1.668510e-001
4.196521e+003,1.658525e-001
4.200378e+003,1.643169e-001
4.204235e+003,1.620006e-001
4.208092e+003,1.608904e-001
4.211949e+003,1.676577e-001
4.215806e+003,1.701493e-001
4.219663e+003,1.710052e-001
4.223521e+003,1.738842e-001
4.227377e+003,1.713440e-001
4.231234e+003,1.686878e-001
4.235092e+003,1.689570e-001
4.238949e+003,1.657739e-001
4.242806e+003,1.646185e-001
4.246663e+003,1.681069e-001
4.250520e+003,1.718092e-001
4.254377e+003,1.683482e-001
4.258234e+003,1.647911e-001
4.262091e+003,1.656426e-001
4.265948e+003,1.652415e-001
4.269806e+003,1.652623e-001
4.273663e+003,1.614617e-001
4.277520e+003,1.552659e-001
4.281377e+003,1.586088e-001
4.285234e+003,1.634916e-001
4.289091e+003,1.609619e-001
4.292948e+003,1.602752e-001
4.296805e+003,1.586665e-001
4.300662e+003,1.563619e-001
4.304520e+003,1.566887e-001
4.308376e+003,1.572344e-001
4.312233e+003,1.533623e-001
4.316091e+003,1.518398e-001
4.319948e+003,1.550162e-001
4.323805e+003,1.550119e-001
4.327662e+003,1.587175e-001
4.331519e+003,1.580606e-001
4.335376e+003,1.578466e-001
4.339233e+003,1.595845e-001
4.343090e+003,1.618572e-001
4.346947e+003,1.565097e-001
4.350805e+003,1.494152e-001
4.354662e+003,1.537138e-001
4.358519e+003,1.612471e-001
4.362376e+003,1.634294e-001
4.366233e+003,1.652484e-001
4.370090e+003,1.647949e-001
4.373947e+003,1.638025e-001
4.377804e+003,1.652975e-001
4.381661e+003,1.667920e-001
4.385519e+003,1.659240e-001
4.389375e+003,1.620613e-001
4.393232e+003,1.633767e-001
4.397090e+003,1.665500e-001
4.400947e+003,1.648124e-001
4.404804e+003,1.657341e-001
4.408661e+003,1.657526e-001
4.412518e+003,1.724365e-001
4.416375e+003,1.803833e-001
4.420232e+003,1.732098e-001
4.424089e+003,1.695374e-001
4.427946e+003,1.719522e-001
4.431804e+003,1.725902e-001
4.435661e+003,1.739387e-001
4.439518e+003,1.741607e-001
4.443375e+003,1.766313e-001
4.447232e+003,1.782470e-001
4.451089e+003,1.730919e-001
4.454946e+003,1.680127e-001
4.458803e+003,1.661341e-001
4.462660e+003,1.687135e-001
4.466518e+003,1.697448e-001
4.470375e+003,1.692526e-001
4.474231e+003,1.638160e-001
4.478089e+003,1.590531e-001
4.481946e+003,1.620042e-001
4.485803e+003,1.633249e-001
4.489660e+003,1.593410e-001
4.493517e+003,1.596407e-001
4.497375e+003,1.649651e-001
4.501231e+003,1.665179e-001
4.505088e+003,1.666023e-001
4.508946e+003,1.653864e-001
4.512803e+003,1.642541e-001
4.516660e+003,1.614842e-001
4.520517e+003,1.620476e-001
4.524374e+003,1.633644e-001
4.528231e+003,1.651480e-001
4.532088e+003,1.651696e-001
4.535945e+003,1.638614e-001
4.539802e+003,1.608680e-001
4.543660e+003,1.611316e-001
4.547517e+003,1.652117e-001
4.551374e+003,1.646510e-001
4.555231e+003,1.634868e-001
4.559088e+003,1.677556e-001
4.562945e+003,1.726651e-001
4.566802e+003,1.700951e-001
4.570659e+003,1.679995e-001
4.574516e+003,1.709870e-001
4.578374e+003,1.751782e-001
4.582230e+003,1.699890e-001
4.586087e+003,1.670311e-001
4.589945e+003,1.732188e-001
4.593802e+003,1.735253e-001
4.597659e+003,1.742491e-001
4.601516e+003,1.752134e-001
4.605373e+003,1.700740e-001
4.609230e+003,1.685841e-001
4.613087e+003,1.709028e-001
4.616944e+003,1.725592e-001
4.620801e+003,1.693049e-001
4.624659e+003,1.665177e-001
4.628516e+003,1.694411e-001
4.632373e+003,1.725173e-001
4.636230e+003,1.717280e-001
4.640087e+003,1.722905e-001
4.643944e+003,1.714920e-001
4.647801e+003,1.692597e-001
4.651658e+003,1.684926e-001
4.655515e+003,1.708573e-001
4.659373e+003,1.710522e-001
4.663229e+003,1.660394e-001
4.667086e+003,1.639612e-001
4.670944e+003,1.672768e-001
4.674801e+003,1.683412e-001
4.678658e+003,1.653850e-001
4.682515e+003,1.640580e-001
4.686372e+003,1.631005e-001
4.690229e+003,1.617423e-001
4.694086e+003,1.618569e-001
4.697943e+003,1.626384e-001
4.701800e+003,1.699944e-001
4.705658e+003,1.690601e-001
4.709515e+003,1.664062e-001
4.713372e+003,1.684223e-001
4.717229e+003,1.675121e-001
4.721086e+003,1.638809e-001
4.724943e+003,1.659235e-001
4.728800e+003,1.709636e-001
4.732657e+003,1.695594e-001
4.736514e+003,1.667560e-001
4.740372e+003,1.679364e-001
4.744229e+003,1.734962e-001
4.748085e+003,1.740350e-001
4.751943e+003,1.756009e-001
4.755800e+003,1.768449e-001
4.759657e+003,1.703980e-001
4.763514e+003,1.685475e-001
4.767371e+003,1.720187e-001
4.771228e+003,1.730142e-001
4.775085e+003,1.729065e-001
4.778942e+003,1.731783e-001
4.782799e+003,1.741653e-001
4.786657e+003,1.742624e-001
4.790514e+003,1.710543e-001
4.794371e+003,1.704804e-001
4.798228e+003,1.699540e-001
4.802085e+003,1.697026e-001
4.805942e+003,1.692131e-001
4.809799e+003,1.673514e-001
4.813656e+003,1.751601e-001
4.817513e+003,1.769572e-001
4.821371e+003,1.735228e-001
4.825228e+003,1.744553e-001
4.829084e+003,1.713204e-001
4.832942e+003,1.726896e-001
4.836799e+003,1.738537e-001
4.840656e+003,1.724367e-001
4.844513e+003,1.737800e-001
4.848370e+003,1.741398e-001
4.852227e+003,1.706892e-001
4.856084e+003,1.715470e-001
4.859941e+003,1.673373e-001
4.863798e+003,1.638711e-001
4.867656e+003,1.661937e-001
4.871513e+003,1.632165e-001
4.875370e+003,1.627207e-001
4.879227e+003,1.665275e-001
4.883084e+003,1.655424e-001
4.886941e+003,1.647990e-001
4.890798e+003,1.633528e-001
4.894655e+003,1.584561e-001
4.898512e+003,1.585134e-001
4.902370e+003,1.679800e-001
4.906227e+003,1.665583e-001
4.910083e+003,1.619662e-001
4.913941e+003,1.675122e-001
4.917798e+003,1.745231e-001
4.921655e+003,1.691259e-001
4.925512e+003,1.644087e-001
4.929369e+003,1.604260e-001
4.933226e+003,1.678998e-001
4.937083e+003,1.723215e-001
4.940940e+003,1.706693e-001
4.944797e+003,1.682425e-001
4.948655e+003,1.643265e-001
4.952512e+003,1.655386e-001
4.956369e+003,1.741436e-001
4.960226e+003,1.746381e-001
4.964083e+003,1.701723e-001
4.967940e+003,1.772112e-001
4.971797e+003,1.789826e-001
4.975654e+003,1.710644e-001
4.979511e+003,1.720184e-001
4.983369e+003,1.785817e-001
4.987226e+003,1.728054e-001
4.991083e+003,1.603784e-001
4.994940e+003,1.638854e-001
4.998797e+003,1.769228e-001
5.002654e+003,1.756248e-001
5.006511e+003,1.622251e-001
5.010368e+003,1.616100e-001
5.014225e+003,1.677449e-001
5.018083e+003,1.698544e-001
5.021939e+003,1.708514e-001
5.025796e+003,1.686669e-001
5.029654e+003,1.611092e-001
5.033511e+003,1.601340e-001
5.037368e+003,1.659050e-001
5.041225e+003,1.655887e-001
5.045082e+003,1.675348e-001
5.048939e+003,1.655982e-001
5.052796e+003,1.606678e-001
5.056653e+003,1.597179e-001
5.060510e+003,1.620590e-001
5.064368e+003,1.604865e-001
5.068225e+003,1.613198e-001
5.072082e+003,1.658686e-001
5.075939e+003,1.714473e-001
5.079796e+003,1.707105e-001
5.083653e+003,1.648521e-001
5.087510e+003,1.696009e-001
5.091367e+003,1.801951e-001
5.095224e+003,1.784792e-001
5.099082e+003,1.670512e-001
5.102938e+003,1.666456e-001
5.106795e+003,1.751320e-001
5.110653e+003,1.738960e-001
5.114510e+003,1.737913e-001
5.118367e+003,1.736445e-001
5.122224e+003,1.696915e-001
5.126081e+003,1.691698e-001
5.129938e+003,1.691138e-001
5.133795e+003,1.667275e-001
5.137652e+003,1.720393e-001
5.141509e+003,1.711554e-001
5.145367e+003,1.686162e-001
5.149224e+003,1.707154e-001
5.153081e+003,1.778503e-001
5.156938e+003,1.871030e-001
5.160795e+003,1.910943e-001
5.164652e+003,1.876811e-001
5.168509e+003,1.844979e-001
5.172366e+003,1.766131e-001
5.176223e+003,1.737844e-001
5.180081e+003,1.829486e-001
5.183938e+003,1.872623e-001
5.187794e+003,1.846996e-001
5.191652e+003,1.815371e-001
5.195509e+003,1.816370e-001
5.199366e+003,1.804591e-001
5.203223e+003,1.817636e-001
5.207080e+003,1.838643e-001
5.210937e+003,1.819547e-001
5.214794e+003,1.733969e-001
5.218651e+003,1.724526e-001
5.222508e+003,1.702600e-001
5.226366e+003,1.701807e-001
5.230223e+003,1.767818e-001
5.234080e+003,1.858169e-001
5.237937e+003,1.841422e-001
5.241794e+003,1.728334e-001
5.245651e+003,1.649785e-001
5.249508e+003,1.708069e-001
5.253365e+003,1.781205e-001
5.257222e+003,1.833307e-001
5.261080e+003,1.815054e-001
5.264937e+003,1.698374e-001
5.268793e+003,1.634392e-001
5.272651e+003,1.706941e-001
5.276508e+003,1.801865e-001
5.280365e+003,1.789531e-001
5.284222e+003,1.696869e-001
5.288079e+003,1.686673e-001
5.291936e+003,1.728448e-001
5.295793e+003,1.689437e-001
5.299650e+003,1.682183e-001
5.303507e+003,1.743095e-001
5.307365e+003,1.778029e-001
5.311222e+003,1.798070e-001
5.315079e+003,1.783822e-001
5.318936e+003,1.735872e-001
5.322793e+003,1.768868e-001
5.326650e+003,1.803869e-001
5.330507e+003,1.760838e-001
5.334364e+003,1.716416e-001
5.338221e+003,1.767536e-001
5.342079e+003,1.841503e-001
5.345936e+003,1.802605e-001
5.349792e+003,1.781904e-001
5.353650e+003,1.772833e-001
5.357507e+003,1.673415e-001
5.361364e+003,1.699328e-001
5.365221e+003,1.743264e-001
5.369078e+003,1.749815e-001
5.372935e+003,1.777237e-001
5.376792e+003,1.764254e-001
5.380649e+003,1.813010e-001
5.384506e+003,1.830908e-001
5.388364e+003,1.800525e-001
5.392221e+003,1.800161e-001
5.396078e+003,1.787820e-001
5.399935e+003,1.744997e-001
5.403792e+003,1.766939e-001
5.407649e+003,1.785398e-001
5.411506e+003,1.828760e-001
5.415363e+003,1.825421e-001
5.419220e+003,1.678488e-001
5.423078e+003,1.670552e-001
5.426935e+003,1.742139e-001
5.430792e+003,1.780414e-001
5.434649e+003,1.786211e-001
5.438506e+003,1.722594e-001
5.442363e+003,1.717190e-001
5.446220e+003,1.702613e-001
5.450077e+003,1.725748e-001
5.453934e+003,1.812308e-001
5.457792e+003,1.764857e-001
5.461648e+003,1.692482e-001
5.465505e+003,1.649912e-001
5.469363e+003,1.628657e-001
5.473220e+003,1.711186e-001
5.477077e+003,1.789622e-001
5.480934e+003,1.797404e-001
5.484791e+003,1.758392e-001
5.488648e+003,1.748899e-001
5.492505e+003,1.777439e-001
5.496362e+003,1.751993e-001
5.500219e+003,1.733169e-001
5.504077e+003,1.745244e-001
5.507934e+003,1.792698e-001
5.511791e+003,1.821883e-001
5.515648e+003,1.736499e-001
5.519505e+003,1.662502e-001
5.523362e+003,1.697497e-001
5.527219e+003,1.758719e-001
5.531076e+003,1.725026e-001
5.534933e+003,1.780877e-001
5.538791e+003,1.841396e-001
5.542647e+003,1.804982e-001
5.546504e+003,1.777026e-001
5.550362e+003,1.751351e-001
5.554219e+003,1.766443e-001
5.558076e+003,1.805362e-001
5.561933e+003,1.771768e-001
5.565790e+003,1.729920e-001
5.569647e+003,1.756435e-001
5.573504e+003,1.804548e-001
5.577361e+003,1.820110e-001
5.581218e+003,1.858202e-001
5.585076e+003,1.865374e-001
5.588933e+003,1.781184e-001
5.592790e+003,1.715012e-001
5.596647e+003,1.709922e-001
5.600504e+003,1.727157e-001
5.604361e+003,1.755445e-001
5.608218e+003,1.663161e-001
5.612075e+003,1.612897e-001
5.615932e+003,1.683831e-001
5.619790e+003,1.733544e-001
5.623646e+003,1.763135e-001
5.627503e+003,1.764689e-001
5.631361e+003,1.773916e-001
5.635218e+003,1.780300e-001
5.639075e+003,1.718141e-001
5.642932e+003,1.652123e-001
5.646789e+003,1.652127e-001
5.650646e+003,1.681522e-001
5.654503e+003,1.672381e-001
5.658360e+003,1.628697e-001
5.662217e+003,1.636664e-001
5.666075e+003,1.703577e-001
5.669932e+003,1.724746e-001
5.673789e+003,1.711687e-001
5.677646e+003,1.708705e-001
5.681503e+003,1.685947e-001
5.685360e+003,1.650426e-001
5.689217e+003,1.656611e-001
5.693074e+003,1.688973e-001
5.696931e+003,1.690117e-001
5.700789e+003,1.632434e-001
5.704646e+003,1.616946e-001
5.708502e+003,1.741749e-001
5.712360e+003,1.800303e-001
5.716217e+003,1.782793e-001
5.720074e+003,1.818079e-001
5.723931e+003,1.784175e-001
5.727788e+003,1.787327e-001
5.731645e+003,1.800865e-001
5.735502e+003,1.749718e-001
5.739359e+003,1.709420e-001
5.743216e+003,1.722601e-001
5.747074e+003,1.749533e-001
5.750931e+003,1.706951e-001
5.754788e+003,1.691469e-001
5.758645e+003,1.728566e-001
5.762502e+003,1.757234e-001
5.766359e+003,1.761469e-001
5.770216e+003,1.791327e-001
5.774073e+003,1.780810e-001
5.777930e+003,1.815459e-001
5.781788e+003,1.869541e-001
5.785645e+003,1.825863e-001
5.789501e+003,1.746801e-001
5.793359e+003,1.652053e-001
5.797216e+003,1.644716e-001
5.801073e+003,1.751966e-001
5.804930e+003,1.816977e-001
5.808787e+003,1.798365e-001
5.812644e+003,1.642274e-001
5.816501e+003,1.541866e-001
5.820358e+003,1.578924e-001
5.824215e+003,1.693984e-001
5.828073e+003,1.714803e-001
5.831930e+003,1.637082e-001
5.835787e+003,1.597500e-001
5.839644e+003,1.610864e-001
5.843501e+003,1.614164e-001
5.847358e+003,1.703627e-001
5.851215e+003,1.763108e-001
5.855072e+003,1.767972e-001
5.858929e+003,1.789251e-001
5.862787e+003,1.677067e-001
5.866644e+003,1.659343e-001
5.870500e+003,1.699350e-001
5.874358e+003,1.679541e-001
5.878215e+003,1.639116e-001
5.882072e+003,1.657935e-001
5.885929e+003,1.723538e-001
5.889786e+003,1.707451e-001
5.893643e+003,1.670418e-001
5.897500e+003,1.755001e-001
5.901357e+003,1.769284e-001
5.905214e+003,1.817709e-001
5.909072e+003,1.788534e-001
5.912929e+003,1.754721e-001
5.916786e+003,1.758614e-001
5.920643e+003,1.744938e-001
5.924500e+003,1.771838e-001
5.928357e+003,1.860803e-001
5.932214e+003,1.847373e-001
5.936071e+003,1.791437e-001
5.939928e+003,1.828807e-001
5.943786e+003,1.768899e-001
5.947643e+003,1.725294e-001
5.951500e+003,1.727715e-001
5.955357e+003,1.720558e-001
5.959214e+003,1.781214e-001
5.963071e+003,1.817419e-001
5.966928e+003,1.831425e-001
5.970785e+003,1.786650e-001
5.974642e+003,1.684518e-001
5.978500e+003,1.629879e-001
5.982356e+003,1.686344e-001
5.986213e+003,1.811316e-001
5.990071e+003,1.873415e-001
5.993928e+003,1.764700e-001
5.997785e+003,1.732833e-001
6.001642e+003,1.740223e-001
6.005499e+003,1.783693e-001
6.009356e+003,1.795740e-001
6.013213e+003,1.797617e-001
6.017070e+003,1.715133e-001
6.020927e+003,1.631379e-001
6.024785e+003,1.618398e-001
6.028642e+003,1.707147e-001
6.032499e+003,1.755220e-001
6.036356e+003,1.729538e-001
6.040213e+003,1.689620e-001
6.044070e+003,1.683015e-001
6.047927e+003,1.712080e-001
6.051784e+003,1.725854e-001
6.055641e+003,1.764628e-001
6.059499e+003,1.816536e-001
6.063355e+003,1.798151e-001
6.067212e+003,1.734826e-001
6.071070e+003,1.718682e-001
6.074927e+003,1.708691e-001
6.078784e+003,1.679310e-001
6.082641e+003,1.779345e-001
6.086498e+003,1.843477e-001
6.090355e+003,1.710089e-001
6.094212e+003,1.664864e-001
6.098069e+003,1.687484e-001
6.101926e+003,1.685452e-001
6.105784e+003,1.700844e-001
6.109641e+003,1.797649e-001
6.113498e+003,1.749883e-001
6.117355e+003,1.749886e-001
6.121212e+003,1.763660e-001
6.125069e+003,1.746701e-001
6.128926e+003,1.755866e-001
6.132783e+003,1.870129e-001
6.136640e+003,1.906043e-001
6.140498e+003,1.829363e-001
6.144354e+003,1.768188e-001
6.148211e+003,1.701602e-001
6.152069e+003,1.654138e-001
6.155926e+003,1.700002e-001
6.159783e+003,1.883629e-001
6.163640e+003,1.990856e-001
6.167497e+003,1.771622e-001
6.171354e+003,1.563871e-001
6.175211e+003,1.632839e-001
6.179068e+003,1.869889e-001
6.182925e+003,1.876786e-001
6.186783e+003,1.827006e-001
6.190640e+003,1.879108e-001
6.194497e+003,1.874668e-001
6.198354e+003,1.817365e-001
6.202211e+003,1.688132e-001
6.206068e+003,1.647823e-001
6.209925e+003,1.806405e-001
6.213782e+003,1.947285e-001
6.217639e+003,1.859761e-001
6.221497e+003,1.748549e-001
6.225354e+003,1.689402e-001
6.229210e+003,1.650591e-001
6.233068e+003,1.718533e-001
6.236925e+003,1.759974e-001
6.240782e+003,1.721584e-001
6.244639e+003,1.711009e-001
6.248496e+003,1.721838e-001
6.252353e+003,1.750517e-001
6.256210e+003,1.845646e-001
6.260067e+003,1.863335e-001
6.263924e+003,1.780346e-001
6.267782e+003,1.742802e-001
6.271639e+003,1.744393e-001
6.275496e+003,1.773630e-001
6.279353e+003,1.782219e-001
6.283210e+003,1.749208e-001
6.287067e+003,1.787947e-001
6.290924e+003,1.644163e-001
6.294781e+003,1.569872e-001
6.298638e+003,1.768102e-001
6.302496e+003,1.956795e-001
6.306353e+003,1.905665e-001
6.310209e+003,1.703234e-001
6.314067e+003,1.601064e-001
6.317924e+003,1.686338e-001
6.321781e+003,1.723644e-001
6.325638e+003,1.718716e-001
6.329495e+003,1.754892e-001
6.333352e+003,1.898381e-001
6.337209e+003,2.031527e-001
6.341066e+003,2.099909e-001
6.344923e+003,2.134265e-001
6.348780e+003,2.033092e-001
6.352638e+003,1.943095e-001
6.356495e+003,1.920935e-001
6.360352e+003,1.724489e-001
6.364209e+003,1.725388e-001
6.368066e+003,1.852288e-001
6.371923e+003,1.781670e-001
6.375780e+003,1.793018e-001
6.379637e+003,1.877845e-001
6.383494e+003,1.841750e-001
6.387352e+003,1.810447e-001
6.391208e+003,1.713815e-001
6.395065e+003,1.648772e-001
6.398923e+003,1.749762e-001
6.402780e+003,1.820501e-001
6.406637e+003,1.803484e-001
6.410494e+003,1.700106e-001
6.414351e+003,1.774145e-001
6.418208e+003,1.862393e-001
6.422065e+003,1.788485e-001
6.425922e+003,1.693956e-001
6.429779e+003,1.649380e-001
6.433637e+003,1.756424e-001
6.437494e+003,1.694405e-001
6.441351e+003,1.616307e-001
6.445208e+003,1.644940e-001
6.449065e+003,1.723759e-001
6.452922e+003,1.652157e-001
6.456779e+003,1.568810e-001
6.460636e+003,1.668228e-001
6.464493e+003,1.698486e-001
6.468351e+003,1.580465e-001
6.472208e+003,1.572654e-001
6.476064e+003,1.667287e-001
6.479922e+003,1.698695e-001
6.483779e+003,1.694435e-001
6.487636e+003,1.753917e-001
6.491493e+003,1.854749e-001
6.495350e+003,1.813584e-001
6.499207e+003,1.866519e-001
6.503064e+003,1.880944e-001
6.506921e+003,1.801567e-001
6.510778e+003,1.878679e-001
6.514636e+003,1.867925e-001
6.518493e+003,1.711181e-001
6.522350e+003,1.718823e-001
6.526207e+003,1.749883e-001
6.530064e+003,1.781449e-001
6.533921e+003,1.923518e-001
6.537778e+003,1.932025e-001
6.541635e+003,1.912676e-001
6.545492e+003,1.846244e-001
6.549350e+003,1.723907e-001
6.553207e+003,1.841298e-001
6.557063e+003,1.924724e-001
6.560921e+003,1.844174e-001
6.564778e+003,1.932485e-001
6.568635e+003,1.932701e-001
6.572492e+003,1.776065e-001
6.576349e+003,1.722447e-001
6.580206e+003,1.860943e-001
6.584063e+003,1.836234e-001
6.587920e+003,1.781365e-001
6.591777e+003,1.705272e-001
6.595635e+003,1.643151e-001
6.599492e+003,1.803081e-001
6.603349e+003,1.919617e-001
6.607206e+003,1.859372e-001
6.611063e+003,1.722259e-001
6.614920e+003,1.650113e-001
6.618777e+003,1.794635e-001
6.622634e+003,1.964317e-001
6.626491e+003,1.796677e-001
6.630349e+003,1.700159e-001
6.634206e+003,1.742414e-001
6.638063e+003,1.821883e-001
6.641920e+003,1.811812e-001
6.645777e+003,1.811548e-001
6.649634e+003,1.968439e-001
6.653491e+003,1.914943e-001
6.657348e+003,1.880510e-001
6.661205e+003,1.997267e-001
6.665063e+003,1.998283e-001
6.668919e+003,1.752585e-001
6.672776e+003,1.523940e-001
6.676634e+003,1.629025e-001
6.680491e+003,1.857203e-001
6.684348e+003,1.708099e-001
6.688205e+003,1.606125e-001
6.692062e+003,1.625131e-001
6.695919e+003,1.592628e-001
6.699776e+003,1.693234e-001
6.703633e+003,1.879410e-001
6.707490e+003,1.796430e-001
6.711348e+003,1.674492e-001
6.715205e+003,1.638056e-001
6.719062e+003,1.657168e-001
6.722919e+003,1.739307e-001
6.726776e+003,1.801242e-001
6.730633e+003,1.650245e-001
6.734490e+003,1.646643e-001
6.738347e+003,1.739100e-001
6.742204e+003,1.635690e-001
6.746062e+003,1.705543e-001
6.749918e+003,1.762002e-001
6.753775e+003,1.754536e-001
6.757633e+003,1.868546e-001
6.761490e+003,1.893421e-001
6.765347e+003,1.674023e-001
6.769204e+003,1.574573e-001
6.773061e+003,1.793369e-001
6.776918e+003,1.970700e-001
6.780775e+003,1.846937e-001
6.784632e+003,1.824294e-001
6.788489e+003,1.702703e-001
6.792347e+003,1.421430e-001
6.796204e+003,1.405382e-001
6.800061e+003,1.756374e-001
6.803918e+003,1.914749e-001
6.807775e+003,1.984509e-001
6.811632e+003,1.866166e-001
6.815489e+003,1.686752e-001
6.819346e+003,1.672530e-001
6.823203e+003,1.722663e-001
6.827061e+003,1.897350e-001
6.830917e+003,1.837633e-001
6.834774e+003,1.785486e-001
6.838632e+003,1.626932e-001
6.842489e+003,1.521593e-001
6.846346e+003,1.455368e-001
6.850203e+003,1.685573e-001
6.854060e+003,1.809217e-001
6.857917e+003,1.835276e-001
6.861774e+003,1.696222e-001
6.865631e+003,1.495708e-001
6.869488e+003,1.583002e-001
6.873346e+003,1.675874e-001
6.877203e+003,1.617700e-001
6.881060e+003,1.857494e-001
6.884917e+003,2.006415e-001
6.888774e+003,1.837586e-001
6.892631e+003,1.966731e-001
6.896488e+003,1.929471e-001
6.900345e+003,1.986426e-001
6.904202e+003,2.137993e-001
6.908060e+003,1.955880e-001
6.911917e+003,1.810097e-001
6.915773e+003,2.010735e-001
6.919631e+003,1.962790e-001
6.923488e+003,1.680106e-001
6.927345e+003,1.465934e-001
6.931202e+003,1.609888e-001
6.935059e+003,1.729086e-001
6.938916e+003,1.610843e-001
6.942773e+003,1.691620e-001
6.946630e+003,1.738680e-001
6.950487e+003,1.835140e-001
6.954345e+003,1.799158e-001
6.958202e+003,1.789657e-001
6.962059e+003,1.895531e-001
6.965916e+003,1.950668e-001
6.969773e+003,1.841389e-001
6.973630e+003,1.780260e-001
6.977487e+003,1.849377e-001
6.981344e+003,1.963437e-001
6.985201e+003,1.810444e-001
6.989059e+003,1.741548e-001
6.992916e+003,1.708540e-001
6.996772e+003,1.696910e-001
7.000630e+003,1.741282e-001
7.004487e+003,1.771618e-001
7.008344e+003,1.806891e-001
7.012201e+003,1.855706e-001
7.016058e+003,1.880935e-001
7.019915e+003,1.670399e-001
7.023772e+003,1.391605e-001
7.027629e+003,1.254333e-001
7.031486e+003,1.312040e-001
7.035344e+003,1.490493e-001
7.039201e+003,1.656064e-001
7.043058e+003,1.624110e-001
7.046915e+003,1.626093e-001
7.050772e+003,1.798641e-001
7.054629e+003,1.777275e-001
7.058486e+003,1.741597e-001
7.062343e+003,1.735855e-001
7.066200e+003,1.750720e-001
7.070058e+003,1.922167e-001
7.073915e+003,1.969277e-001
7.077771e+003,1.818412e-001
7.081629e+003,1.810196e-001
7.085486e+003,1.836181e-001
7.089343e+003,1.804515e-001
7.093200e+003,1.795661e-001
7.097057e+003,1.987427e-001
7.100914e+003,1.985090e-001
7.104771e+003,1.936344e-001
7.108628e+003,2.007582e-001
7.112485e+003,1.833012e-001
7.116343e+003,1.710846e-001
7.120200e+003,1.684654e-001
7.124057e+003,1.615069e-001
7.127914e+003,1.658922e-001
7.131771e+003,1.954566e-001
7.135628e+003,1.955201e-001
7.139485e+003,1.766079e-001
7.143342e+003,1.720687e-001
7.147199e+003,1.670875e-001
7.151057e+003,1.758689e-001
7.154914e+003,1.672330e-001
7.158771e+003,1.865608e-001
7.162628e+003,1.897586e-001
7.166485e+003,1.807321e-001
7.170342e+003,1.959257e-001
7.174199e+003,2.028215e-001
7.178056e+003,2.027245e-001
7.181913e+003,1.988172e-001
7.185771e+003,2.211087e-001
7.189627e+003,2.200031e-001
7.193484e+003,1.748635e-001
7.197342e+003,1.731495e-001
7.201199e+003,1.888793e-001
7.205056e+003,1.735696e-001
7.208913e+003,1.638269e-001
7.212770e+003,1.649292e-001
7.216627e+003,1.789867e-001
7.220484e+003,1.883491e-001
7.224341e+003,1.962831e-001
7.228198e+003,1.923125e-001
7.232056e+003,2.042438e-001
7.235913e+003,1.877780e-001
7.239770e+003,1.947642e-001
7.243627e+003,1.746745e-001
7.247484e+003,1.523132e-001
7.251341e+003,1.666785e-001
7.255198e+003,1.807558e-001
7.259055e+003,1.782811e-001
7.262912e+003,1.769412e-001
7.266770e+003,1.936333e-001
7.270626e+003,2.109550e-001
7.274483e+003,2.029957e-001
7.278341e+003,1.881655e-001
7.282198e+003,2.157998e-001
7.286055e+003,2.068259e-001
7.289912e+003,1.660619e-001
7.293769e+003,1.656322e-001
7.297626e+003,1.595398e-001
7.301483e+003,1.672556e-001
7.305340e+003,1.785884e-001
7.309197e+003,1.852349e-001
7.313055e+003,1.783104e-001
7.316912e+003,1.873574e-001
7.320769e+003,2.159844e-001
7.324626e+003,2.269917e-001
7.328483e+003,2.002387e-001
7.332340e+003,1.933452e-001
7.336197e+003,1.678310e-001
7.340054e+003,1.604661e-001
7.343911e+003,1.883271e-001
7.347769e+003,2.240844e-001
7.351625e+003,2.212660e-001
7.355482e+003,1.723278e-001
7.359340e+003,1.517603e-001
7.363197e+003,1.782549e-001
7.367054e+003,1.821028e-001
7.370911e+003,1.663044e-001
7.374768e+003,1.597546e-001
7.378625e+003,1.651350e-001
7.382482e+003,1.725720e-001
7.386339e+003,1.579336e-001
7.390196e+003,1.913532e-001
7.394054e+003,2.388331e-001
7.397911e+003,2.019621e-001
7.401768e+003,1.336222e-001
7.405625e+003,1.048602e-001
7.409482e+003,1.138236e-001
7.413339e+003,1.475225e-001
7.417196e+003,1.945255e-001
7.421053e+003,2.170871e-001
7.424910e+003,2.002737e-001
7.428768e+003,1.705230e-001
7.432625e+003,1.778390e-001
7.436481e+003,2.011777e-001
7.440339e+003,2.315793e-001
7.444196e+003,2.294180e-001
7.448053e+003,1.663120e-001
7.451910e+003,1.319689e-001
7.455767e+003,1.453925e-001
7.459624e+003,1.573893e-001
7.463481e+003,1.773233e-001
7.467338e+003,1.571646e-001
7.471195e+003,1.841775e-001
7.475053e+003,2.292149e-001
7.478910e+003,2.098636e-001
7.482767e+003,2.153479e-001
7.486624e+003,2.262874e-001
7.490481e+003,2.028634e-001
7.494338e+003,2.049781e-001
7.498195e+003,2.243039e-001
7.502052e+003,2.120744e-001
7.505909e+003,1.709806e-001
7.509767e+003,1.521085e-001
7.513624e+003,1.744570e-001
7.517480e+003,1.995934e-001
7.521338e+003,1.796381e-001
7.525195e+003,1.319909e-001
7.529052e+003,1.308138e-001
7.532909e+003,1.561911e-001
7.536766e+003,2.002919e-001
7.540623e+003,1.687780e-001
7.544480e+003,1.191316e-001
7.548337e+003,1.063059e-001
7.552194e+003,1.159884e-001
7.556052e+003,1.545807e-001
7.559909e+003,2.127259e-001
7.563766e+003,2.016938e-001
7.567623e+003,1.512596e-001
7.571480e+003,1.122469e-001
7.575337e+003,1.040849e-001
7.579194e+003,1.507912e-001
7.583051e+003,1.666752e-001
7.586908e+003,1.361394e-001
7.590766e+003,1.575502e-001
7.594623e+003,1.886541e-001
7.598479e+003,1.815878e-001
7.602337e+003,1.705952e-001
7.606194e+003,1.824076e-001
7.610051e+003,1.441814e-001
7.613908e+003,1.110565e-001
7.617765e+003,1.169968e-001
7.621622e+003,1.483408e-001
7.625479e+003,1.486994e-001
7.629336e+003,1.354173e-001
7.633193e+003,1.265968e-001
7.637051e+003,1.178114e-001
7.640908e+003,1.027430e-001
7.644765e+003,1.062136e-001
7.648622e+003,1.645426e-001
7.652479e+003,1.716321e-001
7.656336e+003,1.606352e-001
7.660193e+003,1.934753e-001
7.664050e+003,2.281366e-001
7.667907e+003,2.453914e-001
7.671765e+003,2.251313e-001
7.675622e+003,2.019049e-001
7.679479e+003,1.854715e-001
7.683336e+003,1.615618e-001
7.687193e+003,1.616192e-001
7.691050e+003,1.651017e-001
7.694907e+003,2.083681e-001
7.698764e+003,1.934329e-001
7.702621e+003,1.183992e-001
7.706479e+003,1.302801e-001
7.710335e+003,2.436707e-001
7.714192e+003,3.279355e-001
7.718050e+003,2.416442e-001
7.721907e+003,1.728936e-001
7.725764e+003,1.623886e-001
7.729621e+003,2.014728e-001
7.733478e+003,2.085828e-001
7.737335e+003,1.553099e-001
7.741192e+003,1.228498e-001
7.745049e+003,1.676961e-001
7.748906e+003,2.301314e-001
7.752764e+003,2.420337e-001
7.756621e+003,2.117012e-001
7.760478e+003,2.075204e-001
7.764335e+003,1.642136e-001
7.768192e+003,1.988214e-001
7.772049e+003,2.633229e-001
7.775906e+003,2.454585e-001
7.779763e+003,2.207514e-001
7.783620e+003,2.290097e-001
7.787478e+003,1.842358e-001
7.791334e+003,1.399262e-001
7.795191e+003,1.913854e-001
7.799049e+003,2.761475e-001
7.802906e+003,2.101359e-001
7.806763e+003,1.307010e-001
7.810620e+003,1.416128e-001
7.814477e+003,1.792003e-001
7.818334e+003,1.951293e-001
7.822191e+003,2.222274e-001
7.826048e+003,2.196480e-001
7.829905e+003,2.266700e-001
7.833763e+003,2.207679e-001
7.837620e+003,1.557500e-001
7.841477e+003,1.610035e-001
7.845334e+003,2.055189e-001
7.849191e+003,2.046311e-001
7.853048e+003,2.538360e-001
7.856905e+003,2.541927e-001
7.860762e+003,1.942864e-001
7.864619e+003,2.268176e-001
7.868477e+003,2.844829e-001
7.872333e+003,3.566756e-001
7.876190e+003,2.984956e-001
7.880048e+003,2.074833e-001
7.883905e+003,1.664586e-001
7.887762e+003,2.290935e-001
7.891619e+003,2.763622e-001
7.895476e+003,2.316959e-001
7.899333e+003,1.742049e-001
7.903190e+003,1.990634e-001
7.907047e+003,2.727771e-001
7.910904e+003,2.649498e-001
7.914762e+003,2.950807e-001
7.918619e+003,3.351373e-001
7.922476e+003,2.655393e-001
7.926333e+003,1.611275e-001
7.930190e+003,1.310779e-001
7.934047e+003,1.561430e-001
7.937904e+003,1.719361e-001
7.941761e+003,1.404942e-001
7.945618e+003,1.600592e-001
7.949476e+003,2.516479e-001
7.953333e+003,2.082660e-001
7.957189e+003,1.394322e-001
7.961047e+003,1.165565e-001
7.964904e+003,1.409571e-001
7.968761e+003,1.484393e-001
7.972618e+003,1.583447e-001
7.976475e+003,2.964847e-001
7.980332e+003,3.436815e-001
7.984189e+003,2.621672e-001
7.988046e+003,1.290412e-001
7.991903e+003,1.053599e-001
7.995761e+003,1.581755e-001
7.999618e+003,1.512952e-001
