4.011380e+002,6.000000e+000
4.049951e+002,1.505051e+000
4.088522e+002,6.000000e+000
4.127093e+002,-3.961558e-001
4.165664e+002,6.000000e+000
4.204235e+002,-8.132513e-001
4.242806e+002,6.000000e+000
4.281377e+002,6.000000e+000
4.319948e+002,6.000000e+000
4.358519e+002,6.000000e+000
4.397090e+002,6.000000e+000
4.435661e+002,1.003732e+000
4.474232e+002,-3.317696e-001
4.512803e+002,6.000000e+000
4.551374e+002,6.000000e+000
4.589945e+002,6.333957e-001
4.628516e+002,9.998165e-002
4.667087e+002,6.000000e+000
4.705658e+002,6.000000e+000
4.744229e+002,1.024000e-001
4.782800e+002,6.000000e+000
4.821371e+002,6.000000e+000
4.859941e+002,6.000000e+000
4.898513e+002,6.000000e+000
4.937083e+002,-4.015584e-002
4.975654e+002,-3.453349e-002
5.014225e+002,-2.152137e-001
5.052796e+002,1.009333e+000
5.091367e+002,6.000000e+000
5.129938e+002,3.065971e-001
5.168509e+002,6.000000e+000
5.207080e+002,6.000000e+000
5.245651e+002,1.490542e-001
5.284222e+002,6.000000e+000
5.322793e+002,6.000000e+000
5.361364e+002,6.000000e+000
5.399935e+002,6.000000e+000
5.438506e+002,6.000000e+000
5.477077e+002,-3.738371e-001
5.515648e+002,2.885426e-001
5.554219e+002,6.224524e-001
5.592790e+002,6.000000e+000
5.631361e+002,6.000000e+000
5.669932e+002,6.000000e+000
5.708503e+002,6.000000e+000
5.747074e+002,6.000000e+000
5.785645e+002,6.000000e+000
5.824216e+002,6.000000e+000
5.862787e+002,6.000000e+000
5.901357e+002,-7.633945e-001
5.939929e+002,6.000000e+000
5.978499e+002,9.710923e-001
6.017070e+002,6.000000e+000
6.055641e+002,6.000000e+000
6.094212e+002,6.000000e+000
6.132783e+002,6.000000e+000
6.171354e+002,-4.792235e-002
6.209925e+002,6.000000e+000
6.248496e+002,6.895943e-003
6.287067e+002,-2.464579e-001
6.325638e+002,-6.659226e-001
6.364209e+002,6.000000e+000
6.402780e+002,6.000000e+000
6.441351e+002,6.000000e+000
6.479922e+002,6.636977e-001
6.518493e+002,6.000000e+000
6.557064e+002,6.000000e+000
6.595635e+002,1.721368e+000
6.634205e+002,6.000000e+000
6.672777e+002,6.000000e+000
6.711348e+002,5.381324e-001
6.749918e+002,1.853958e-001
6.788490e+002,6.000000e+000
6.827061e+002,6.000000e+000
6.865631e+002,6.294310e-001
6.904203e+002,-9.283519e-002
6.942773e+002,6.000000e+000
6.981344e+002,-8.421962e-002
7.019916e+002,8.324799e-002
7.058486e+002,7.644920e-001
7.097057e+002,6.000000e+000
7.135629e+002,1.104063e+000
7.174199e+002,2.040081e-001
7.212770e+002,6.000000e+000
7.251342e+002,1.940041e-001
7.289912e+002,1.097822e+000
7.328483e+002,6.000000e+000
7.367054e+002,6.000000e+000
7.405625e+002,6.000000e+000
7.444196e+002,2.136570e-001
7.482767e+002,4.399089e-001
7.521338e+002,3.577860e-001
7.559908e+002,-7.093238e-002
7.598480e+002,-6.882430e-001
7.637051e+002,6.000000e+000
7.675621e+002,-4.257876e-001
7.714193e+002,6.000000e+000
7.752764e+002,6.000000e+000
7.791334e+002,6.000000e+000
7.829905e+002,-2.353129e-002
7.868477e+002,-6.834974e-001
7.907047e+002,7.057405e-001
7.945618e+002,7.342349e-001
7.984189e+002,6.000000e+000
8.022760e+002,6.000000e+000
8.061331e+002,6.000000e+000
8.099902e+002,6.000000e+000
8.138473e+002,-8.835290e-001
8.177044e+002,-3.003096e-002
8.215615e+002,1.291122e-001
8.254186e+002,6.969904e-001
8.292757e+002,6.000000e+000
8.331328e+002,2.095247e-001
8.369899e+002,8.187914e-002
8.408470e+002,8.288849e-001
8.447041e+002,6.000000e+000
8.485612e+002,6.000000e+000
8.524183e+002,1.190656e+000
8.562754e+002,3.463733e-001
8.601324e+002,6.781248e-001
8.639896e+002,6.000000e+000
8.678467e+002,6.000000e+000
8.717037e+002,6.000000e+000
8.755609e+002,1.124241e+000
8.794180e+002,1.924947e+000
8.832750e+002,6.000000e+000
8.871321e+002,6.000000e+000
8.909893e+002,6.000000e+000
8.948463e+002,1.439695e+000
8.987034e+002,1.331620e+000
9.025605e+002,6.000000e+000
9.064176e+002,6.000000e+000
9.102747e+002,6.000000e+000
9.141318e+002,1.503882e+000
9.179889e+002,1.666735e+000
9.218461e+002,6.000000e+000
9.257031e+002,6.000000e+000
9.295602e+002,6.000000e+000
9.334174e+002,1.153298e+000
9.372744e+002,8.491906e-001
9.411315e+002,1.160126e+000
9.449886e+002,1.746594e+000
9.488457e+002,1.680182e+000
9.527028e+002,1.603143e+000
9.565599e+002,6.000000e+000
9.604170e+002,6.000000e+000
9.642740e+002,6.000000e+000
9.681312e+002,1.437684e+000
9.719883e+002,1.387613e+000
9.758453e+002,2.481519e+000
9.797025e+002,1.399591e+000
9.835596e+002,1.309928e+000
9.874166e+002,1.661022e+000
9.912738e+002,1.977502e+000
9.951309e+002,1.912784e+000
9.989879e+002,1.854851e+000
1.002845e+003,6.000000e+000
1.006702e+003,6.000000e+000
1.010559e+003,1.525935e+000
1.014416e+003,1.495664e+000
1.018273e+003,1.534533e+000
1.022130e+003,1.432752e+000
1.025988e+003,1.703479e+000
1.029845e+003,1.746612e+000
1.033702e+003,1.357348e+000
1.037559e+003,1.331530e+000
1.041416e+003,1.323153e+000
1.045273e+003,1.399521e+000
1.049130e+003,1.397636e+000
1.052987e+003,1.596577e+000
1.056844e+003,1.540408e+000
1.060702e+003,1.347443e+000
1.064559e+003,1.160880e+000
1.068416e+003,1.024836e+000
1.072273e+003,1.172726e+000
1.076130e+003,1.242507e+000
1.079987e+003,1.204530e+000
1.083844e+003,1.394214e+000
1.087701e+003,1.520955e+000
1.091558e+003,1.309385e+000
1.095415e+003,1.270845e+000
1.099272e+003,1.239531e+000
1.103130e+003,1.202998e+000
1.106987e+003,1.194619e+000
1.110844e+003,1.153998e+000
1.114701e+003,1.142951e+000
1.118558e+003,1.086768e+000
1.122415e+003,1.034418e+000
1.126272e+003,1.049975e+000
1.130129e+003,1.163378e+000
1.133986e+003,1.165586e+000
1.137843e+003,1.097858e+000
1.141701e+003,1.037664e+000
1.145558e+003,9.797498e-001
1.149415e+003,9.373310e-001
1.153272e+003,9.142383e-001
1.157129e+003,9.590052e-001
1.160986e+003,9.591450e-001
1.164843e+003,9.146889e-001
1.168700e+003,9.648849e-001
1.172557e+003,9.723353e-001
1.176414e+003,9.477455e-001
1.180271e+003,9.789445e-001
1.184129e+003,9.590667e-001
1.187986e+003,9.293679e-001
1.191843e+003,9.482870e-001
1.195700e+003,9.406926e-001
1.199557e+003,9.100948e-001
1.203414e+003,8.712611e-001
1.207271e+003,8.698020e-001
1.211128e+003,8.510193e-001
1.214985e+003,7.941495e-001
1.218842e+003,7.243893e-001
1.222699e+003,6.761545e-001
1.226557e+003,6.286299e-001
1.230414e+003,5.670594e-001
1.234271e+003,5.254282e-001
1.238128e+003,4.890438e-001
1.241985e+003,4.224385e-001
1.245842e+003,3.993379e-001
1.249699e+003,3.993925e-001
1.253556e+003,3.883511e-001
1.257413e+003,3.715267e-001
1.261271e+003,3.427623e-001
1.265128e+003,3.306685e-001
1.268985e+003,3.246173e-001
1.272842e+003,3.109826e-001
1.276699e+003,2.975609e-001
1.280556e+003,2.921793e-001
1.284413e+003,2.872564e-001
1.288270e+003,2.735138e-001
1.292127e+003,2.652057e-001
1.295984e+003,2.510565e-001
1.299841e+003,2.477668e-001
1.303698e+003,2.507793e-001
1.307556e+003,2.443894e-001
1.311413e+003,2.336564e-001
1.315270e+003,2.331893e-001
1.319127e+003,2.307635e-001
1.322984e+003,2.217683e-001
1.326841e+003,2.125443e-001
1.330698e+003,2.102920e-001
1.334555e+003,2.153843e-001
1.338412e+003,2.164679e-001
1.342270e+003,2.071888e-001
1.346127e+003,2.086610e-001
1.349984e+003,2.085136e-001
1.353841e+003,2.029543e-001
1.357698e+003,2.032257e-001
1.361555e+003,2.037711e-001
1.365412e+003,2.108678e-001
1.369269e+003,2.145230e-001
1.373126e+003,2.150081e-001
1.376983e+003,2.183114e-001
1.380840e+003,2.206976e-001
1.384698e+003,2.263654e-001
1.388555e+003,2.354575e-001
1.392412e+003,2.429382e-001
1.396269e+003,2.419191e-001
1.400126e+003,2.482089e-001
1.403983e+003,2.533297e-001
1.407840e+003,2.559075e-001
1.411697e+003,2.645681e-001
1.415554e+003,2.693815e-001
1.419411e+003,2.738587e-001
1.423269e+003,2.891354e-001
1.427126e+003,2.980247e-001
1.430983e+003,2.943918e-001
1.434840e+003,2.926303e-001
1.438697e+003,2.991744e-001
1.442554e+003,2.989087e-001
1.446411e+003,2.899936e-001
1.450268e+003,2.792225e-001
1.454125e+003,2.675025e-001
1.457982e+003,2.616851e-001
1.461839e+003,2.623053e-001
1.465697e+003,2.649735e-001
1.469554e+003,2.606373e-001
1.473411e+003,2.619124e-001
1.477268e+003,2.628361e-001
1.481125e+003,2.586693e-001
1.484982e+003,2.549949e-001
1.488839e+003,2.661819e-001
1.492696e+003,2.827196e-001
1.496553e+003,2.827750e-001
1.500411e+003,2.850264e-001
1.504268e+003,2.863514e-001
1.508125e+003,2.909046e-001
1.511982e+003,2.977410e-001
1.515839e+003,3.000823e-001
1.519696e+003,3.011763e-001
1.523553e+003,2.998415e-001
1.527410e+003,2.924397e-001
1.531267e+003,2.875046e-001
1.535124e+003,2.823296e-001
1.538981e+003,2.693571e-001
1.542839e+003,2.572075e-001
1.546696e+003,2.528588e-001
1.550553e+003,2.481640e-001
1.554410e+003,2.420177e-001
1.558267e+003,2.403301e-001
1.562124e+003,2.378816e-001
1.565981e+003,2.317958e-001
1.569838e+003,2.347547e-001
1.573695e+003,2.303723e-001
1.577552e+003,2.229316e-001
1.581410e+003,2.308088e-001
1.585267e+003,2.323872e-001
1.589124e+003,2.267254e-001
1.592981e+003,2.278647e-001
1.596838e+003,2.317997e-001
1.600695e+003,2.364473e-001
1.604552e+003,2.379750e-001
1.608409e+003,2.383566e-001
1.612266e+003,2.532682e-001
1.616123e+003,2.755117e-001
1.619980e+003,2.886879e-001
1.623838e+003,2.984093e-001
1.627695e+003,3.046876e-001
1.631552e+003,3.180021e-001
1.635409e+003,3.222744e-001
1.639266e+003,3.190271e-001
1.643123e+003,3.183285e-001
1.646980e+003,3.161535e-001
1.650837e+003,3.167254e-001
1.654694e+003,3.074667e-001
1.658551e+003,2.894805e-001
1.662409e+003,2.733737e-001
1.666266e+003,2.685766e-001
1.670123e+003,2.659746e-001
1.673980e+003,2.591595e-001
1.677837e+003,2.446520e-001
1.681694e+003,2.280997e-001
1.685551e+003,2.208898e-001
1.689408e+003,2.187084e-001
1.693265e+003,2.085795e-001
1.697122e+003,2.062168e-001
1.700979e+003,2.041742e-001
1.704837e+003,1.960570e-001
1.708694e+003,1.938804e-001
1.712551e+003,1.940433e-001
1.716408e+003,1.972639e-001
1.720265e+003,1.984865e-001
1.724122e+003,1.969415e-001
1.727979e+003,1.915121e-001
1.731836e+003,1.879782e-001
1.735693e+003,1.914694e-001
1.739550e+003,1.926504e-001
1.743408e+003,1.918818e-001
1.747265e+003,1.855411e-001
1.751122e+003,1.811377e-001
1.754979e+003,1.854768e-001
1.758836e+003,1.855165e-001
1.762693e+003,1.874060e-001
1.766550e+003,1.855371e-001
1.770407e+003,1.886343e-001
1.774264e+003,1.879551e-001
1.778121e+003,1.816133e-001
1.781979e+003,1.800524e-001
1.785836e+003,1.779077e-001
1.789693e+003,1.713962e-001
1.793550e+003,1.705061e-001
1.797407e+003,1.697217e-001
1.801264e+003,1.638815e-001
1.805121e+003,1.636230e-001
1.808978e+003,1.647187e-001
1.812835e+003,1.624437e-001
1.816692e+003,1.605899e-001
1.820549e+003,1.587553e-001
1.824407e+003,1.562979e-001
1.828264e+003,1.568390e-001
1.832121e+003,1.664300e-001
1.835978e+003,1.713010e-001
1.839835e+003,1.690963e-001
1.843692e+003,1.652339e-001
1.847549e+003,1.629226e-001
1.851406e+003,1.607256e-001
1.855263e+003,1.578428e-001
1.859120e+003,1.628942e-001
1.862978e+003,1.683599e-001
1.866835e+003,1.647304e-001
1.870692e+003,1.576983e-001
1.874549e+003,1.600311e-001
1.878406e+003,1.648131e-001
1.882263e+003,1.630092e-001
1.886120e+003,1.649578e-001
1.889977e+003,1.662357e-001
1.893834e+003,1.633331e-001
1.897691e+003,1.668945e-001
1.901548e+003,1.644593e-001
1.905406e+003,1.587966e-001
1.909263e+003,1.563619e-001
1.913120e+003,1.514207e-001
1.916977e+003,1.508681e-001
1.920834e+003,1.485972e-001
1.924691e+003,1.425194e-001
1.928548e+003,1.407120e-001
1.932405e+003,1.421143e-001
1.936262e+003,1.388571e-001
1.940119e+003,1.411623e-001
1.943977e+003,1.417483e-001
1.947834e+003,1.406593e-001
1.951691e+003,1.362260e-001
1.955548e+003,1.365008e-001
1.959405e+003,1.334563e-001
1.963262e+003,1.301282e-001
1.967119e+003,1.354207e-001
1.970976e+003,1.386798e-001
1.974833e+003,1.356824e-001
1.978690e+003,1.353246e-001
1.982547e+003,1.331842e-001
1.986405e+003,1.293108e-001
1.990262e+003,1.311533e-001
1.994119e+003,1.342295e-001
1.997976e+003,1.347268e-001
2.001833e+003,1.362562e-001
2.005690e+003,1.359169e-001
2.009547e+003,1.378855e-001
2.013404e+003,1.397095e-001
2.017261e+003,1.384320e-001
2.021118e+003,1.398565e-001
2.024976e+003,1.404193e-001
2.028833e+003,1.381529e-001
2.032690e+003,1.410074e-001
2.036547e+003,1.425568e-001
2.040404e+003,1.420821e-001
2.044261e+003,1.434849e-001
2.048118e+003,1.414419e-001
2.051975e+003,1.355630e-001
2.055832e+003,1.347120e-001
2.059689e+003,1.328456e-001
2.063546e+003,1.308462e-001
2.067404e+003,1.307946e-001
2.071261e+003,1.292168e-001
2.075118e+003,1.272651e-001
2.078975e+003,1.224930e-001
2.082832e+003,1.219558e-001
2.086689e+003,1.248216e-001
2.090546e+003,1.250830e-001
2.094403e+003,1.172108e-001
2.098260e+003,1.148508e-001
2.102117e+003,1.170297e-001
2.105975e+003,1.143684e-001
2.109832e+003,1.120600e-001
2.113689e+003,1.104166e-001
2.117546e+003,1.090099e-001
2.121403e+003,1.087644e-001
2.125260e+003,1.107010e-001
2.129117e+003,1.125434e-001
2.132974e+003,1.117211e-001
2.136831e+003,1.161134e-001
2.140688e+003,1.202495e-001
2.144545e+003,1.181793e-001
2.148403e+003,1.198368e-001
2.152260e+003,1.195250e-001
2.156117e+003,1.200183e-001
2.159974e+003,1.233782e-001
2.163831e+003,1.221970e-001
2.167688e+003,1.229879e-001
2.171545e+003,1.267837e-001
2.175402e+003,1.274820e-001
2.179259e+003,1.276561e-001
2.183116e+003,1.280033e-001
2.186974e+003,1.307417e-001
2.190831e+003,1.337911e-001
2.194688e+003,1.340345e-001
2.198545e+003,1.354016e-001
2.202402e+003,1.374295e-001
2.206259e+003,1.406308e-001
2.210116e+003,1.393118e-001
2.213973e+003,1.325347e-001
2.217830e+003,1.305950e-001
2.221688e+003,1.344482e-001
2.225544e+003,1.343269e-001
2.229402e+003,1.340443e-001
2.233259e+003,1.314634e-001
2.237116e+003,1.302373e-001
2.240973e+003,1.268668e-001
2.244830e+003,1.251358e-001
2.248687e+003,1.268232e-001
2.252544e+003,1.247235e-001
2.256401e+003,1.242607e-001
2.260258e+003,1.226488e-001
2.264115e+003,1.217996e-001
2.267973e+003,1.216870e-001
2.271830e+003,1.188656e-001
2.275687e+003,1.124030e-001
2.279544e+003,1.139096e-001
2.283401e+003,1.165853e-001
2.287258e+003,1.158294e-001
2.291115e+003,1.154505e-001
2.294972e+003,1.160809e-001
2.298829e+003,1.147710e-001
2.302687e+003,1.142833e-001
2.306543e+003,1.155318e-001
2.310401e+003,1.180848e-001
2.314258e+003,1.208782e-001
2.318115e+003,1.197105e-001
2.321972e+003,1.177522e-001
2.325829e+003,1.191557e-001
2.329686e+003,1.249760e-001
2.333543e+003,1.275086e-001
2.337400e+003,1.246590e-001
2.341257e+003,1.236199e-001
2.345115e+003,1.326040e-001
2.348972e+003,1.382731e-001
2.352829e+003,1.334338e-001
2.356686e+003,1.257757e-001
2.360543e+003,1.252790e-001
2.364400e+003,1.284993e-001
2.368257e+003,1.323304e-001
2.372114e+003,1.385585e-001
2.375971e+003,1.393272e-001
2.379828e+003,1.422749e-001
2.383686e+003,1.401875e-001
2.387542e+003,1.421347e-001
2.391400e+003,1.441370e-001
2.395257e+003,1.413547e-001
2.399114e+003,1.364689e-001
2.402971e+003,1.363189e-001
2.406828e+003,1.402114e-001
2.410685e+003,1.407508e-001
2.414542e+003,1.360118e-001
2.418399e+003,1.305500e-001
2.422256e+003,1.284880e-001
2.426114e+003,1.267657e-001
2.429971e+003,1.202884e-001
2.433828e+003,1.190593e-001
2.437685e+003,1.206258e-001
2.441542e+003,1.191109e-001
2.445399e+003,1.176490e-001
2.449256e+003,1.185308e-001
2.453113e+003,1.183539e-001
2.456970e+003,1.210175e-001
2.460827e+003,1.241563e-001
2.464684e+003,1.215544e-001
2.468542e+003,1.191027e-001
2.472399e+003,1.190559e-001
2.476256e+003,1.190633e-001
2.480113e+003,1.220844e-001
2.483970e+003,1.213091e-001
2.487827e+003,1.216593e-001
2.491684e+003,1.259318e-001
2.495541e+003,1.279053e-001
2.499398e+003,1.253116e-001
2.503255e+003,1.237294e-001
2.507113e+003,1.307291e-001
2.510969e+003,1.350319e-001
2.514827e+003,1.374674e-001
2.518684e+003,1.381650e-001
2.522541e+003,1.379082e-001
2.526398e+003,1.371783e-001
2.530255e+003,1.426649e-001
2.534112e+003,1.469719e-001
2.537969e+003,1.502104e-001
2.541826e+003,1.496754e-001
2.545683e+003,1.417203e-001
2.549541e+003,1.406960e-001
2.553398e+003,1.413288e-001
2.557255e+003,1.431019e-001
2.561112e+003,1.433660e-001
2.564969e+003,1.397537e-001
2.568826e+003,1.412059e-001
2.572683e+003,1.460015e-001
2.576540e+003,1.458459e-001
2.580397e+003,1.441714e-001
2.584254e+003,1.410240e-001
2.588112e+003,1.392708e-001
2.591969e+003,1.407617e-001
2.595826e+003,1.396935e-001
2.599683e+003,1.391845e-001
2.603540e+003,1.394119e-001
2.607397e+003,1.362213e-001
2.611254e+003,1.360677e-001
2.615111e+003,1.352491e-001
2.618968e+003,1.359840e-001
2.622825e+003,1.395013e-001
2.626682e+003,1.370547e-001
2.630540e+003,1.357261e-001
2.634397e+003,1.386839e-001
2.638254e+003,1.407247e-001
2.642111e+003,1.421061e-001
2.645968e+003,1.464507e-001
2.649825e+003,1.457964e-001
2.653682e+003,1.479001e-001
2.657539e+003,1.487603e-001
2.661396e+003,1.495502e-001
2.665253e+003,1.556982e-001
2.669111e+003,1.596263e-001
2.672968e+003,1.630130e-001
2.676825e+003,1.618283e-001
2.680682e+003,1.657981e-001
2.684539e+003,1.706341e-001
2.688396e+003,1.732518e-001
2.692253e+003,1.758004e-001
2.696110e+003,1.753607e-001
2.699967e+003,1.804597e-001
2.703824e+003,1.867212e-001
2.707681e+003,1.872831e-001
2.711539e+003,1.859861e-001
2.715396e+003,1.830780e-001
2.719253e+003,1.807253e-001
2.723110e+003,1.829408e-001
2.726967e+003,1.894153e-001
2.730824e+003,1.944983e-001
2.734681e+003,1.952043e-001
2.738538e+003,1.908611e-001
2.742395e+003,1.886953e-001
2.746252e+003,1.888047e-001
2.750110e+003,1.863683e-001
2.753967e+003,1.899188e-001
2.757824e+003,1.901302e-001
2.761681e+003,1.880853e-001
2.765538e+003,1.918436e-001
2.769395e+003,1.923855e-001
2.773252e+003,1.912096e-001
2.777109e+003,1.911661e-001
2.780966e+003,1.917969e-001
2.784823e+003,1.940848e-001
2.788680e+003,1.974798e-001
2.792538e+003,2.013827e-001
2.796395e+003,2.029801e-001
2.800252e+003,2.016938e-001
2.804109e+003,2.063787e-001
2.807966e+003,2.105474e-001
2.811823e+003,2.030783e-001
2.815680e+003,2.048820e-001
2.819537e+003,2.159061e-001
2.823394e+003,2.200861e-001
2.827251e+003,2.205142e-001
2.831109e+003,2.237778e-001
2.834966e+003,2.293715e-001
2.838823e+003,2.311455e-001
2.842680e+003,2.286162e-001
2.846537e+003,2.345780e-001
2.850394e+003,2.368854e-001
2.854251e+003,2.364158e-001
2.858108e+003,2.466237e-001
2.861965e+003,2.537821e-001
2.865823e+003,2.543275e-001
2.869679e+003,2.576376e-001
2.873537e+003,2.521905e-001
2.877394e+003,2.506595e-001
2.881251e+003,2.552516e-001
2.885108e+003,2.606426e-001
2.888965e+003,2.658096e-001
2.892822e+003,2.656094e-001
2.896679e+003,2.659157e-001
2.900536e+003,2.646815e-001
2.904393e+003,2.627916e-001
2.908250e+003,2.655962e-001
2.912108e+003,2.699346e-001
2.915965e+003,2.725364e-001
2.919822e+003,2.718749e-001
2.923679e+003,2.754019e-001
2.927536e+003,2.797032e-001
2.931393e+003,2.842451e-001
2.935250e+003,2.863204e-001
2.939107e+003,2.862035e-001
2.942964e+003,2.900874e-001
2.946822e+003,2.920927e-001
2.950678e+003,2.882694e-001
2.954536e+003,2.846212e-001
2.958393e+003,2.807633e-001
2.962250e+003,2.811667e-001
2.966107e+003,2.874337e-001
2.969964e+003,2.971875e-001
2.973821e+003,3.016966e-001
2.977678e+003,2.995607e-001
2.981535e+003,3.010977e-001
2.985392e+003,3.094552e-001
2.989250e+003,3.145226e-001
2.993107e+003,3.162165e-001
2.996964e+003,3.151895e-001
3.000821e+003,3.185020e-001
3.004678e+003,3.238073e-001
3.008535e+003,3.212562e-001
3.012392e+003,3.283003e-001
3.016249e+003,3.397067e-001
3.020106e+003,3.394772e-001
3.023963e+003,3.391686e-001
3.027821e+003,3.410321e-001
3.031677e+003,3.438590e-001
3.035535e+003,3.483005e-001
3.039392e+003,3.532172e-001
3.043249e+003,3.566371e-001
3.047106e+003,3.569951e-001
3.050963e+003,3.648305e-001
3.054820e+003,3.739538e-001
3.058677e+003,3.698481e-001
3.062534e+003,3.687008e-001
3.066391e+003,3.762925e-001
3.070249e+003,3.784912e-001
3.074106e+003,3.763414e-001
3.077963e+003,3.780990e-001
3.081820e+003,3.840439e-001
3.085677e+003,3.889910e-001
3.089534e+003,3.899975e-001
3.093391e+003,3.810286e-001
3.097248e+003,3.792948e-001
3.101105e+003,3.864533e-001
3.104962e+003,3.945515e-001
3.108820e+003,4.031653e-001
3.112677e+003,4.063941e-001
3.116534e+003,4.057532e-001
3.120391e+003,4.135998e-001
3.124248e+003,4.188036e-001
3.128105e+003,4.137855e-001
3.131962e+003,4.099469e-001
3.135819e+003,4.123331e-001
3.139676e+003,4.198660e-001
3.143533e+003,4.303900e-001
3.147390e+003,4.333096e-001
3.151248e+003,4.363234e-001
3.155105e+003,4.375579e-001
3.158962e+003,4.394735e-001
3.162819e+003,4.440046e-001
3.166676e+003,4.416947e-001
3.170533e+003,4.461121e-001
3.174390e+003,4.449020e-001
3.178247e+003,4.413519e-001
3.182104e+003,4.503941e-001
3.185961e+003,4.634098e-001
3.189819e+003,4.694957e-001
3.193676e+003,4.749299e-001
3.197533e+003,4.770956e-001
3.201390e+003,4.742807e-001
3.205247e+003,4.764774e-001
3.209104e+003,4.834465e-001
3.212961e+003,4.882345e-001
3.216818e+003,4.881521e-001
3.220675e+003,4.850681e-001
3.224532e+003,4.973684e-001
3.228389e+003,5.177303e-001
3.232247e+003,5.215962e-001
3.236104e+003,5.154448e-001
3.239961e+003,5.153715e-001
3.243818e+003,5.183315e-001
3.247675e+003,5.118755e-001
3.251532e+003,5.144544e-001
3.255389e+003,5.262453e-001
3.259246e+003,5.193368e-001
3.263103e+003,5.118667e-001
3.266960e+003,5.168751e-001
3.270818e+003,5.154376e-001
3.274675e+003,5.226564e-001
3.278532e+003,5.251285e-001
3.282389e+003,5.208895e-001
3.286246e+003,5.313091e-001
3.290103e+003,5.471944e-001
3.293960e+003,5.537032e-001
3.297817e+003,5.436110e-001
3.301674e+003,5.362969e-001
3.305531e+003,5.407766e-001
3.309388e+003,5.544490e-001
3.313246e+003,5.546193e-001
3.317103e+003,5.428904e-001
3.320960e+003,5.507659e-001
3.324817e+003,5.667573e-001
3.328674e+003,5.577156e-001
3.332531e+003,5.501364e-001
3.336388e+003,5.587072e-001
3.340245e+003,5.659962e-001
3.344102e+003,5.619205e-001
3.347959e+003,5.754649e-001
3.351817e+003,5.882139e-001
3.355674e+003,5.913833e-001
3.359531e+003,5.843626e-001
3.363388e+003,5.770322e-001
3.367245e+003,5.820699e-001
3.371102e+003,5.973776e-001
3.374959e+003,5.927559e-001
3.378816e+003,5.886410e-001
3.382673e+003,5.936151e-001
3.386530e+003,6.115222e-001
3.390387e+003,6.250971e-001
3.394245e+003,6.164919e-001
3.398102e+003,6.062880e-001
3.401959e+003,6.055614e-001
3.405816e+003,6.046339e-001
3.409673e+003,6.087158e-001
3.413530e+003,6.142115e-001
3.417387e+003,6.248876e-001
3.421244e+003,6.217331e-001
3.425101e+003,6.106207e-001
3.428958e+003,6.192073e-001
3.432815e+003,6.261194e-001
3.436673e+003,6.203027e-001
3.440530e+003,6.217042e-001
3.444387e+003,6.270171e-001
3.448244e+003,6.350257e-001
3.452101e+003,6.281960e-001
3.455958e+003,6.229180e-001
3.459815e+003,6.286006e-001
3.463672e+003,6.299678e-001
3.467529e+003,6.382854e-001
3.471386e+003,6.408477e-001
3.475244e+003,6.350502e-001
3.479101e+003,6.483364e-001
3.482958e+003,6.486115e-001
3.486815e+003,6.430022e-001
3.490672e+003,6.442925e-001
3.494529e+003,6.459200e-001
3.498386e+003,6.491084e-001
3.502243e+003,6.492974e-001
3.506100e+003,6.477957e-001
3.509958e+003,6.404818e-001
3.513814e+003,6.371034e-001
3.517672e+003,6.464731e-001
3.521529e+003,6.479387e-001
3.525386e+003,6.514767e-001
3.529243e+003,6.609200e-001
3.533100e+003,6.556737e-001
3.536957e+003,6.473704e-001
3.540814e+003,6.523551e-001
3.544671e+003,6.559104e-001
3.548528e+003,6.578112e-001
3.552385e+003,6.515551e-001
3.556243e+003,6.366363e-001
3.560100e+003,6.364944e-001
3.563957e+003,6.274931e-001
3.567814e+003,6.163397e-001
3.571671e+003,6.080081e-001
3.575528e+003,5.935866e-001
3.579385e+003,5.962595e-001
3.583242e+003,5.888897e-001
3.587099e+003,5.818508e-001
3.590957e+003,5.698262e-001
3.594813e+003,5.591431e-001
3.598671e+003,5.424887e-001
3.602528e+003,5.213116e-001
3.606385e+003,5.026702e-001
3.610242e+003,4.849568e-001
3.614099e+003,4.719782e-001
3.617956e+003,4.598530e-001
3.621813e+003,4.437558e-001
3.625670e+003,4.178531e-001
3.629527e+003,3.890121e-001
3.633385e+003,3.612739e-001
3.637242e+003,3.407309e-001
3.641099e+003,3.176554e-001
3.644956e+003,2.955233e-001
3.648813e+003,2.797881e-001
3.652670e+003,2.557951e-001
3.656527e+003,2.333232e-001
3.660384e+003,2.183029e-001
3.664241e+003,2.008800e-001
3.668098e+003,1.912720e-001
3.671956e+003,1.828699e-001
3.675813e+003,1.680622e-001
3.679670e+003,1.589133e-001
3.683527e+003,1.537822e-001
3.687384e+003,1.401376e-001
3.691241e+003,1.274663e-001
3.695098e+003,1.241239e-001
3.698955e+003,1.227929e-001
3.702812e+003,1.143658e-001
3.706669e+003,1.052711e-001
3.710526e+003,1.074078e-001
3.714384e+003,1.055862e-001
3.718241e+003,9.995729e-002
3.722098e+003,9.737293e-002
3.725955e+003,1.005994e-001
3.729812e+003,9.775210e-002
3.733669e+003,9.263045e-002
3.737526e+003,8.811823e-002
3.741383e+003,8.561791e-002
3.745240e+003,9.009223e-002
3.749097e+003,9.262397e-002
3.752955e+003,9.018899e-002
3.756812e+003,8.703711e-002
3.760669e+003,8.292743e-002
3.764526e+003,8.366647e-002
3.768383e+003,8.856180e-002
3.772240e+003,9.210390e-002
3.776097e+003,9.720463e-002
3.779954e+003,9.976543e-002
3.783811e+003,9.992196e-002
3.787668e+003,9.815037e-002
3.791525e+003,9.555570e-002
3.795383e+003,9.215137e-002
3.799240e+003,9.510127e-002
3.803097e+003,9.691544e-002
3.806954e+003,1.021505e-001
3.810811e+003,1.022886e-001
3.814668e+003,1.032819e-001
3.818525e+003,1.042187e-001
3.822382e+003,1.020276e-001
3.826239e+003,9.949777e-002
3.830096e+003,1.009613e-001
3.833954e+003,1.070073e-001
3.837811e+003,9.998962e-002
3.841668e+003,8.966697e-002
3.845525e+003,8.480436e-002
3.849382e+003,8.512840e-002
3.853239e+003,8.860056e-002
3.857096e+003,8.326553e-002
3.860953e+003,8.190691e-002
3.864810e+003,8.817973e-002
3.868667e+003,9.140897e-002
3.872524e+003,8.941288e-002
3.876382e+003,7.963195e-002
3.880239e+003,7.526886e-002
3.884096e+003,7.545430e-002
3.887953e+003,8.133956e-002
3.891810e+003,7.971750e-002
3.895667e+003,8.119425e-002
3.899524e+003,8.586887e-002
3.903381e+003,8.287634e-002
3.907238e+003,8.460341e-002
3.911095e+003,9.043705e-002
3.914953e+003,8.662034e-002
3.918810e+003,8.045537e-002
3.922667e+003,9.062312e-002
3.926524e+003,9.715503e-002
3.930381e+003,9.021778e-002
3.934238e+003,8.473424e-002
3.938095e+003,8.656456e-002
3.941952e+003,8.610841e-002
3.945809e+003,8.691879e-002
3.949667e+003,9.565233e-002
3.953523e+003,1.024592e-001
3.957381e+003,1.040892e-001
3.961238e+003,1.004744e-001
3.965095e+003,9.574579e-002
3.968952e+003,9.899650e-002
3.972809e+003,1.029914e-001
3.976666e+003,1.015635e-001
3.980523e+003,9.701253e-002
3.984380e+003,9.843877e-002
3.988237e+003,9.310398e-002
3.992094e+003,8.719654e-002
3.995952e+003,9.038564e-002
3.999809e+003,9.580421e-002
4.003666e+003,9.935851e-002
4.007523e+003,9.645073e-002
4.011380e+003,9.013581e-002
4.015237e+003,8.434393e-002
4.019094e+003,8.472828e-002
4.022951e+003,9.084925e-002
4.026808e+003,9.092956e-002
4.030666e+003,8.829442e-002
4.034522e+003,8.960356e-002
4.038380e+003,8.989717e-002
4.042237e+003,8.685873e-002
4.046094e+003,8.072346e-002
4.049951e+003,7.623562e-002
4.053808e+003,7.901554e-002
4.057665e+003,8.360345e-002
4.061522e+003,8.111425e-002
4.065379e+003,7.799865e-002
4.069236e+003,7.804528e-002
4.073094e+003,8.105467e-002
4.076951e+003,8.121007e-002
4.080808e+003,7.516304e-002
4.084665e+003,7.133176e-002
4.088522e+003,8.000666e-002
4.092379e+003,9.051618e-002
4.096236e+003,8.869350e-002
4.100093e+003,8.569067e-002
4.103950e+003,8.602552e-002
4.107808e+003,8.922293e-002
4.111665e+003,8.418164e-002
4.115521e+003,8.424041e-002
4.119379e+003,9.320126e-002
4.123236e+003,9.803692e-002
4.127093e+003,9.395521e-002
4.130950e+003,9.253589e-002
4.134807e+003,9.723095e-002
4.138664e+003,9.446606e-002
4.142521e+003,8.498319e-002
4.146378e+003,8.277201e-002
4.150235e+003,8.958535e-002
4.154093e+003,9.255274e-002
4.157950e+003,8.863518e-002
4.161807e+003,8.666245e-002
4.165664e+003,8.987806e-002
4.169521e+003,9.519000e-002
4.173378e+003,9.693109e-002
4.177235e+003,9.794436e-002
4.181092e+003,9.655385e-002
4.184949e+003,9.076390e-002
4.188807e+003,8.650548e-002
4.192664e+003,8.677091e-002
4.196521e+003,8.376857e-002
4.200378e+003,8.310762e-002
4.204235e+003,8.638496e-002
4.208092e+003,8.639781e-002
4.211949e+003,8.494411e-002
4.215806e+003,8.453345e-002
4.219663e+003,8.068150e-002
4.223521e+003,8.087844e-002
4.227377e+003,8.390015e-002
4.231234e+003,7.997208e-002
4.235092e+003,7.905629e-002
4.238949e+003,8.301415e-002
4.242806e+003,8.686722e-002
4.246663e+003,8.160949e-002
4.250520e+003,8.008574e-002
4.254377e+003,8.000880e-002
4.258234e+003,7.874198e-002
4.262091e+003,8.236448e-002
4.265948e+003,8.247824e-002
4.269806e+003,8.093356e-002
4.273663e+003,8.429368e-002
4.277520e+003,8.553010e-002
4.281377e+003,9.118500e-002
4.285234e+003,9.074695e-002
4.289091e+003,8.868574e-002
4.292948e+003,8.907671e-002
4.296805e+003,8.645793e-002
4.300662e+003,8.659304e-002
4.304520e+003,8.989644e-002
4.308376e+003,9.111796e-002
4.312233e+003,9.313901e-002
4.316091e+003,9.686504e-002
4.319948e+003,1.011388e-001
4.323805e+003,9.569243e-002
4.327662e+003,9.401404e-002
4.331519e+003,9.789263e-002
4.335376e+003,9.514350e-002
4.339233e+003,9.210877e-002
4.343090e+003,8.775261e-002
4.346947e+003,9.401309e-002
4.350805e+003,9.730212e-002
4.354662e+003,9.535377e-002
4.358519e+003,9.565683e-002
4.362376e+003,9.404588e-002
4.366233e+003,9.288201e-002
4.370090e+003,8.690211e-002
4.373947e+003,8.770055e-002
4.377804e+003,9.352887e-002
4.381661e+003,8.785940e-002
4.385519e+003,8.278243e-002
4.389375e+003,8.888789e-002
4.393232e+003,9.250875e-002
4.397090e+003,9.032167e-002
4.400947e+003,8.999434e-002
4.404804e+003,8.065548e-002
4.408661e+003,7.917415e-002
4.412518e+003,8.764585e-002
4.416375e+003,8.824959e-002
4.420232e+003,9.009218e-002
4.424089e+003,9.718487e-002
4.427946e+003,8.693514e-002
4.431804e+003,8.747337e-002
4.435661e+003,8.790143e-002
4.439518e+003,8.265255e-002
4.443375e+003,8.412836e-002
4.447232e+003,9.311285e-002
4.451089e+003,9.110538e-002
4.454946e+003,9.274189e-002
4.458803e+003,9.342882e-002
4.462660e+003,8.372328e-002
4.466518e+003,8.364981e-002
4.470375e+003,8.533620e-002
4.474231e+003,9.386575e-002
4.478089e+003,9.548181e-002
4.481946e+003,9.098099e-002
4.485803e+003,1.032084e-001
4.489660e+003,1.140755e-001
4.493517e+003,1.141785e-001
4.497375e+003,1.157647e-001
4.501231e+003,1.090386e-001
4.505088e+003,1.039906e-001
4.508946e+003,1.033358e-001
4.512803e+003,1.023865e-001
4.516660e+003,1.007911e-001
4.520517e+003,8.963675e-002
4.524374e+003,7.758024e-002
4.528231e+003,8.379409e-002
4.532088e+003,9.184755e-002
4.535945e+003,9.556288e-002
4.539802e+003,9.677365e-002
4.543660e+003,8.659203e-002
4.547517e+003,7.815427e-002
4.551374e+003,8.528414e-002
4.555231e+003,9.316426e-002
4.559088e+003,8.937595e-002
4.562945e+003,8.716308e-002
4.566802e+003,9.980078e-002
4.570659e+003,1.027487e-001
4.574516e+003,9.003355e-002
4.578374e+003,8.094438e-002
4.582230e+003,8.060566e-002
4.586087e+003,8.631878e-002
4.589945e+003,8.934848e-002
4.593802e+003,8.711072e-002
4.597659e+003,8.553132e-002
4.601516e+003,8.767083e-002
4.605373e+003,8.496159e-002
4.609230e+003,7.844152e-002
4.613087e+003,8.038659e-002
4.616944e+003,8.808881e-002
4.620801e+003,8.363739e-002
4.624659e+003,7.276604e-002
4.628516e+003,8.543679e-002
4.632373e+003,9.441001e-002
4.636230e+003,9.575943e-002
4.640087e+003,9.774289e-002
4.643944e+003,9.678412e-002
4.647801e+003,9.470002e-002
4.651658e+003,8.869000e-002
4.655515e+003,8.819313e-002
4.659373e+003,9.413835e-002
4.663229e+003,9.923940e-002
4.667086e+003,1.074990e-001
4.670944e+003,1.067919e-001
4.674801e+003,1.035515e-001
4.678658e+003,9.758523e-002
4.682515e+003,9.260400e-002
4.686372e+003,9.376898e-002
4.690229e+003,8.883442e-002
4.694086e+003,9.212573e-002
4.697943e+003,9.892009e-002
4.701800e+003,1.022554e-001
4.705658e+003,1.014792e-001
4.709515e+003,9.349279e-002
4.713372e+003,8.779366e-002
4.717229e+003,9.249169e-002
4.721086e+003,9.640022e-002
4.724943e+003,1.009144e-001
4.728800e+003,1.014145e-001
4.732657e+003,9.465597e-002
4.736514e+003,9.014922e-002
4.740372e+003,9.277865e-002
4.744229e+003,8.607193e-002
4.748085e+003,7.652923e-002
4.751943e+003,7.716072e-002
4.755800e+003,7.922183e-002
4.759657e+003,7.746248e-002
4.763514e+003,7.617311e-002
4.767371e+003,7.945889e-002
4.771228e+003,9.146140e-002
4.775085e+003,9.575245e-002
4.778942e+003,8.877088e-002
4.782799e+003,8.554120e-002
4.786657e+003,9.362834e-002
4.790514e+003,9.521401e-002
4.794371e+003,8.747689e-002
4.798228e+003,7.443532e-002
4.802085e+003,8.029593e-002
4.805942e+003,9.734445e-002
4.809799e+003,1.024974e-001
4.813656e+003,9.681215e-002
4.817513e+003,9.401614e-002
4.821371e+003,9.609353e-002
4.825228e+003,9.342664e-002
4.829084e+003,9.781913e-002
4.832942e+003,9.853803e-002
4.836799e+003,1.067972e-001
4.840656e+003,1.099099e-001
4.844513e+003,9.465148e-002
4.848370e+003,8.701189e-002
4.852227e+003,1.043238e-001
4.856084e+003,1.106367e-001
4.859941e+003,1.041773e-001
4.863798e+003,9.996780e-002
4.867656e+003,1.046738e-001
4.871513e+003,1.103205e-001
4.875370e+003,1.125414e-001
4.879227e+003,9.775638e-002
4.883084e+003,9.221807e-002
4.886941e+003,9.974583e-002
4.890798e+003,9.213798e-002
4.894655e+003,8.064383e-002
4.898512e+003,7.963005e-002
4.902370e+003,8.016516e-002
4.906227e+003,8.710748e-002
4.910083e+003,9.652785e-002
4.913941e+003,9.691515e-002
4.917798e+003,1.036232e-001
4.921655e+003,1.011447e-001
4.925512e+003,9.618482e-002
4.929369e+003,1.018584e-001
4.933226e+003,8.758698e-002
4.937083e+003,7.982118e-002
4.940940e+003,8.229190e-002
4.944797e+003,9.001175e-002
4.948655e+003,1.010428e-001
4.952512e+003,1.036770e-001
4.956369e+003,1.031328e-001
4.960226e+003,9.428307e-002
4.964083e+003,9.178341e-002
4.967940e+003,9.578694e-002
4.971797e+003,1.051139e-001
4.975654e+003,1.031009e-001
4.979511e+003,9.526422e-002
4.983369e+003,1.009539e-001
4.987226e+003,1.025452e-001
4.991083e+003,9.840656e-002
4.994940e+003,9.768356e-002
4.998797e+003,1.056034e-001
5.002654e+003,1.018454e-001
5.006511e+003,1.109116e-001
5.010368e+003,1.177919e-001
5.014225e+003,1.118217e-001
5.018083e+003,1.117583e-001
5.021939e+003,1.064108e-001
5.025796e+003,9.885244e-002
5.029654e+003,1.066022e-001
5.033511e+003,1.115815e-001
5.037368e+003,1.030280e-001
5.041225e+003,9.654102e-002
5.045082e+003,1.029519e-001
5.048939e+003,1.079538e-001
5.052796e+003,1.186872e-001
5.056653e+003,1.213307e-001
5.060510e+003,1.106166e-001
5.064368e+003,1.048068e-001
5.068225e+003,1.104825e-001
5.072082e+003,1.122608e-001
5.075939e+003,1.034433e-001
5.079796e+003,1.072368e-001
5.083653e+003,1.101796e-001
5.087510e+003,1.039765e-001
5.091367e+003,9.589750e-002
5.095224e+003,8.530459e-002
5.099082e+003,8.697201e-002
5.102938e+003,9.670227e-002
5.106795e+003,1.013444e-001
5.110653e+003,1.038332e-001
5.114510e+003,1.024013e-001
5.118367e+003,9.094851e-002
5.122224e+003,9.108371e-002
5.126081e+003,9.624106e-002
5.129938e+003,9.275667e-002
5.133795e+003,9.536809e-002
5.137652e+003,9.711553e-002
5.141509e+003,9.827621e-002
5.145367e+003,1.026183e-001
5.149224e+003,1.053510e-001
5.153081e+003,1.121151e-001
5.156938e+003,1.121751e-001
5.160795e+003,1.010202e-001
5.164652e+003,1.068065e-001
5.168509e+003,1.186241e-001
5.172366e+003,1.188196e-001
5.176223e+003,1.235815e-001
5.180081e+003,1.283844e-001
5.183938e+003,1.172601e-001
5.187794e+003,1.063930e-001
5.191652e+003,1.007537e-001
5.195509e+003,9.923686e-002
5.199366e+003,9.814335e-002
5.203223e+003,9.383721e-002
5.207080e+003,1.018314e-001
5.210937e+003,1.065238e-001
5.214794e+003,1.063621e-001
5.218651e+003,1.076285e-001
5.222508e+003,1.090484e-001
5.226366e+003,1.160381e-001
5.230223e+003,1.159195e-001
5.234080e+003,1.053032e-001
5.237937e+003,1.034568e-001
5.241794e+003,9.833999e-002
5.245651e+003,9.751186e-002
5.249508e+003,1.027202e-001
5.253365e+003,9.630859e-002
5.257222e+003,1.020380e-001
5.261080e+003,1.098396e-001
5.264937e+003,1.080268e-001
5.268793e+003,1.026027e-001
5.272651e+003,8.843525e-002
5.276508e+003,8.915518e-002
5.280365e+003,9.805024e-002
5.284222e+003,1.040636e-001
5.288079e+003,1.052585e-001
5.291936e+003,9.375176e-002
5.295793e+003,8.766158e-002
5.299650e+003,9.345446e-002
5.303507e+003,9.155077e-002
5.307365e+003,9.849314e-002
5.311222e+003,1.057608e-001
5.315079e+003,1.054764e-001
5.318936e+003,1.106134e-001
5.322793e+003,1.090175e-001
5.326650e+003,1.047651e-001
5.330507e+003,1.097325e-001
5.334364e+003,1.023299e-001
5.338221e+003,1.033150e-001
5.342079e+003,1.141847e-001
5.345936e+003,1.183025e-001
5.349792e+003,1.149990e-001
5.353650e+003,1.168923e-001
5.357507e+003,1.261490e-001
5.361364e+003,1.149961e-001
5.365221e+003,9.963579e-002
5.369078e+003,9.413955e-002
5.372935e+003,9.973174e-002
5.376792e+003,9.549666e-002
5.380649e+003,8.666112e-002
5.384506e+003,8.897951e-002
5.388364e+003,9.952664e-002
5.392221e+003,1.059027e-001
5.396078e+003,9.351996e-002
5.399935e+003,8.795895e-002
5.403792e+003,9.214678e-002
5.407649e+003,1.039759e-001
5.411506e+003,1.107727e-001
5.415363e+003,1.112067e-001
5.419220e+003,1.120059e-001
5.423078e+003,1.127080e-001
5.426935e+003,1.109445e-001
5.430792e+003,9.689245e-002
5.434649e+003,9.207264e-002
5.438506e+003,1.036870e-001
5.442363e+003,1.177803e-001
5.446220e+003,1.161725e-001
5.450077e+003,1.111870e-001
5.453934e+003,1.116598e-001
5.457792e+003,1.102373e-001
5.461648e+003,1.139080e-001
5.465505e+003,1.061503e-001
5.469363e+003,9.141727e-002
5.473220e+003,9.590233e-002
5.477077e+003,1.090344e-001
5.480934e+003,1.130396e-001
5.484791e+003,1.055684e-001
5.488648e+003,9.576087e-002
5.492505e+003,8.866029e-002
5.496362e+003,9.376179e-002
5.500219e+003,8.610570e-002
5.504077e+003,8.363920e-002
5.507934e+003,9.262078e-002
5.511791e+003,9.701701e-002
5.515648e+003,9.057348e-002
5.519505e+003,8.752716e-002
5.523362e+003,9.396640e-002
5.527219e+003,1.058715e-001
5.531076e+003,1.041890e-001
5.534933e+003,1.002510e-001
5.538791e+003,1.058370e-001
5.542647e+003,1.080049e-001
5.546504e+003,1.089578e-001
5.550362e+003,1.104859e-001
5.554219e+003,1.222386e-001
5.558076e+003,1.221375e-001
5.561933e+003,1.160855e-001
5.565790e+003,1.210389e-001
5.569647e+003,1.180428e-001
5.573504e+003,1.175482e-001
5.577361e+003,1.062150e-001
5.581218e+003,1.001242e-001
5.585076e+003,9.685890e-002
5.588933e+003,1.015165e-001
5.592790e+003,1.041158e-001
5.596647e+003,1.024557e-001
5.600504e+003,1.005404e-001
5.604361e+003,1.019636e-001
5.608218e+003,1.095976e-001
5.612075e+003,1.127494e-001
5.615932e+003,1.249573e-001
5.619790e+003,1.220084e-001
5.623646e+003,1.199706e-001
5.627503e+003,1.189799e-001
5.631361e+003,1.062369e-001
5.635218e+003,1.061596e-001
5.639075e+003,1.088878e-001
5.642932e+003,1.120330e-001
5.646789e+003,1.185481e-001
5.650646e+003,1.139070e-001
5.654503e+003,1.013715e-001
5.658360e+003,9.339525e-002
5.662217e+003,9.334468e-002
5.666075e+003,1.000794e-001
5.669932e+003,1.052463e-001
5.673789e+003,1.035362e-001
5.677646e+003,1.069404e-001
5.681503e+003,1.136145e-001
5.685360e+003,1.141159e-001
5.689217e+003,1.045199e-001
5.693074e+003,1.018079e-001
5.696931e+003,1.185326e-001
5.700789e+003,1.146184e-001
5.704646e+003,1.053836e-001
5.708502e+003,1.106742e-001
5.712360e+003,1.046887e-001
5.716217e+003,9.665740e-002
5.720074e+003,1.116391e-001
5.723931e+003,1.095964e-001
5.727788e+003,1.040802e-001
5.731645e+003,1.103776e-001
5.735502e+003,1.151225e-001
5.739359e+003,1.136943e-001
5.743216e+003,1.152554e-001
5.747074e+003,1.116300e-001
5.750931e+003,1.059465e-001
5.754788e+003,1.027177e-001
5.758645e+003,1.032861e-001
5.762502e+003,9.867550e-002
5.766359e+003,9.708010e-002
5.770216e+003,1.009846e-001
5.774073e+003,9.967251e-002
5.777930e+003,9.609382e-002
5.781788e+003,1.073469e-001
5.785645e+003,1.045200e-001
5.789501e+003,9.724215e-002
5.793359e+003,1.004179e-001
5.797216e+003,9.770281e-002
5.801073e+003,1.007509e-001
5.804930e+003,9.574299e-002
5.808787e+003,8.372533e-002
5.812644e+003,9.114763e-002
5.816501e+003,1.040190e-001
5.820358e+003,1.092746e-001
5.824215e+003,1.024513e-001
5.828073e+003,1.092590e-001
5.831930e+003,1.161210e-001
5.835787e+003,1.071827e-001
5.839644e+003,9.611883e-002
5.843501e+003,9.524528e-002
5.847358e+003,9.308436e-002
5.851215e+003,9.972474e-002
5.855072e+003,1.026195e-001
5.858929e+003,9.898642e-002
5.862787e+003,1.024453e-001
5.866644e+003,1.094461e-001
5.870500e+003,1.246762e-001
5.874358e+003,1.181611e-001
5.878215e+003,1.025671e-001
5.882072e+003,8.554657e-002
5.885929e+003,9.349896e-002
5.889786e+003,1.015642e-001
5.893643e+003,9.025579e-002
5.897500e+003,9.568392e-002
5.901357e+003,1.087043e-001
5.905214e+003,1.141581e-001
5.909072e+003,1.119240e-001
5.912929e+003,1.028714e-001
5.916786e+003,1.069867e-001
5.920643e+003,1.176980e-001
5.924500e+003,1.127378e-001
5.928357e+003,1.052187e-001
5.932214e+003,1.101653e-001
5.936071e+003,1.210039e-001
5.939928e+003,1.068572e-001
5.943786e+003,1.025341e-001
5.947643e+003,1.140971e-001
5.951500e+003,1.253728e-001
5.955357e+003,1.240248e-001
5.959214e+003,1.135989e-001
5.963071e+003,1.049393e-001
5.966928e+003,9.521195e-002
5.970785e+003,1.002269e-001
5.974642e+003,9.848957e-002
5.978500e+003,9.428751e-002
5.982356e+003,1.110974e-001
5.986213e+003,1.375298e-001
5.990071e+003,1.267763e-001
5.993928e+003,8.907793e-002
5.997785e+003,1.047202e-001
6.001642e+003,1.303971e-001
6.005499e+003,1.211671e-001
6.009356e+003,1.020615e-001
6.013213e+003,1.071950e-001
6.017070e+003,1.110463e-001
6.020927e+003,1.156017e-001
6.024785e+003,1.250370e-001
6.028642e+003,1.085505e-001
6.032499e+003,1.014275e-001
6.036356e+003,1.121388e-001
6.040213e+003,1.214295e-001
6.044070e+003,1.132299e-001
6.047927e+003,1.132923e-001
6.051784e+003,1.268679e-001
6.055641e+003,1.244742e-001
6.059499e+003,1.113723e-001
6.063355e+003,1.050736e-001
6.067212e+003,1.067323e-001
6.071070e+003,1.083324e-001
6.074927e+003,9.902875e-002
6.078784e+003,9.723597e-002
6.082641e+003,1.052265e-001
6.086498e+003,1.039950e-001
6.090355e+003,1.059391e-001
6.094212e+003,1.314439e-001
6.098069e+003,1.330405e-001
6.101926e+003,1.267165e-001
6.105784e+003,1.299166e-001
6.109641e+003,1.095743e-001
6.113498e+003,1.119689e-001
6.117355e+003,1.101784e-001
6.121212e+003,1.122015e-001
6.125069e+003,1.221357e-001
6.128926e+003,1.256080e-001
6.132783e+003,1.150637e-001
6.136640e+003,9.421585e-002
6.140498e+003,9.672376e-002
6.144354e+003,1.116045e-001
6.148211e+003,1.038172e-001
6.152069e+003,8.375290e-002
6.155926e+003,9.312915e-002
6.159783e+003,1.196126e-001
6.163640e+003,1.034610e-001
6.167497e+003,9.302302e-002
6.171354e+003,9.496881e-002
6.175211e+003,1.180706e-001
6.179068e+003,1.180239e-001
6.182925e+003,1.072391e-001
6.186783e+003,1.345755e-001
6.190640e+003,1.474890e-001
6.194497e+003,1.296914e-001
6.198354e+003,1.248927e-001
6.202211e+003,1.164662e-001
6.206068e+003,1.075918e-001
6.209925e+003,1.112817e-001
6.213782e+003,1.104754e-001
6.217639e+003,1.196577e-001
6.221497e+003,1.257362e-001
6.225354e+003,1.256086e-001
6.229210e+003,1.181523e-001
6.233068e+003,1.147239e-001
6.236925e+003,1.244761e-001
6.240782e+003,1.267804e-001
6.244639e+003,1.146506e-001
6.248496e+003,1.124778e-001
6.252353e+003,1.167071e-001
6.256210e+003,1.234296e-001
6.260067e+003,1.126346e-001
6.263924e+003,1.157438e-001
6.267782e+003,1.297548e-001
6.271639e+003,1.279829e-001
6.275496e+003,1.120922e-001
6.279353e+003,1.101555e-001
6.283210e+003,1.309938e-001
6.287067e+003,1.289529e-001
6.290924e+003,1.167130e-001
6.294781e+003,1.012848e-001
6.298638e+003,9.486447e-002
6.302496e+003,9.300439e-002
6.306353e+003,9.257423e-002
6.310209e+003,1.049727e-001
6.314067e+003,1.157464e-001
6.317924e+003,1.084983e-001
6.321781e+003,1.246641e-001
6.325638e+003,1.438593e-001
6.329495e+003,1.348330e-001
6.333352e+003,1.277492e-001
6.337209e+003,1.036009e-001
6.341066e+003,1.003115e-001
6.344923e+003,1.200150e-001
6.348780e+003,1.366977e-001
6.352638e+003,1.278110e-001
6.356495e+003,1.211508e-001
6.360352e+003,1.138902e-001
6.364209e+003,1.141809e-001
6.368066e+003,1.300006e-001
6.371923e+003,1.317773e-001
6.375780e+003,1.202059e-001
6.379637e+003,1.170226e-001
6.383494e+003,1.187067e-001
6.387352e+003,1.169354e-001
6.391208e+003,1.059471e-001
6.395065e+003,8.925626e-002
6.398923e+003,9.545295e-002
6.402780e+003,1.011242e-001
6.406637e+003,1.061925e-001
6.410494e+003,1.271213e-001
6.414351e+003,1.153910e-001
6.418208e+003,1.198643e-001
6.422065e+003,1.406375e-001
6.425922e+003,1.391738e-001
6.429779e+003,1.342792e-001
6.433637e+003,1.347323e-001
6.437494e+003,1.356013e-001
6.441351e+003,1.445780e-001
6.445208e+003,1.248509e-001
6.449065e+003,1.035797e-001
6.452922e+003,1.075168e-001
6.456779e+003,1.035054e-001
6.460636e+003,1.150263e-001
6.464493e+003,1.124458e-001
6.468351e+003,1.000416e-001
6.472208e+003,1.134048e-001
6.476064e+003,1.325306e-001
6.479922e+003,1.352801e-001
6.483779e+003,1.438284e-001
6.487636e+003,1.525695e-001
6.491493e+003,1.449944e-001
6.495350e+003,1.227450e-001
6.499207e+003,1.195907e-001
6.503064e+003,1.342411e-001
6.506921e+003,1.327314e-001
6.510778e+003,1.096471e-001
6.514636e+003,8.814405e-002
6.518493e+003,9.378338e-002
6.522350e+003,1.281320e-001
6.526207e+003,1.407543e-001
6.530064e+003,1.378226e-001
6.533921e+003,1.523729e-001
6.537778e+003,1.608564e-001
6.541635e+003,1.254623e-001
6.545492e+003,8.812343e-002
6.549350e+003,9.456726e-002
6.553207e+003,1.121116e-001
6.557063e+003,1.306706e-001
6.560921e+003,1.375475e-001
6.564778e+003,1.437789e-001
6.568635e+003,1.534664e-001
6.572492e+003,1.435797e-001
6.576349e+003,1.415293e-001
6.580206e+003,1.393369e-001
6.584063e+003,1.352008e-001
6.587920e+003,1.189593e-001
6.591777e+003,9.823574e-002
6.595635e+003,9.587957e-002
6.599492e+003,1.235038e-001
6.603349e+003,1.297083e-001
6.607206e+003,1.208311e-001
6.611063e+003,1.257680e-001
6.614920e+003,1.336797e-001
6.618777e+003,1.455543e-001
6.622634e+003,1.306585e-001
6.626491e+003,1.034094e-001
6.630349e+003,8.130407e-002
6.634206e+003,1.089240e-001
6.638063e+003,1.325993e-001
6.641920e+003,1.028465e-001
6.645777e+003,8.543567e-002
6.649634e+003,1.052955e-001
6.653491e+003,8.792216e-002
6.657348e+003,9.486710e-002
6.661205e+003,1.316763e-001
6.665063e+003,1.419609e-001
6.668919e+003,1.065752e-001
6.672776e+003,1.024391e-001
6.676634e+003,1.188888e-001
6.680491e+003,1.016052e-001
6.684348e+003,1.074860e-001
6.688205e+003,1.121864e-001
6.692062e+003,9.021179e-002
6.695919e+003,8.793668e-002
6.699776e+003,1.042938e-001
6.703633e+003,1.118037e-001
6.707490e+003,1.207588e-001
6.711348e+003,1.263932e-001
6.715205e+003,1.246941e-001
6.719062e+003,1.254487e-001
6.722919e+003,1.143695e-001
6.726776e+003,1.047559e-001
6.730633e+003,1.147754e-001
6.734490e+003,1.365523e-001
6.738347e+003,1.241752e-001
6.742204e+003,1.010191e-001
6.746062e+003,9.537968e-002
6.749918e+003,1.085283e-001
6.753775e+003,1.188270e-001
6.757633e+003,1.374311e-001
6.761490e+003,1.537661e-001
6.765347e+003,1.472984e-001
6.769204e+003,1.245211e-001
6.773061e+003,1.071747e-001
6.776918e+003,1.091037e-001
6.780775e+003,1.017833e-001
6.784632e+003,1.164164e-001
6.788489e+003,1.139901e-001
6.792347e+003,1.364423e-001
6.796204e+003,1.160896e-001
6.800061e+003,9.510775e-002
6.803918e+003,1.078959e-001
6.807775e+003,1.148411e-001
6.811632e+003,1.111515e-001
6.815489e+003,9.739972e-002
6.819346e+003,1.331502e-001
6.823203e+003,1.872607e-001
6.827061e+003,1.595077e-001
6.830917e+003,9.676400e-002
6.834774e+003,8.233960e-002
6.838632e+003,1.301160e-001
6.842489e+003,1.372094e-001
6.846346e+003,1.206782e-001
6.850203e+003,1.105696e-001
6.854060e+003,1.066383e-001
6.857917e+003,9.628365e-002
6.861774e+003,9.065639e-002
6.865631e+003,1.055713e-001
6.869488e+003,1.310364e-001
6.873346e+003,1.731490e-001
6.877203e+003,2.018901e-001
6.881060e+003,2.165818e-001
6.884917e+003,1.975747e-001
6.888774e+003,1.515283e-001
6.892631e+003,1.454005e-001
6.896488e+003,1.376724e-001
6.900345e+003,1.158364e-001
6.904202e+003,8.612950e-002
6.908060e+003,9.177575e-002
6.911917e+003,1.366751e-001
6.915773e+003,1.437629e-001
6.919631e+003,1.228339e-001
6.923488e+003,1.041871e-001
6.927345e+003,9.378136e-002
6.931202e+003,8.722315e-002
6.935059e+003,1.118709e-001
6.938916e+003,1.308897e-001
6.942773e+003,1.547048e-001
6.946630e+003,1.311342e-001
6.950487e+003,1.127001e-001
6.954345e+003,1.268670e-001
6.958202e+003,1.078760e-001
6.962059e+003,1.201865e-001
6.965916e+003,1.707748e-001
6.969773e+003,1.868267e-001
6.973630e+003,1.728567e-001
6.977487e+003,1.666971e-001
6.981344e+003,1.194752e-001
6.985201e+003,7.690652e-002
6.989059e+003,1.263808e-001
6.992916e+003,1.478134e-001
6.996772e+003,1.440093e-001
7.000630e+003,1.229109e-001
7.004487e+003,1.041562e-001
7.008344e+003,1.377332e-001
7.012201e+003,1.616942e-001
7.016058e+003,1.724408e-001
7.019915e+003,1.552787e-001
7.023772e+003,1.606662e-001
7.027629e+003,1.645949e-001
7.031486e+003,1.552760e-001
7.035344e+003,1.554585e-001
7.039201e+003,1.319313e-001
7.043058e+003,1.125935e-001
7.046915e+003,8.471760e-002
7.050772e+003,9.614070e-002
7.054629e+003,1.215686e-001
7.058486e+003,9.358165e-002
7.062343e+003,8.024961e-002
7.066200e+003,1.258821e-001
7.070058e+003,1.267726e-001
7.073915e+003,9.205680e-002
7.077771e+003,1.080086e-001
7.081629e+003,1.375707e-001
7.085486e+003,1.417364e-001
7.089343e+003,1.493174e-001
7.093200e+003,1.486327e-001
7.097057e+003,1.022919e-001
7.100914e+003,1.344620e-001
7.104771e+003,1.679953e-001
7.108628e+003,1.410733e-001
7.112485e+003,1.680622e-001
7.116343e+003,1.672219e-001
7.120200e+003,1.250936e-001
7.124057e+003,1.459847e-001
7.127914e+003,1.808833e-001
7.131771e+003,1.613909e-001
7.135628e+003,1.310190e-001
7.139485e+003,1.123814e-001
7.143342e+003,9.715506e-002
7.147199e+003,1.020763e-001
7.151057e+003,1.260128e-001
7.154914e+003,1.151798e-001
7.158771e+003,7.526875e-002
7.162628e+003,6.668037e-002
7.166485e+003,9.739516e-002
7.170342e+003,1.285390e-001
7.174199e+003,1.464432e-001
7.178056e+003,1.343787e-001
7.181913e+003,1.916618e-001
7.185771e+003,2.383214e-001
7.189627e+003,1.440444e-001
7.193484e+003,9.862768e-002
7.197342e+003,1.304909e-001
7.201199e+003,1.576152e-001
7.205056e+003,1.354149e-001
7.208913e+003,1.559013e-001
7.212770e+003,1.564445e-001
7.216627e+003,1.711616e-001
7.220484e+003,1.962661e-001
7.224341e+003,1.777774e-001
7.228198e+003,1.451796e-001
7.232056e+003,1.470243e-001
7.235913e+003,1.618405e-001
7.239770e+003,1.431492e-001
7.243627e+003,9.969977e-002
7.247484e+003,7.792696e-002
7.251341e+003,7.047307e-002
7.255198e+003,1.374302e-001
7.259055e+003,1.833363e-001
7.262912e+003,1.687087e-001
7.266770e+003,1.658451e-001
7.270626e+003,1.446985e-001
7.274483e+003,1.438124e-001
7.278341e+003,1.525927e-001
7.282198e+003,1.034000e-001
7.286055e+003,1.171130e-001
7.289912e+003,1.501063e-001
7.293769e+003,1.721576e-001
7.297626e+003,1.355001e-001
7.301483e+003,1.447282e-001
7.305340e+003,2.144448e-001
7.309197e+003,2.463614e-001
7.313055e+003,2.614293e-001
7.316912e+003,2.086792e-001
7.320769e+003,1.796179e-001
7.324626e+003,1.665523e-001
7.328483e+003,1.175061e-001
7.332340e+003,7.709982e-002
7.336197e+003,9.068178e-002
7.340054e+003,1.463688e-001
7.343911e+003,1.648347e-001
7.347769e+003,8.972616e-002
7.351625e+003,9.749945e-002
7.355482e+003,1.273766e-001
7.359340e+003,1.227243e-001
7.363197e+003,9.473133e-002
7.367054e+003,1.335814e-001
7.370911e+003,1.423938e-001
7.374768e+003,1.492273e-001
7.378625e+003,1.385441e-001
7.382482e+003,1.180968e-001
7.386339e+003,1.225958e-001
7.390196e+003,1.067994e-001
7.394054e+003,1.400114e-001
7.397911e+003,1.608576e-001
7.401768e+003,8.903148e-002
7.405625e+003,8.701719e-002
7.409482e+003,1.344838e-001
7.413339e+003,1.398623e-001
7.417196e+003,1.516055e-001
7.421053e+003,1.379365e-001
7.424910e+003,1.049191e-001
7.428768e+003,1.475460e-001
7.432625e+003,1.922858e-001
7.436481e+003,1.446857e-001
7.440339e+003,8.265772e-002
7.444196e+003,8.856294e-002
7.448053e+003,1.384466e-001
7.451910e+003,1.503372e-001
7.455767e+003,6.344575e-002
7.459624e+003,1.283699e-001
7.463481e+003,2.449909e-001
7.467338e+003,2.151302e-001
7.471195e+003,1.541608e-001
7.475053e+003,1.273219e-001
7.478910e+003,8.920722e-002
7.482767e+003,9.289153e-002
7.486624e+003,9.001134e-002
7.490481e+003,4.986791e-002
7.494338e+003,1.058412e-001
7.498195e+003,1.505672e-001
7.502052e+003,9.194995e-002
7.505909e+003,7.931568e-002
7.509767e+003,1.270224e-001
7.513624e+003,1.852434e-001
7.517480e+003,2.206386e-001
7.521338e+003,2.017114e-001
7.525195e+003,1.288028e-001
7.529052e+003,1.250698e-001
7.532909e+003,1.670402e-001
7.536766e+003,1.174566e-001
7.540623e+003,4.199548e-002
7.544480e+003,6.058161e-002
7.548337e+003,6.814934e-002
7.552194e+003,3.321934e-002
7.556052e+003,9.244397e-002
7.559909e+003,1.480230e-001
7.563766e+003,1.562881e-001
7.567623e+003,1.388129e-001
7.571480e+003,8.439958e-002
7.575337e+003,7.356334e-002
7.579194e+003,1.222128e-001
7.583051e+003,9.023470e-002
7.586908e+003,1.083011e-001
7.590766e+003,1.107652e-001
7.594623e+003,5.206205e-002
7.598479e+003,4.905960e-002
7.602337e+003,9.693523e-002
7.606194e+003,1.437244e-001
7.610051e+003,1.778389e-001
7.613908e+003,1.637929e-001
7.617765e+003,1.040433e-001
7.621622e+003,4.855252e-002
7.625479e+003,4.321880e-002
7.629336e+003,1.148543e-001
7.633193e+003,1.543215e-001
7.637051e+003,1.997961e-001
7.640908e+003,1.975491e-001
7.644765e+003,1.024287e-001
7.648622e+003,3.237286e-002
7.652479e+003,6.446738e-002
7.656336e+003,2.003838e-001
7.660193e+003,2.133642e-001
7.664050e+003,1.355584e-001
7.667907e+003,1.354243e-001
7.671765e+003,1.979711e-001
7.675622e+003,1.066097e-001
7.679479e+003,7.415567e-002
7.683336e+003,7.819104e-002
7.687193e+003,1.009891e-001
7.691050e+003,1.152276e-001
7.694907e+003,1.795312e-001
7.698764e+003,1.844043e-001
7.702621e+003,1.473884e-001
7.706479e+003,1.719254e-001
7.710335e+003,1.982496e-001
7.714192e+003,2.406465e-001
7.718050e+003,2.346962e-001
7.721907e+003,1.771003e-001
7.725764e+003,1.366587e-001
7.729621e+003,9.849107e-002
7.733478e+003,1.123554e-001
7.737335e+003,1.341999e-001
7.741192e+003,8.212346e-002
7.745049e+003,7.155100e-002
7.748906e+003,9.912416e-002
7.752764e+003,1.909268e-002
7.756621e+003,-5.881946e-004
7.760478e+003,7.534701e-002
7.764335e+003,1.473984e-001
7.768192e+003,1.969917e-001
7.772049e+003,2.835419e-001
7.775906e+003,2.336869e-001
7.779763e+003,1.386088e-001
7.783620e+003,1.665398e-001
7.787478e+003,3.029527e-001
7.791334e+003,3.726484e-001
7.795191e+003,2.764720e-001
7.799049e+003,1.570730e-001
7.802906e+003,2.818334e-001
7.806763e+003,2.536769e-001
7.810620e+003,1.298433e-001
7.814477e+003,1.793185e-001
7.818334e+003,1.981726e-001
7.822191e+003,2.144338e-001
7.826048e+003,1.727470e-001
7.829905e+003,2.553576e-001
7.833763e+003,2.595383e-001
7.837620e+003,6.138774e-002
7.841477e+003,1.166908e-001
7.845334e+003,2.478604e-001
7.849191e+003,2.346289e-001
7.853048e+003,2.069011e-001
7.856905e+003,1.171942e-001
7.860762e+003,1.621671e-001
7.864619e+003,1.270717e-001
7.868477e+003,-1.018948e-002
7.872333e+003,1.346621e-002
7.876190e+003,1.323922e-001
7.880048e+003,1.171428e-001
7.883905e+003,1.338390e-001
7.887762e+003,1.273209e-001
7.891619e+003,-2.042130e-002
7.895476e+003,1.667060e-002
7.899333e+003,1.046730e-001
7.903190e+003,7.550153e-002
7.907047e+003,-2.237772e-002
7.910904e+003,8.360071e-002
7.914762e+003,2.208801e-001
7.918619e+003,1.539082e-001
7.922476e+003,1.211051e-001
7.926333e+003,1.543608e-001
7.930190e+003,2.053833e-001
7.934047e+003,8.737944e-002
7.937904e+003,9.823449e-002
7.941761e+003,1.450683e-001
7.945618e+003,9.469742e-002
7.949476e+003,1.528639e-001
7.953333e+003,2.536855e-001
7.957189e+003,2.971361e-001
7.961047e+003,2.527423e-001
7.964904e+003,2.561445e-002
7.968761e+003,5.674377e-002
7.972618e+003,1.364116e-001
7.976475e+003,3.054880e-001
7.980332e+003,3.884751e-001
7.984189e+003,3.234129e-001
7.988046e+003,2.271135e-001
7.991903e+003,5.993719e-002
7.995761e+003,1.410793e-002
7.999618e+003,1.332707e-001
