4.011380e+002,7.804675e-001
4.049951e+002,6.000000e+000
4.088522e+002,6.000000e+000
4.127093e+002,-3.250135e-001
4.165664e+002,4.072897e-001
4.204235e+002,6.000000e+000
4.242806e+002,6.000000e+000
4.281377e+002,-3.976123e-001
4.319948e+002,9.375988e-001
4.358519e+002,2.179974e+000
4.397090e+002,6.000000e+000
4.435661e+002,6.000000e+000
4.474232e+002,6.000000e+000
4.512803e+002,1.771745e-001
4.551374e+002,3.367309e-001
4.589945e+002,5.970021e-002
4.628516e+002,1.740396e+000
4.667087e+002,4.039604e-001
4.705658e+002,4.217768e-002
4.744229e+002,6.000000e+000
4.782800e+002,6.000000e+000
4.821371e+002,6.000000e+000
4.859941e+002,5.017660e-002
4.898513e+002,5.732743e-001
4.937083e+002,8.953787e-001
4.975654e+002,6.000000e+000
5.014225e+002,6.000000e+000
5.052796e+002,6.000000e+000
5.091367e+002,6.000000e+000
5.129938e+002,6.000000e+000
5.168509e+002,6.000000e+000
5.207080e+002,6.000000e+000
5.245651e+002,1.410772e+000
5.284222e+002,8.710343e-001
5.322793e+002,6.000000e+000
5.361364e+002,6.000000e+000
5.399935e+002,6.000000e+000
5.438506e+002,-2.115489e-001
5.477077e+002,-2.567756e-001
5.515648e+002,-1.460714e+000
5.554219e+002,6.000000e+000
5.592790e+002,-3.032945e-001
5.631361e+002,-7.863847e-001
5.669932e+002,1.234142e+000
5.708503e+002,-1.621271e-001
5.747074e+002,1.295951e+000
5.785645e+002,6.000000e+000
5.824216e+002,6.580222e-001
5.862787e+002,6.000000e+000
5.901357e+002,6.000000e+000
5.939929e+002,7.616327e-001
5.978499e+002,3.519579e-001
6.017070e+002,5.236011e-001
6.055641e+002,-1.228901e-001
6.094212e+002,6.000000e+000
6.132783e+002,6.000000e+000
6.171354e+002,6.000000e+000
6.209925e+002,6.000000e+000
6.248496e+002,6.000000e+000
6.287067e+002,6.000000e+000
6.325638e+002,5.774527e-002
6.364209e+002,-1.151139e+000
6.402780e+002,6.000000e+000
6.441351e+002,6.000000e+000
6.479922e+002,6.000000e+000
6.518493e+002,7.182392e-001
6.557064e+002,-1.994591e-001
6.595635e+002,6.000000e+000
6.634205e+002,5.296386e-001
6.672777e+002,8.200707e-002
6.711348e+002,-2.140017e-001
6.749918e+002,-3.302987e-001
6.788490e+002,3.284314e-001
6.827061e+002,-5.854575e-001
6.865631e+002,-1.386265e+000
6.904203e+002,-6.819212e-001
6.942773e+002,-4.766601e-001
6.981344e+002,-2.356227e-001
7.019916e+002,-4.561237e-001
7.058486e+002,1.185031e-003
7.097057e+002,4.603816e-001
7.135629e+002,6.000000e+000
7.174199e+002,6.000000e+000
7.212770e+002,3.451109e-001
7.251342e+002,-1.605613e-001
7.289912e+002,8.110633e-001
7.328483e+002,6.000000e+000
7.367054e+002,6.000000e+000
7.405625e+002,6.000000e+000
7.444196e+002,6.000000e+000
7.482767e+002,5.353038e-001
7.521338e+002,6.830761e-002
7.559908e+002,6.000000e+000
7.598480e+002,6.000000e+000
7.637051e+002,1.355469e+000
7.675621e+002,2.702534e-001
7.714193e+002,1.202906e-001
7.752764e+002,-1.671244e-001
7.791334e+002,6.000000e+000
7.829905e+002,-6.272200e-001
7.868477e+002,-6.125830e-001
7.907047e+002,6.669708e-001
7.945618e+002,6.000000e+000
7.984189e+002,6.000000e+000
8.022760e+002,3.059854e-001
8.061331e+002,2.463609e-001
8.099902e+002,6.000000e+000
8.138473e+002,6.000000e+000
8.177044e+002,6.000000e+000
8.215615e+002,6.000000e+000
8.254186e+002,6.000000e+000
8.292757e+002,6.000000e+000
8.331328e+002,6.000000e+000
8.369899e+002,6.000000e+000
8.408470e+002,6.000000e+000
8.447041e+002,6.000000e+000
8.485612e+002,6.000000e+000
8.524183e+002,1.111880e+000
8.562754e+002,1.043776e+000
8.601324e+002,6.000000e+000
8.639896e+002,6.000000e+000
8.678467e+002,6.000000e+000
8.717037e+002,1.304733e+000
8.755609e+002,1.448697e+000
8.794180e+002,1.152946e+000
8.832750e+002,1.132937e+000
8.871321e+002,1.348294e+000
8.909893e+002,1.799384e+000
8.948463e+002,6.000000e+000
8.987034e+002,6.000000e+000
9.025605e+002,3.212349e+000
9.064176e+002,1.784973e+000
9.102747e+002,1.953818e+000
9.141318e+002,6.000000e+000
9.179889e+002,2.222879e+000
9.218461e+002,2.111709e+000
9.257031e+002,2.065550e+000
9.295602e+002,1.670301e+000
9.334174e+002,2.457336e+000
9.372744e+002,2.748473e+000
9.411315e+002,1.996017e+000
9.449886e+002,6.000000e+000
9.488457e+002,6.000000e+000
9.527028e+002,1.788464e+000
9.565599e+002,1.586623e+000
9.604170e+002,2.157612e+000
9.642740e+002,6.000000e+000
9.681312e+002,6.000000e+000
9.719883e+002,6.000000e+000
9.758453e+002,6.000000e+000
9.797025e+002,6.000000e+000
9.835596e+002,6.000000e+000
9.874166e+002,6.000000e+000
9.912738e+002,4.025545e+000
9.951309e+002,2.053192e+000
9.989879e+002,2.178781e+000
1.002845e+003,3.406814e+000
1.006702e+003,6.000000e+000
1.010559e+003,1.984749e+000
1.014416e+003,1.712017e+000
1.018273e+003,1.846754e+000
1.022130e+003,2.132449e+000
1.025988e+003,1.875165e+000
1.029845e+003,1.783581e+000
1.033702e+003,1.934830e+000
1.037559e+003,2.051085e+000
1.041416e+003,1.872672e+000
1.045273e+003,1.907024e+000
1.049130e+003,1.924184e+000
1.052987e+003,1.730226e+000
1.056844e+003,1.984842e+000
1.060702e+003,2.119311e+000
1.064559e+003,2.021543e+000
1.068416e+003,2.980452e+000
1.072273e+003,2.220651e+000
1.076130e+003,1.787244e+000
1.079987e+003,1.764666e+000
1.083844e+003,1.742942e+000
1.087701e+003,1.685888e+000
1.091558e+003,1.556926e+000
1.095415e+003,1.543145e+000
1.099272e+003,1.635657e+000
1.103130e+003,1.606129e+000
1.106987e+003,1.497017e+000
1.110844e+003,1.468550e+000
1.114701e+003,1.444761e+000
1.118558e+003,1.550717e+000
1.122415e+003,1.495377e+000
1.126272e+003,1.460033e+000
1.130129e+003,1.519688e+000
1.133986e+003,1.495848e+000
1.137843e+003,1.483089e+000
1.141701e+003,1.499531e+000
1.145558e+003,1.541271e+000
1.149415e+003,1.541762e+000
1.153272e+003,1.495139e+000
1.157129e+003,1.544686e+000
1.160986e+003,1.500417e+000
1.164843e+003,1.374178e+000
1.168700e+003,1.315442e+000
1.172557e+003,1.360642e+000
1.176414e+003,1.421697e+000
1.180271e+003,1.415782e+000
1.184129e+003,1.386068e+000
1.187986e+003,1.336571e+000
1.191843e+003,1.347579e+000
1.195700e+003,1.433128e+000
1.199557e+003,1.498965e+000
1.203414e+003,1.479798e+000
1.207271e+003,1.421447e+000
1.211128e+003,1.321498e+000
1.214985e+003,1.236660e+000
1.218842e+003,1.214494e+000
1.222699e+003,1.187608e+000
1.226557e+003,1.138407e+000
1.230414e+003,1.085555e+000
1.234271e+003,9.984163e-001
1.238128e+003,9.249109e-001
1.241985e+003,8.713171e-001
1.245842e+003,8.395340e-001
1.249699e+003,8.033469e-001
1.253556e+003,7.648970e-001
1.257413e+003,7.330179e-001
1.261271e+003,7.080076e-001
1.265128e+003,6.836200e-001
1.268985e+003,6.528786e-001
1.272842e+003,6.359184e-001
1.276699e+003,6.234903e-001
1.280556e+003,6.127505e-001
1.284413e+003,6.004596e-001
1.288270e+003,5.831239e-001
1.292127e+003,5.648620e-001
1.295984e+003,5.598578e-001
1.299841e+003,5.544888e-001
1.303698e+003,5.389079e-001
1.307556e+003,5.289631e-001
1.311413e+003,5.240234e-001
1.315270e+003,5.170848e-001
1.319127e+003,5.122878e-001
1.322984e+003,5.015338e-001
1.326841e+003,4.943017e-001
1.330698e+003,4.927288e-001
1.334555e+003,4.864586e-001
1.338412e+003,4.837093e-001
1.342270e+003,4.854344e-001
1.346127e+003,4.826606e-001
1.349984e+003,4.834820e-001
1.353841e+003,4.811999e-001
1.357698e+003,4.807139e-001
1.361555e+003,4.894226e-001
1.365412e+003,4.929439e-001
1.369269e+003,4.961231e-001
1.373126e+003,5.064785e-001
1.376983e+003,5.141824e-001
1.380840e+003,5.263982e-001
1.384698e+003,5.474926e-001
1.388555e+003,5.661822e-001
1.392412e+003,5.773546e-001
1.396269e+003,5.963811e-001
1.400126e+003,6.187075e-001
1.403983e+003,6.385219e-001
1.407840e+003,6.560174e-001
1.411697e+003,6.736088e-001
1.415554e+003,6.879953e-001
1.419411e+003,7.036373e-001
1.423269e+003,7.060912e-001
1.427126e+003,7.119370e-001
1.430983e+003,7.214278e-001
1.434840e+003,7.198169e-001
1.438697e+003,7.219319e-001
1.442554e+003,7.198201e-001
1.446411e+003,7.131935e-001
1.450268e+003,7.042257e-001
1.454125e+003,6.882668e-001
1.457982e+003,6.741167e-001
1.461839e+003,6.636839e-001
1.465697e+003,6.545299e-001
1.469554e+003,6.468877e-001
1.473411e+003,6.491360e-001
1.477268e+003,6.620996e-001
1.481125e+003,6.703883e-001
1.484982e+003,6.755667e-001
1.488839e+003,6.889004e-001
1.492696e+003,7.039373e-001
1.496553e+003,7.132990e-001
1.500411e+003,7.248996e-001
1.504268e+003,7.434684e-001
1.508125e+003,7.554534e-001
1.511982e+003,7.485114e-001
1.515839e+003,7.398371e-001
1.519696e+003,7.343887e-001
1.523553e+003,7.169805e-001
1.527410e+003,6.970608e-001
1.531267e+003,6.832105e-001
1.535124e+003,6.719446e-001
1.538981e+003,6.560189e-001
1.542839e+003,6.339148e-001
1.546696e+003,6.176184e-001
1.550553e+003,6.040729e-001
1.554410e+003,5.926158e-001
1.558267e+003,5.822263e-001
1.562124e+003,5.663896e-001
1.565981e+003,5.553634e-001
1.569838e+003,5.494937e-001
1.573695e+003,5.473133e-001
1.577552e+003,5.507619e-001
1.581410e+003,5.491986e-001
1.585267e+003,5.457333e-001
1.589124e+003,5.479801e-001
1.592981e+003,5.569118e-001
1.596838e+003,5.692356e-001
1.600695e+003,5.845937e-001
1.604552e+003,5.979081e-001
1.608409e+003,6.279114e-001
1.612266e+003,6.659846e-001
1.616123e+003,6.892450e-001
1.619980e+003,7.199455e-001
1.623838e+003,7.517951e-001
1.627695e+003,7.715212e-001
1.631552e+003,7.892647e-001
1.635409e+003,8.062844e-001
1.639266e+003,8.121157e-001
1.643123e+003,8.033259e-001
1.646980e+003,7.838685e-001
1.650837e+003,7.592012e-001
1.654694e+003,7.342161e-001
1.658551e+003,7.112124e-001
1.662409e+003,6.834351e-001
1.666266e+003,6.540055e-001
1.670123e+003,6.293488e-001
1.673980e+003,6.033365e-001
1.677837e+003,5.751939e-001
1.681694e+003,5.582464e-001
1.685551e+003,5.412167e-001
1.689408e+003,5.210251e-001
1.693265e+003,5.031449e-001
1.697122e+003,4.880684e-001
1.700979e+003,4.825630e-001
1.704837e+003,4.716974e-001
1.708694e+003,4.578340e-001
1.712551e+003,4.485309e-001
1.716408e+003,4.502500e-001
1.720265e+003,4.538448e-001
1.724122e+003,4.500905e-001
1.727979e+003,4.404872e-001
1.731836e+003,4.308257e-001
1.735693e+003,4.292535e-001
1.739550e+003,4.287177e-001
1.743408e+003,4.257686e-001
1.747265e+003,4.214544e-001
1.751122e+003,4.246506e-001
1.754979e+003,4.290870e-001
1.758836e+003,4.305037e-001
1.762693e+003,4.291699e-001
1.766550e+003,4.265079e-001
1.770407e+003,4.233524e-001
1.774264e+003,4.197559e-001
1.778121e+003,4.210147e-001
1.781979e+003,4.229923e-001
1.785836e+003,4.232186e-001
1.789693e+003,4.222847e-001
1.793550e+003,4.183708e-001
1.797407e+003,4.128467e-001
1.801264e+003,4.100682e-001
1.805121e+003,4.069145e-001
1.808978e+003,4.011996e-001
1.812835e+003,4.005661e-001
1.816692e+003,4.002592e-001
1.820549e+003,3.968978e-001
1.824407e+003,3.970125e-001
1.828264e+003,3.941719e-001
1.832121e+003,3.885816e-001
1.835978e+003,3.886066e-001
1.839835e+003,3.926447e-001
1.843692e+003,3.921214e-001
1.847549e+003,3.865900e-001
1.851406e+003,3.842116e-001
1.855263e+003,3.827532e-001
1.859120e+003,3.845788e-001
1.862978e+003,3.876516e-001
1.866835e+003,3.873590e-001
1.870692e+003,3.855759e-001
1.874549e+003,3.823966e-001
1.878406e+003,3.794019e-001
1.882263e+003,3.793578e-001
1.886120e+003,3.772914e-001
1.889977e+003,3.761326e-001
1.893834e+003,3.777815e-001
1.897691e+003,3.713025e-001
1.901548e+003,3.661899e-001
1.905406e+003,3.643575e-001
1.909263e+003,3.653265e-001
1.913120e+003,3.648372e-001
1.916977e+003,3.652414e-001
1.920834e+003,3.649133e-001
1.924691e+003,3.657377e-001
1.928548e+003,3.638222e-001
1.932405e+003,3.621905e-001
1.936262e+003,3.607458e-001
1.940119e+003,3.568472e-001
1.943977e+003,3.565904e-001
1.947834e+003,3.576192e-001
1.951691e+003,3.535612e-001
1.955548e+003,3.485215e-001
1.959405e+003,3.469578e-001
1.963262e+003,3.441302e-001
1.967119e+003,3.421509e-001
1.970976e+003,3.413743e-001
1.974833e+003,3.386481e-001
1.978690e+003,3.370209e-001
1.982547e+003,3.384745e-001
1.986405e+003,3.378976e-001
1.990262e+003,3.337918e-001
1.994119e+003,3.355396e-001
1.997976e+003,3.363945e-001
2.001833e+003,3.352107e-001
2.005690e+003,3.364584e-001
2.009547e+003,3.385075e-001
2.013404e+003,3.371880e-001
2.017261e+003,3.311473e-001
2.021118e+003,3.282368e-001
2.024976e+003,3.289272e-001
2.028833e+003,3.290545e-001
2.032690e+003,3.287058e-001
2.036547e+003,3.279522e-001
2.040404e+003,3.245449e-001
2.044261e+003,3.193352e-001
2.048118e+003,3.123609e-001
2.051975e+003,3.127434e-001
2.055832e+003,3.134290e-001
2.059689e+003,3.125705e-001
2.063546e+003,3.143718e-001
2.067404e+003,3.160203e-001
2.071261e+003,3.159111e-001
2.075118e+003,3.163939e-001
2.078975e+003,3.158834e-001
2.082832e+003,3.143037e-001
2.086689e+003,3.133256e-001
2.090546e+003,3.125212e-001
2.094403e+003,3.116436e-001
2.098260e+003,3.119206e-001
2.102117e+003,3.118252e-001
2.105975e+003,3.110729e-001
2.109832e+003,3.072444e-001
2.113689e+003,3.045066e-001
2.117546e+003,3.056000e-001
2.121403e+003,3.069814e-001
2.125260e+003,3.079046e-001
2.129117e+003,3.072703e-001
2.132974e+003,3.079577e-001
2.136831e+003,3.073458e-001
2.140688e+003,3.054193e-001
2.144545e+003,3.075240e-001
2.148403e+003,3.103624e-001
2.152260e+003,3.092791e-001
2.156117e+003,3.072097e-001
2.159974e+003,3.094767e-001
2.163831e+003,3.090948e-001
2.167688e+003,3.074447e-001
2.171545e+003,3.084679e-001
2.175402e+003,3.088525e-001
2.179259e+003,3.054794e-001
2.183116e+003,3.047557e-001
2.186974e+003,3.054466e-001
2.190831e+003,3.058808e-001
2.194688e+003,3.083408e-001
2.198545e+003,3.094264e-001
2.202402e+003,3.072629e-001
2.206259e+003,3.058178e-001
2.210116e+003,3.063637e-001
2.213973e+003,3.081738e-001
2.217830e+003,3.123688e-001
2.221688e+003,3.133093e-001
2.225544e+003,3.133326e-001
2.229402e+003,3.138806e-001
2.233259e+003,3.120277e-001
2.237116e+003,3.100796e-001
2.240973e+003,3.115348e-001
2.244830e+003,3.134177e-001
2.248687e+003,3.157172e-001
2.252544e+003,3.177598e-001
2.256401e+003,3.152139e-001
2.260258e+003,3.144280e-001
2.264115e+003,3.171481e-001
2.267973e+003,3.187959e-001
2.271830e+003,3.155311e-001
2.275687e+003,3.136790e-001
2.279544e+003,3.145444e-001
2.283401e+003,3.165517e-001
2.287258e+003,3.160545e-001
2.291115e+003,3.190091e-001
2.294972e+003,3.231452e-001
2.298829e+003,3.234973e-001
2.302687e+003,3.236417e-001
2.306543e+003,3.244559e-001
2.310401e+003,3.228893e-001
2.314258e+003,3.222222e-001
2.318115e+003,3.248768e-001
2.321972e+003,3.260306e-001
2.325829e+003,3.258019e-001
2.329686e+003,3.251190e-001
2.333543e+003,3.243736e-001
2.337400e+003,3.231178e-001
2.341257e+003,3.209035e-001
2.345115e+003,3.225336e-001
2.348972e+003,3.231089e-001
2.352829e+003,3.227205e-001
2.356686e+003,3.257764e-001
2.360543e+003,3.264132e-001
2.364400e+003,3.225497e-001
2.368257e+003,3.201423e-001
2.372114e+003,3.214027e-001
2.375971e+003,3.211544e-001
2.379828e+003,3.186645e-001
2.383686e+003,3.189651e-001
2.387542e+003,3.178099e-001
2.391400e+003,3.150711e-001
2.395257e+003,3.176866e-001
2.399114e+003,3.204612e-001
2.402971e+003,3.198377e-001
2.406828e+003,3.170587e-001
2.410685e+003,3.141953e-001
2.414542e+003,3.151210e-001
2.418399e+003,3.133882e-001
2.422256e+003,3.114434e-001
2.426114e+003,3.115253e-001
2.429971e+003,3.107846e-001
2.433828e+003,3.085908e-001
2.437685e+003,3.069077e-001
2.441542e+003,3.076582e-001
2.445399e+003,3.098899e-001
2.449256e+003,3.083460e-001
2.453113e+003,3.064041e-001
2.456970e+003,3.066806e-001
2.460827e+003,3.061268e-001
2.464684e+003,3.063027e-001
2.468542e+003,3.075707e-001
2.472399e+003,3.079615e-001
2.476256e+003,3.061374e-001
2.480113e+003,3.027554e-001
2.483970e+003,3.022232e-001
2.487827e+003,3.054277e-001
2.491684e+003,3.050638e-001
2.495541e+003,3.010411e-001
2.499398e+003,3.007215e-001
2.503255e+003,3.010543e-001
2.507113e+003,3.011220e-001
2.510969e+003,3.014806e-001
2.514827e+003,3.024190e-001
2.518684e+003,3.023078e-001
2.522541e+003,3.013478e-001
2.526398e+003,3.013446e-001
2.530255e+003,3.046320e-001
2.534112e+003,3.046855e-001
2.537969e+003,2.998987e-001
2.541826e+003,3.002471e-001
2.545683e+003,3.061832e-001
2.549541e+003,3.095808e-001
2.553398e+003,3.097108e-001
2.557255e+003,3.098001e-001
2.561112e+003,3.104049e-001
2.564969e+003,3.125823e-001
2.568826e+003,3.121532e-001
2.572683e+003,3.115889e-001
2.576540e+003,3.142816e-001
2.580397e+003,3.177628e-001
2.584254e+003,3.246932e-001
2.588112e+003,3.255461e-001
2.591969e+003,3.205868e-001
2.595826e+003,3.190832e-001
2.599683e+003,3.250299e-001
2.603540e+003,3.308165e-001
2.607397e+003,3.329445e-001
2.611254e+003,3.347485e-001
2.615111e+003,3.381867e-001
2.618968e+003,3.389675e-001
2.622825e+003,3.404002e-001
2.626682e+003,3.429818e-001
2.630540e+003,3.418846e-001
2.634397e+003,3.413090e-001
2.638254e+003,3.452380e-001
2.642111e+003,3.504624e-001
2.645968e+003,3.549619e-001
2.649825e+003,3.553772e-001
2.653682e+003,3.562383e-001
2.657539e+003,3.556464e-001
2.661396e+003,3.571389e-001
2.665253e+003,3.616632e-001
2.669111e+003,3.684978e-001
2.672968e+003,3.719579e-001
2.676825e+003,3.704695e-001
2.680682e+003,3.747922e-001
2.684539e+003,3.794491e-001
2.688396e+003,3.799979e-001
2.692253e+003,3.845341e-001
2.696110e+003,3.871050e-001
2.699967e+003,3.928109e-001
2.703824e+003,3.993215e-001
2.707681e+003,3.979916e-001
2.711539e+003,3.987696e-001
2.715396e+003,4.046454e-001
2.719253e+003,4.067948e-001
2.723110e+003,4.099855e-001
2.726967e+003,4.159530e-001
2.730824e+003,4.204416e-001
2.734681e+003,4.245217e-001
2.738538e+003,4.275856e-001
2.742395e+003,4.303842e-001
2.746252e+003,4.317558e-001
2.750110e+003,4.327744e-001
2.753967e+003,4.344939e-001
2.757824e+003,4.402176e-001
2.761681e+003,4.488854e-001
2.765538e+003,4.553434e-001
2.769395e+003,4.567503e-001
2.773252e+003,4.594375e-001
2.777109e+003,4.630970e-001
2.780966e+003,4.664204e-001
2.784823e+003,4.679057e-001
2.788680e+003,4.751618e-001
2.792538e+003,4.833808e-001
2.796395e+003,4.845401e-001
2.800252e+003,4.861365e-001
2.804109e+003,4.911697e-001
2.807966e+003,5.011792e-001
2.811823e+003,5.032752e-001
2.815680e+003,5.046979e-001
2.819537e+003,5.092704e-001
2.823394e+003,5.096906e-001
2.827251e+003,5.134663e-001
2.831109e+003,5.161359e-001
2.834966e+003,5.258121e-001
2.838823e+003,5.348963e-001
2.842680e+003,5.316073e-001
2.846537e+003,5.343729e-001
2.850394e+003,5.449337e-001
2.854251e+003,5.531811e-001
2.858108e+003,5.611117e-001
2.861965e+003,5.652182e-001
2.865823e+003,5.609612e-001
2.869679e+003,5.585405e-001
2.873537e+003,5.694934e-001
2.877394e+003,5.821779e-001
2.881251e+003,5.871273e-001
2.885108e+003,5.895984e-001
2.888965e+003,5.925024e-001
2.892822e+003,5.968316e-001
2.896679e+003,6.050696e-001
2.900536e+003,6.128493e-001
2.904393e+003,6.172525e-001
2.908250e+003,6.205123e-001
2.912108e+003,6.292935e-001
2.915965e+003,6.305236e-001
2.919822e+003,6.333222e-001
2.923679e+003,6.478074e-001
2.927536e+003,6.536655e-001
2.931393e+003,6.562400e-001
2.935250e+003,6.561373e-001
2.939107e+003,6.586810e-001
2.942964e+003,6.668778e-001
2.946822e+003,6.732411e-001
2.950678e+003,6.830852e-001
2.954536e+003,6.934372e-001
2.958393e+003,7.046918e-001
2.962250e+003,7.038760e-001
2.966107e+003,6.974935e-001
2.969964e+003,7.027674e-001
2.973821e+003,7.095182e-001
2.977678e+003,7.174672e-001
2.981535e+003,7.279757e-001
2.985392e+003,7.345980e-001
2.989250e+003,7.383449e-001
2.993107e+003,7.448182e-001
2.996964e+003,7.544104e-001
3.000821e+003,7.602991e-001
3.004678e+003,7.661429e-001
3.008535e+003,7.744544e-001
3.012392e+003,7.808320e-001
3.016249e+003,7.776715e-001
3.020106e+003,7.756847e-001
3.023963e+003,7.817515e-001
3.027821e+003,7.940608e-001
3.031677e+003,7.986244e-001
3.035535e+003,7.957841e-001
3.039392e+003,8.043859e-001
3.043249e+003,8.165293e-001
3.047106e+003,8.275636e-001
3.050963e+003,8.347198e-001
3.054820e+003,8.433503e-001
3.058677e+003,8.525215e-001
3.062534e+003,8.572494e-001
3.066391e+003,8.664784e-001
3.070249e+003,8.726939e-001
3.074106e+003,8.675873e-001
3.077963e+003,8.722777e-001
3.081820e+003,8.845212e-001
3.085677e+003,8.919484e-001
3.089534e+003,9.026901e-001
3.093391e+003,9.072330e-001
3.097248e+003,9.110869e-001
3.101105e+003,9.232112e-001
3.104962e+003,9.311577e-001
3.108820e+003,9.451685e-001
3.112677e+003,9.505867e-001
3.116534e+003,9.438038e-001
3.120391e+003,9.466164e-001
3.124248e+003,9.685388e-001
3.128105e+003,9.799457e-001
3.131962e+003,9.805799e-001
3.135819e+003,9.740979e-001
3.139676e+003,9.790723e-001
3.143533e+003,1.007749e+000
3.147390e+003,1.008472e+000
3.151248e+003,1.002148e+000
3.155105e+003,1.012130e+000
3.158962e+003,1.025761e+000
3.162819e+003,1.035879e+000
3.166676e+003,1.039100e+000
3.170533e+003,1.060819e+000
3.174390e+003,1.060190e+000
3.178247e+003,1.057575e+000
3.182104e+003,1.074890e+000
3.185961e+003,1.074732e+000
3.189819e+003,1.070765e+000
3.193676e+003,1.074314e+000
3.197533e+003,1.094984e+000
3.201390e+003,1.107303e+000
3.205247e+003,1.096756e+000
3.209104e+003,1.097499e+000
3.212961e+003,1.102200e+000
3.216818e+003,1.119123e+000
3.220675e+003,1.136150e+000
3.224532e+003,1.144904e+000
3.228389e+003,1.135833e+000
3.232247e+003,1.126824e+000
3.236104e+003,1.136609e+000
3.239961e+003,1.165449e+000
3.243818e+003,1.176044e+000
3.247675e+003,1.170829e+000
3.251532e+003,1.171732e+000
3.255389e+003,1.163584e+000
3.259246e+003,1.169345e+000
3.263103e+003,1.165612e+000
3.266960e+003,1.167979e+000
3.270818e+003,1.164828e+000
3.274675e+003,1.178178e+000
3.278532e+003,1.190716e+000
3.282389e+003,1.197737e+000
3.286246e+003,1.192464e+000
3.290103e+003,1.185711e+000
3.293960e+003,1.203949e+000
3.297817e+003,1.194709e+000
3.301674e+003,1.187858e+000
3.305531e+003,1.209536e+000
3.309388e+003,1.216738e+000
3.313246e+003,1.213425e+000
3.317103e+003,1.227165e+000
3.320960e+003,1.252336e+000
3.324817e+003,1.254253e+000
3.328674e+003,1.258732e+000
3.332531e+003,1.265151e+000
3.336388e+003,1.288644e+000
3.340245e+003,1.284885e+000
3.344102e+003,1.281281e+000
3.347959e+003,1.282273e+000
3.351817e+003,1.274093e+000
3.355674e+003,1.257410e+000
3.359531e+003,1.280005e+000
3.363388e+003,1.290462e+000
3.367245e+003,1.303502e+000
3.371102e+003,1.324184e+000
3.374959e+003,1.330387e+000
3.378816e+003,1.341450e+000
3.382673e+003,1.326894e+000
3.386530e+003,1.321062e+000
3.390387e+003,1.311172e+000
3.394245e+003,1.295420e+000
3.398102e+003,1.307630e+000
3.401959e+003,1.319640e+000
3.405816e+003,1.352471e+000
3.409673e+003,1.371040e+000
3.413530e+003,1.394727e+000
3.417387e+003,1.353727e+000
3.421244e+003,1.316574e+000
3.425101e+003,1.313715e+000
3.428958e+003,1.310129e+000
3.432815e+003,1.347649e+000
3.436673e+003,1.362058e+000
3.440530e+003,1.357798e+000
3.444387e+003,1.354636e+000
3.448244e+003,1.350963e+000
3.452101e+003,1.383531e+000
3.455958e+003,1.394114e+000
3.459815e+003,1.355809e+000
3.463672e+003,1.323812e+000
3.467529e+003,1.338109e+000
3.471386e+003,1.365789e+000
3.475244e+003,1.373697e+000
3.479101e+003,1.400222e+000
3.482958e+003,1.384672e+000
3.486815e+003,1.373691e+000
3.490672e+003,1.348645e+000
3.494529e+003,1.353189e+000
3.498386e+003,1.367374e+000
3.502243e+003,1.377696e+000
3.506100e+003,1.407547e+000
3.509958e+003,1.403183e+000
3.513814e+003,1.377457e+000
3.517672e+003,1.374522e+000
3.521529e+003,1.380135e+000
3.525386e+003,1.374414e+000
3.529243e+003,1.363370e+000
3.533100e+003,1.360819e+000
3.536957e+003,1.354422e+000
3.540814e+003,1.373533e+000
3.544671e+003,1.386560e+000
3.548528e+003,1.378436e+000
3.552385e+003,1.383286e+000
3.556243e+003,1.399605e+000
3.560100e+003,1.389891e+000
3.563957e+003,1.374407e+000
3.567814e+003,1.358588e+000
3.571671e+003,1.329465e+000
3.575528e+003,1.291512e+000
3.579385e+003,1.311971e+000
3.583242e+003,1.308726e+000
3.587099e+003,1.276412e+000
3.590957e+003,1.241775e+000
3.594813e+003,1.224056e+000
3.598671e+003,1.234640e+000
3.602528e+003,1.214536e+000
3.606385e+003,1.198430e+000
3.610242e+003,1.165527e+000
3.614099e+003,1.118442e+000
3.617956e+003,1.062657e+000
3.621813e+003,1.011433e+000
3.625670e+003,9.602975e-001
3.629527e+003,9.062638e-001
3.633385e+003,8.559996e-001
3.637242e+003,7.959078e-001
3.641099e+003,7.364668e-001
3.644956e+003,6.773378e-001
3.648813e+003,6.182981e-001
3.652670e+003,5.601028e-001
3.656527e+003,5.115278e-001
3.660384e+003,4.616161e-001
3.664241e+003,4.114278e-001
3.668098e+003,3.743669e-001
3.671956e+003,3.412385e-001
3.675813e+003,3.114905e-001
3.679670e+003,2.850644e-001
3.683527e+003,2.629566e-001
3.687384e+003,2.488627e-001
3.691241e+003,2.317829e-001
3.695098e+003,2.146102e-001
3.698955e+003,2.017134e-001
3.702812e+003,1.914140e-001
3.706669e+003,1.813444e-001
3.710526e+003,1.739613e-001
3.714384e+003,1.694205e-001
3.718241e+003,1.627150e-001
3.722098e+003,1.544601e-001
3.725955e+003,1.465569e-001
3.729812e+003,1.434121e-001
3.733669e+003,1.430262e-001
3.737526e+003,1.411402e-001
3.741383e+003,1.378539e-001
3.745240e+003,1.350851e-001
3.749097e+003,1.335806e-001
3.752955e+003,1.306347e-001
3.756812e+003,1.319692e-001
3.760669e+003,1.322204e-001
3.764526e+003,1.291070e-001
3.768383e+003,1.268653e-001
3.772240e+003,1.254188e-001
3.776097e+003,1.236560e-001
3.779954e+003,1.227916e-001
3.783811e+003,1.240044e-001
3.787668e+003,1.251530e-001
3.791525e+003,1.242121e-001
3.795383e+003,1.184508e-001
3.799240e+003,1.168307e-001
3.803097e+003,1.183059e-001
3.806954e+003,1.212134e-001
3.810811e+003,1.213421e-001
3.814668e+003,1.201234e-001
3.818525e+003,1.180214e-001
3.822382e+003,1.184121e-001
3.826239e+003,1.189129e-001
3.830096e+003,1.179334e-001
3.833954e+003,1.191031e-001
3.837811e+003,1.208025e-001
3.841668e+003,1.221539e-001
3.845525e+003,1.220697e-001
3.849382e+003,1.192879e-001
3.853239e+003,1.198795e-001
3.857096e+003,1.187728e-001
3.860953e+003,1.138868e-001
3.864810e+003,1.129129e-001
3.868667e+003,1.142697e-001
3.872524e+003,1.159131e-001
3.876382e+003,1.168922e-001
3.880239e+003,1.173836e-001
3.884096e+003,1.175015e-001
3.887953e+003,1.175483e-001
3.891810e+003,1.199917e-001
3.895667e+003,1.193318e-001
3.899524e+003,1.181218e-001
3.903381e+003,1.174883e-001
3.907238e+003,1.146925e-001
3.911095e+003,1.154401e-001
3.914953e+003,1.174206e-001
3.918810e+003,1.170803e-001
3.922667e+003,1.171504e-001
3.926524e+003,1.172341e-001
3.930381e+003,1.166465e-001
3.934238e+003,1.192853e-001
3.938095e+003,1.193706e-001
3.941952e+003,1.171934e-001
3.945809e+003,1.169726e-001
3.949667e+003,1.164141e-001
3.953523e+003,1.164513e-001
3.957381e+003,1.177758e-001
3.961238e+003,1.183720e-001
3.965095e+003,1.213715e-001
3.968952e+003,1.207038e-001
3.972809e+003,1.175115e-001
3.976666e+003,1.184171e-001
3.980523e+003,1.195215e-001
3.984380e+003,1.221277e-001
3.988237e+003,1.201591e-001
3.992094e+003,1.148269e-001
3.995952e+003,1.181725e-001
3.999809e+003,1.224373e-001
4.003666e+003,1.224169e-001
4.007523e+003,1.216312e-001
4.011380e+003,1.211511e-001
4.015237e+003,1.206945e-001
4.019094e+003,1.190720e-001
4.022951e+003,1.157413e-001
4.026808e+003,1.143923e-001
4.030666e+003,1.178610e-001
4.034522e+003,1.222388e-001
4.038380e+003,1.202639e-001
4.042237e+003,1.172554e-001
4.046094e+003,1.184663e-001
4.049951e+003,1.195229e-001
4.053808e+003,1.182805e-001
4.057665e+003,1.176974e-001
4.061522e+003,1.192360e-001
4.065379e+003,1.200876e-001
4.069236e+003,1.204160e-001
4.073094e+003,1.209178e-001
4.076951e+003,1.215103e-001
4.080808e+003,1.224577e-001
4.084665e+003,1.169717e-001
4.088522e+003,1.144475e-001
4.092379e+003,1.188970e-001
4.096236e+003,1.185856e-001
4.100093e+003,1.176315e-001
4.103950e+003,1.188826e-001
4.107808e+003,1.209765e-001
4.111665e+003,1.217424e-001
4.115521e+003,1.209286e-001
4.119379e+003,1.214761e-001
4.123236e+003,1.192342e-001
4.127093e+003,1.149577e-001
4.130950e+003,1.171725e-001
4.134807e+003,1.196876e-001
4.138664e+003,1.163171e-001
4.142521e+003,1.174025e-001
4.146378e+003,1.184869e-001
4.150235e+003,1.161348e-001
4.154093e+003,1.146247e-001
4.157950e+003,1.158477e-001
4.161807e+003,1.208708e-001
4.165664e+003,1.199527e-001
4.169521e+003,1.164479e-001
4.173378e+003,1.149031e-001
4.177235e+003,1.121444e-001
4.181092e+003,1.146052e-001
4.184949e+003,1.202672e-001
4.188807e+003,1.235500e-001
4.192664e+003,1.216536e-001
4.196521e+003,1.183496e-001
4.200378e+003,1.181191e-001
4.204235e+003,1.222006e-001
4.208092e+003,1.239929e-001
4.211949e+003,1.217932e-001
4.215806e+003,1.206420e-001
4.219663e+003,1.191712e-001
4.223521e+003,1.213752e-001
4.227377e+003,1.238626e-001
4.231234e+003,1.201251e-001
4.235092e+003,1.191804e-001
4.238949e+003,1.218386e-001
4.242806e+003,1.226391e-001
4.246663e+003,1.227725e-001
4.250520e+003,1.198354e-001
4.254377e+003,1.171677e-001
4.258234e+003,1.186642e-001
4.262091e+003,1.198220e-001
4.265948e+003,1.208118e-001
4.269806e+003,1.204406e-001
4.273663e+003,1.191667e-001
4.277520e+003,1.226700e-001
4.281377e+003,1.241748e-001
4.285234e+003,1.207013e-001
4.289091e+003,1.198361e-001
4.292948e+003,1.235124e-001
4.296805e+003,1.287274e-001
4.300662e+003,1.274558e-001
4.304520e+003,1.210654e-001
4.308376e+003,1.172180e-001
4.312233e+003,1.213080e-001
4.316091e+003,1.241750e-001
4.319948e+003,1.228115e-001
4.323805e+003,1.218557e-001
4.327662e+003,1.217512e-001
4.331519e+003,1.228617e-001
4.335376e+003,1.215402e-001
4.339233e+003,1.219432e-001
4.343090e+003,1.250062e-001
4.346947e+003,1.306998e-001
4.350805e+003,1.322723e-001
4.354662e+003,1.301186e-001
4.358519e+003,1.332734e-001
4.362376e+003,1.344637e-001
4.366233e+003,1.307656e-001
4.370090e+003,1.271776e-001
4.373947e+003,1.283717e-001
4.377804e+003,1.322776e-001
4.381661e+003,1.308752e-001
4.385519e+003,1.269511e-001
4.389375e+003,1.333806e-001
4.393232e+003,1.358229e-001
4.397090e+003,1.260269e-001
4.400947e+003,1.252692e-001
4.404804e+003,1.319028e-001
4.408661e+003,1.337055e-001
4.412518e+003,1.314982e-001
4.416375e+003,1.329941e-001
4.420232e+003,1.349317e-001
4.424089e+003,1.348212e-001
4.427946e+003,1.328330e-001
4.431804e+003,1.311865e-001
4.435661e+003,1.361813e-001
4.439518e+003,1.402865e-001
4.443375e+003,1.419458e-001
4.447232e+003,1.402504e-001
4.451089e+003,1.357685e-001
4.454946e+003,1.365640e-001
4.458803e+003,1.401362e-001
4.462660e+003,1.374055e-001
4.466518e+003,1.384360e-001
4.470375e+003,1.386702e-001
4.474231e+003,1.353776e-001
4.478089e+003,1.368884e-001
4.481946e+003,1.382438e-001
4.485803e+003,1.337411e-001
4.489660e+003,1.306900e-001
4.493517e+003,1.354124e-001
4.497375e+003,1.396411e-001
4.501231e+003,1.417859e-001
4.505088e+003,1.393700e-001
4.508946e+003,1.414253e-001
4.512803e+003,1.429217e-001
4.516660e+003,1.353293e-001
4.520517e+003,1.378458e-001
4.524374e+003,1.437921e-001
4.528231e+003,1.429030e-001
4.532088e+003,1.432882e-001
4.535945e+003,1.439939e-001
4.539802e+003,1.387067e-001
4.543660e+003,1.426381e-001
4.547517e+003,1.432726e-001
4.551374e+003,1.361621e-001
4.555231e+003,1.329688e-001
4.559088e+003,1.309922e-001
4.562945e+003,1.311012e-001
4.566802e+003,1.382808e-001
4.570659e+003,1.433292e-001
4.574516e+003,1.390490e-001
4.578374e+003,1.368058e-001
4.582230e+003,1.417613e-001
4.586087e+003,1.413011e-001
4.589945e+003,1.401517e-001
4.593802e+003,1.426058e-001
4.597659e+003,1.436060e-001
4.601516e+003,1.394820e-001
4.605373e+003,1.437901e-001
4.609230e+003,1.477526e-001
4.613087e+003,1.453581e-001
4.616944e+003,1.411195e-001
4.620801e+003,1.415189e-001
4.624659e+003,1.456923e-001
4.628516e+003,1.447946e-001
4.632373e+003,1.445772e-001
4.636230e+003,1.420135e-001
4.640087e+003,1.353527e-001
4.643944e+003,1.327911e-001
4.647801e+003,1.365917e-001
4.651658e+003,1.356887e-001
4.655515e+003,1.381943e-001
4.659373e+003,1.416459e-001
4.663229e+003,1.436775e-001
4.667086e+003,1.446583e-001
4.670944e+003,1.459715e-001
4.674801e+003,1.477201e-001
4.678658e+003,1.517460e-001
4.682515e+003,1.503797e-001
4.686372e+003,1.434727e-001
4.690229e+003,1.414476e-001
4.694086e+003,1.411218e-001
4.697943e+003,1.401717e-001
4.701800e+003,1.438087e-001
4.705658e+003,1.431778e-001
4.709515e+003,1.378066e-001
4.713372e+003,1.391138e-001
4.717229e+003,1.397706e-001
4.721086e+003,1.349668e-001
4.724943e+003,1.368125e-001
4.728800e+003,1.417958e-001
4.732657e+003,1.414388e-001
4.736514e+003,1.402020e-001
4.740372e+003,1.478547e-001
4.744229e+003,1.503743e-001
4.748085e+003,1.487852e-001
4.751943e+003,1.506140e-001
4.755800e+003,1.530273e-001
4.759657e+003,1.529464e-001
4.763514e+003,1.483869e-001
4.767371e+003,1.492591e-001
4.771228e+003,1.575432e-001
4.775085e+003,1.535994e-001
4.778942e+003,1.511965e-001
4.782799e+003,1.542899e-001
4.786657e+003,1.500006e-001
4.790514e+003,1.445980e-001
4.794371e+003,1.421387e-001
4.798228e+003,1.473971e-001
4.802085e+003,1.505668e-001
4.805942e+003,1.467206e-001
4.809799e+003,1.454824e-001
4.813656e+003,1.479343e-001
4.817513e+003,1.528469e-001
4.821371e+003,1.541449e-001
4.825228e+003,1.531436e-001
4.829084e+003,1.495978e-001
4.832942e+003,1.514186e-001
4.836799e+003,1.598155e-001
4.840656e+003,1.598549e-001
4.844513e+003,1.576526e-001
4.848370e+003,1.540364e-001
4.852227e+003,1.565811e-001
4.856084e+003,1.582720e-001
4.859941e+003,1.575800e-001
4.863798e+003,1.529892e-001
4.867656e+003,1.432325e-001
4.871513e+003,1.514482e-001
4.875370e+003,1.563500e-001
4.879227e+003,1.528423e-001
4.883084e+003,1.547807e-001
4.886941e+003,1.578408e-001
4.890798e+003,1.595784e-001
4.894655e+003,1.622012e-001
4.898512e+003,1.629487e-001
4.902370e+003,1.594341e-001
4.906227e+003,1.565302e-001
4.910083e+003,1.547211e-001
4.913941e+003,1.619135e-001
4.917798e+003,1.665985e-001
4.921655e+003,1.681314e-001
4.925512e+003,1.687768e-001
4.929369e+003,1.632396e-001
4.933226e+003,1.552474e-001
4.937083e+003,1.590451e-001
4.940940e+003,1.610826e-001
4.944797e+003,1.563248e-001
4.948655e+003,1.587519e-001
4.952512e+003,1.622084e-001
4.956369e+003,1.661783e-001
4.960226e+003,1.662800e-001
4.964083e+003,1.683308e-001
4.967940e+003,1.682138e-001
4.971797e+003,1.683212e-001
4.975654e+003,1.687392e-001
4.979511e+003,1.610122e-001
4.983369e+003,1.560842e-001
4.987226e+003,1.596220e-001
4.991083e+003,1.594946e-001
4.994940e+003,1.631217e-001
4.998797e+003,1.622668e-001
5.002654e+003,1.568089e-001
5.006511e+003,1.600680e-001
5.010368e+003,1.641670e-001
5.014225e+003,1.655458e-001
5.018083e+003,1.665898e-001
5.021939e+003,1.671890e-001
5.025796e+003,1.641832e-001
5.029654e+003,1.627477e-001
5.033511e+003,1.683845e-001
5.037368e+003,1.670076e-001
5.041225e+003,1.644149e-001
5.045082e+003,1.653840e-001
5.048939e+003,1.643010e-001
5.052796e+003,1.650952e-001
5.056653e+003,1.667781e-001
5.060510e+003,1.694280e-001
5.064368e+003,1.661571e-001
5.068225e+003,1.644791e-001
5.072082e+003,1.692629e-001
5.075939e+003,1.631099e-001
5.079796e+003,1.636125e-001
5.083653e+003,1.672953e-001
5.087510e+003,1.670876e-001
5.091367e+003,1.638766e-001
5.095224e+003,1.698169e-001
5.099082e+003,1.737779e-001
5.102938e+003,1.693143e-001
5.106795e+003,1.627078e-001
5.110653e+003,1.648688e-001
5.114510e+003,1.716159e-001
5.118367e+003,1.709786e-001
5.122224e+003,1.729712e-001
5.126081e+003,1.752225e-001
5.129938e+003,1.710127e-001
5.133795e+003,1.675453e-001
5.137652e+003,1.711933e-001
5.141509e+003,1.732909e-001
5.145367e+003,1.713089e-001
5.149224e+003,1.770173e-001
5.153081e+003,1.826944e-001
5.156938e+003,1.759788e-001
5.160795e+003,1.712205e-001
5.164652e+003,1.731732e-001
5.168509e+003,1.715482e-001
5.172366e+003,1.676549e-001
5.176223e+003,1.669403e-001
5.180081e+003,1.682656e-001
5.183938e+003,1.743168e-001
5.187794e+003,1.804633e-001
5.191652e+003,1.833699e-001
5.195509e+003,1.815654e-001
5.199366e+003,1.798884e-001
5.203223e+003,1.750399e-001
5.207080e+003,1.711039e-001
5.210937e+003,1.692852e-001
5.214794e+003,1.677624e-001
5.218651e+003,1.661425e-001
5.222508e+003,1.675338e-001
5.226366e+003,1.706706e-001
5.230223e+003,1.725124e-001
5.234080e+003,1.722607e-001
5.237937e+003,1.724739e-001
5.241794e+003,1.731295e-001
5.245651e+003,1.703442e-001
5.249508e+003,1.709710e-001
5.253365e+003,1.772010e-001
5.257222e+003,1.836752e-001
5.261080e+003,1.752322e-001
5.264937e+003,1.676427e-001
5.268793e+003,1.686123e-001
5.272651e+003,1.664076e-001
5.276508e+003,1.716688e-001
5.280365e+003,1.750052e-001
5.284222e+003,1.693845e-001
5.288079e+003,1.673988e-001
5.291936e+003,1.673864e-001
5.295793e+003,1.644107e-001
5.299650e+003,1.609961e-001
5.303507e+003,1.618967e-001
5.307365e+003,1.639676e-001
5.311222e+003,1.625913e-001
5.315079e+003,1.654778e-001
5.318936e+003,1.719479e-001
5.322793e+003,1.691444e-001
5.326650e+003,1.685025e-001
5.330507e+003,1.653912e-001
5.334364e+003,1.570027e-001
5.338221e+003,1.594951e-001
5.342079e+003,1.613575e-001
5.345936e+003,1.589849e-001
5.349792e+003,1.648166e-001
5.353650e+003,1.697225e-001
5.357507e+003,1.656274e-001
5.361364e+003,1.619723e-001
5.365221e+003,1.683086e-001
5.369078e+003,1.724210e-001
5.372935e+003,1.664914e-001
5.376792e+003,1.623793e-001
5.380649e+003,1.615310e-001
5.384506e+003,1.619477e-001
5.388364e+003,1.622413e-001
5.392221e+003,1.574432e-001
5.396078e+003,1.574548e-001
5.399935e+003,1.539581e-001
5.403792e+003,1.512518e-001
5.407649e+003,1.563644e-001
5.411506e+003,1.605991e-001
5.415363e+003,1.662858e-001
5.419220e+003,1.681795e-001
5.423078e+003,1.616405e-001
5.426935e+003,1.544848e-001
5.430792e+003,1.612402e-001
5.434649e+003,1.736836e-001
5.438506e+003,1.759230e-001
5.442363e+003,1.687697e-001
5.446220e+003,1.716089e-001
5.450077e+003,1.701914e-001
5.453934e+003,1.727183e-001
5.457792e+003,1.716870e-001
5.461648e+003,1.612721e-001
5.465505e+003,1.577097e-001
5.469363e+003,1.614308e-001
5.473220e+003,1.587355e-001
5.477077e+003,1.573977e-001
5.480934e+003,1.577023e-001
5.484791e+003,1.522878e-001
5.488648e+003,1.604938e-001
5.492505e+003,1.646279e-001
5.496362e+003,1.570176e-001
5.500219e+003,1.499674e-001
5.504077e+003,1.502588e-001
5.507934e+003,1.515474e-001
5.511791e+003,1.530205e-001
5.515648e+003,1.646562e-001
5.519505e+003,1.722753e-001
5.523362e+003,1.611501e-001
5.527219e+003,1.568007e-001
5.531076e+003,1.615929e-001
5.534933e+003,1.637737e-001
5.538791e+003,1.571147e-001
5.542647e+003,1.488536e-001
5.546504e+003,1.511622e-001
5.550362e+003,1.579234e-001
5.554219e+003,1.622025e-001
5.558076e+003,1.575740e-001
5.561933e+003,1.528359e-001
5.565790e+003,1.603512e-001
5.569647e+003,1.630853e-001
5.573504e+003,1.594667e-001
5.577361e+003,1.576866e-001
5.581218e+003,1.592166e-001
5.585076e+003,1.626949e-001
5.588933e+003,1.615127e-001
5.592790e+003,1.636132e-001
5.596647e+003,1.657573e-001
5.600504e+003,1.592420e-001
5.604361e+003,1.568544e-001
5.608218e+003,1.588849e-001
5.612075e+003,1.600284e-001
5.615932e+003,1.563478e-001
5.619790e+003,1.507732e-001
5.623646e+003,1.493571e-001
5.627503e+003,1.513370e-001
5.631361e+003,1.505315e-001
5.635218e+003,1.528953e-001
5.639075e+003,1.554257e-001
5.642932e+003,1.583281e-001
5.646789e+003,1.619162e-001
5.650646e+003,1.536008e-001
5.654503e+003,1.447552e-001
5.658360e+003,1.530383e-001
5.662217e+003,1.603101e-001
5.666075e+003,1.591741e-001
5.669932e+003,1.626031e-001
5.673789e+003,1.585082e-001
5.677646e+003,1.438583e-001
5.681503e+003,1.427210e-001
5.685360e+003,1.482323e-001
5.689217e+003,1.460098e-001
5.693074e+003,1.479813e-001
5.696931e+003,1.542867e-001
5.700789e+003,1.596867e-001
5.704646e+003,1.600096e-001
5.708502e+003,1.569530e-001
5.712360e+003,1.627141e-001
5.716217e+003,1.636682e-001
5.720074e+003,1.570399e-001
5.723931e+003,1.485448e-001
5.727788e+003,1.452139e-001
5.731645e+003,1.509320e-001
5.735502e+003,1.434022e-001
5.739359e+003,1.428999e-001
5.743216e+003,1.558086e-001
5.747074e+003,1.550596e-001
5.750931e+003,1.511098e-001
5.754788e+003,1.512490e-001
5.758645e+003,1.509029e-001
5.762502e+003,1.506917e-001
5.766359e+003,1.592415e-001
5.770216e+003,1.597851e-001
5.774073e+003,1.424335e-001
5.777930e+003,1.335728e-001
5.781788e+003,1.431864e-001
5.785645e+003,1.514490e-001
5.789501e+003,1.533598e-001
5.793359e+003,1.550464e-001
5.797216e+003,1.538699e-001
5.801073e+003,1.500387e-001
5.804930e+003,1.450059e-001
5.808787e+003,1.421959e-001
5.812644e+003,1.411803e-001
5.816501e+003,1.413017e-001
5.820358e+003,1.446306e-001
5.824215e+003,1.431638e-001
5.828073e+003,1.415017e-001
5.831930e+003,1.487822e-001
5.835787e+003,1.525097e-001
5.839644e+003,1.486486e-001
5.843501e+003,1.450117e-001
5.847358e+003,1.443083e-001
5.851215e+003,1.480720e-001
5.855072e+003,1.450808e-001
5.858929e+003,1.476550e-001
5.862787e+003,1.502752e-001
5.866644e+003,1.398960e-001
5.870500e+003,1.429886e-001
5.874358e+003,1.455322e-001
5.878215e+003,1.441239e-001
5.882072e+003,1.436303e-001
5.885929e+003,1.424983e-001
5.889786e+003,1.376107e-001
5.893643e+003,1.281762e-001
5.897500e+003,1.288173e-001
5.901357e+003,1.418649e-001
5.905214e+003,1.446132e-001
5.909072e+003,1.354789e-001
5.912929e+003,1.316544e-001
5.916786e+003,1.366141e-001
5.920643e+003,1.408477e-001
5.924500e+003,1.423566e-001
5.928357e+003,1.472451e-001
5.932214e+003,1.423629e-001
5.936071e+003,1.347941e-001
5.939928e+003,1.378298e-001
5.943786e+003,1.406457e-001
5.947643e+003,1.353219e-001
5.951500e+003,1.383988e-001
5.955357e+003,1.432217e-001
5.959214e+003,1.414207e-001
5.963071e+003,1.405662e-001
5.966928e+003,1.381387e-001
5.970785e+003,1.304640e-001
5.974642e+003,1.256524e-001
5.978500e+003,1.250408e-001
5.982356e+003,1.305923e-001
5.986213e+003,1.408326e-001
5.990071e+003,1.377900e-001
5.993928e+003,1.363842e-001
5.997785e+003,1.427402e-001
6.001642e+003,1.517647e-001
6.005499e+003,1.447304e-001
6.009356e+003,1.429123e-001
6.013213e+003,1.478952e-001
6.017070e+003,1.450339e-001
6.020927e+003,1.340266e-001
6.024785e+003,1.292977e-001
6.028642e+003,1.389868e-001
6.032499e+003,1.330729e-001
6.036356e+003,1.335089e-001
6.040213e+003,1.334223e-001
6.044070e+003,1.256348e-001
6.047927e+003,1.318365e-001
6.051784e+003,1.458964e-001
6.055641e+003,1.424242e-001
6.059499e+003,1.345986e-001
6.063355e+003,1.462628e-001
6.067212e+003,1.454501e-001
6.071070e+003,1.369634e-001
6.074927e+003,1.357818e-001
6.078784e+003,1.400027e-001
6.082641e+003,1.371907e-001
6.086498e+003,1.325123e-001
6.090355e+003,1.354198e-001
6.094212e+003,1.338467e-001
6.098069e+003,1.341868e-001
6.101926e+003,1.374009e-001
6.105784e+003,1.287459e-001
6.109641e+003,1.228599e-001
6.113498e+003,1.296962e-001
6.117355e+003,1.393599e-001
6.121212e+003,1.413016e-001
6.125069e+003,1.385320e-001
6.128926e+003,1.400736e-001
6.132783e+003,1.378336e-001
6.136640e+003,1.333093e-001
6.140498e+003,1.302535e-001
6.144354e+003,1.231667e-001
6.148211e+003,1.247959e-001
6.152069e+003,1.293811e-001
6.155926e+003,1.180218e-001
6.159783e+003,1.212990e-001
6.163640e+003,1.302274e-001
6.167497e+003,1.331306e-001
6.171354e+003,1.328665e-001
6.175211e+003,1.335546e-001
6.179068e+003,1.339782e-001
6.182925e+003,1.336137e-001
6.186783e+003,1.411271e-001
6.190640e+003,1.306770e-001
6.194497e+003,1.228614e-001
6.198354e+003,1.274790e-001
6.202211e+003,1.375572e-001
6.206068e+003,1.459302e-001
6.209925e+003,1.357039e-001
6.213782e+003,1.232069e-001
6.217639e+003,1.361514e-001
6.221497e+003,1.431276e-001
6.225354e+003,1.300089e-001
6.229210e+003,1.202974e-001
6.233068e+003,1.198382e-001
6.236925e+003,1.358045e-001
6.240782e+003,1.357194e-001
6.244639e+003,1.256312e-001
6.248496e+003,1.312467e-001
6.252353e+003,1.272888e-001
6.256210e+003,1.171904e-001
6.260067e+003,1.171186e-001
6.263924e+003,1.231161e-001
6.267782e+003,1.245131e-001
6.271639e+003,1.214204e-001
6.275496e+003,1.170669e-001
6.279353e+003,1.189658e-001
6.283210e+003,1.196688e-001
6.287067e+003,1.214474e-001
6.290924e+003,1.211668e-001
6.294781e+003,1.129137e-001
6.298638e+003,1.091849e-001
6.302496e+003,1.104103e-001
6.306353e+003,1.128083e-001
6.310209e+003,1.096257e-001
6.314067e+003,1.042085e-001
6.317924e+003,1.053269e-001
6.321781e+003,1.089580e-001
6.325638e+003,1.215705e-001
6.329495e+003,1.195920e-001
6.333352e+003,1.091736e-001
6.337209e+003,1.127998e-001
6.341066e+003,1.246174e-001
6.344923e+003,1.239541e-001
6.348780e+003,1.233287e-001
6.352638e+003,1.288706e-001
6.356495e+003,1.250334e-001
6.360352e+003,1.137929e-001
6.364209e+003,1.130276e-001
6.368066e+003,1.180850e-001
6.371923e+003,1.139319e-001
6.375780e+003,1.175851e-001
6.379637e+003,1.192100e-001
6.383494e+003,1.110489e-001
6.387352e+003,1.151471e-001
6.391208e+003,1.389680e-001
6.395065e+003,1.440185e-001
6.398923e+003,1.214753e-001
6.402780e+003,1.165456e-001
6.406637e+003,1.274707e-001
6.410494e+003,1.203506e-001
6.414351e+003,9.873285e-002
6.418208e+003,1.054769e-001
6.422065e+003,1.194889e-001
6.425922e+003,1.155956e-001
6.429779e+003,1.153186e-001
6.433637e+003,1.354854e-001
6.437494e+003,1.472199e-001
6.441351e+003,1.214141e-001
6.445208e+003,1.082053e-001
6.449065e+003,1.172256e-001
6.452922e+003,1.216892e-001
6.456779e+003,1.280710e-001
6.460636e+003,1.196114e-001
6.464493e+003,1.070155e-001
6.468351e+003,1.034234e-001
6.472208e+003,1.130406e-001
6.476064e+003,1.123210e-001
6.479922e+003,1.121535e-001
6.483779e+003,1.045203e-001
6.487636e+003,1.009152e-001
6.491493e+003,1.017256e-001
6.495350e+003,1.130153e-001
6.499207e+003,1.138503e-001
6.503064e+003,1.157967e-001
6.506921e+003,1.170827e-001
6.510778e+003,1.090668e-001
6.514636e+003,1.056261e-001
6.518493e+003,1.076872e-001
6.522350e+003,1.055631e-001
6.526207e+003,1.076886e-001
6.530064e+003,1.049757e-001
6.533921e+003,1.054517e-001
6.537778e+003,1.121565e-001
6.541635e+003,1.095370e-001
6.545492e+003,1.060155e-001
6.549350e+003,1.030462e-001
6.553207e+003,9.367853e-002
6.557063e+003,1.044070e-001
6.560921e+003,1.097729e-001
6.564778e+003,9.608237e-002
6.568635e+003,9.690285e-002
6.572492e+003,9.296277e-002
6.576349e+003,9.702016e-002
6.580206e+003,1.039788e-001
6.584063e+003,9.745458e-002
6.587920e+003,8.060912e-002
6.591777e+003,8.738819e-002
6.595635e+003,9.901810e-002
6.599492e+003,9.990053e-002
6.603349e+003,1.104237e-001
6.607206e+003,1.239867e-001
6.611063e+003,1.330232e-001
6.614920e+003,1.210724e-001
6.618777e+003,1.147272e-001
6.622634e+003,1.166801e-001
6.626491e+003,1.154925e-001
6.630349e+003,1.158673e-001
6.634206e+003,1.044404e-001
6.638063e+003,9.758253e-002
6.641920e+003,1.073606e-001
6.645777e+003,1.099007e-001
6.649634e+003,9.981329e-002
6.653491e+003,9.617481e-002
6.657348e+003,1.158429e-001
6.661205e+003,1.185293e-001
6.665063e+003,1.145542e-001
6.668919e+003,1.137456e-001
6.672776e+003,1.235758e-001
6.676634e+003,1.252545e-001
6.680491e+003,1.242087e-001
6.684348e+003,1.236237e-001
6.688205e+003,1.198007e-001
6.692062e+003,1.117664e-001
6.695919e+003,1.060109e-001
6.699776e+003,1.028072e-001
6.703633e+003,1.083334e-001
6.707490e+003,1.237918e-001
6.711348e+003,1.330987e-001
6.715205e+003,1.283801e-001
6.719062e+003,1.114452e-001
6.722919e+003,9.635764e-002
6.726776e+003,9.476360e-002
6.730633e+003,1.158835e-001
6.734490e+003,1.177261e-001
6.738347e+003,1.122911e-001
6.742204e+003,1.089427e-001
6.746062e+003,1.192552e-001
6.749918e+003,1.251071e-001
6.753775e+003,1.292695e-001
6.757633e+003,1.218006e-001
6.761490e+003,1.097763e-001
6.765347e+003,1.106314e-001
6.769204e+003,1.151436e-001
6.773061e+003,1.182835e-001
6.776918e+003,1.233572e-001
6.780775e+003,1.198900e-001
6.784632e+003,1.126946e-001
6.788489e+003,9.637916e-002
6.792347e+003,8.493371e-002
6.796204e+003,9.668083e-002
6.800061e+003,9.692235e-002
6.803918e+003,1.066158e-001
6.807775e+003,1.202203e-001
6.811632e+003,1.144029e-001
6.815489e+003,9.330315e-002
6.819346e+003,9.771820e-002
6.823203e+003,9.574629e-002
6.827061e+003,8.294956e-002
6.830917e+003,1.076303e-001
6.834774e+003,1.366392e-001
6.838632e+003,1.225043e-001
6.842489e+003,1.176354e-001
6.846346e+003,1.203425e-001
6.850203e+003,1.123672e-001
6.854060e+003,1.168959e-001
6.857917e+003,1.150405e-001
6.861774e+003,1.313408e-001
6.865631e+003,1.528796e-001
6.869488e+003,1.271228e-001
6.873346e+003,1.237964e-001
6.877203e+003,1.292691e-001
6.881060e+003,1.138123e-001
6.884917e+003,1.173953e-001
6.888774e+003,1.334851e-001
6.892631e+003,1.290690e-001
6.896488e+003,1.144671e-001
6.900345e+003,9.277935e-002
6.904202e+003,9.874653e-002
6.908060e+003,1.130102e-001
6.911917e+003,1.150277e-001
6.915773e+003,1.249467e-001
6.919631e+003,1.202897e-001
6.923488e+003,1.166069e-001
6.927345e+003,1.103235e-001
6.931202e+003,1.020792e-001
6.935059e+003,1.111936e-001
6.938916e+003,1.240558e-001
6.942773e+003,1.233887e-001
6.946630e+003,1.120301e-001
6.950487e+003,1.121030e-001
6.954345e+003,1.185484e-001
6.958202e+003,1.163416e-001
6.962059e+003,1.055016e-001
6.965916e+003,9.550904e-002
6.969773e+003,1.170175e-001
6.973630e+003,1.462110e-001
6.977487e+003,1.450771e-001
6.981344e+003,1.355137e-001
6.985201e+003,1.257992e-001
6.989059e+003,1.229367e-001
6.992916e+003,1.478288e-001
6.996772e+003,1.524572e-001
7.000630e+003,1.331476e-001
7.004487e+003,1.252523e-001
7.008344e+003,1.134968e-001
7.012201e+003,1.157316e-001
7.016058e+003,1.321708e-001
7.019915e+003,1.286317e-001
7.023772e+003,1.045896e-001
7.027629e+003,1.061259e-001
7.031486e+003,1.464993e-001
7.035344e+003,1.517530e-001
7.039201e+003,1.272295e-001
7.043058e+003,1.235038e-001
7.046915e+003,1.394079e-001
7.050772e+003,1.293296e-001
7.054629e+003,1.180653e-001
7.058486e+003,1.092628e-001
7.062343e+003,1.180421e-001
7.066200e+003,1.345161e-001
7.070058e+003,1.427277e-001
7.073915e+003,1.376644e-001
7.077771e+003,1.333538e-001
7.081629e+003,1.293769e-001
7.085486e+003,1.120022e-001
7.089343e+003,1.177853e-001
7.093200e+003,1.213668e-001
7.097057e+003,1.222072e-001
7.100914e+003,1.274881e-001
7.104771e+003,1.313769e-001
7.108628e+003,1.276479e-001
7.112485e+003,1.344160e-001
7.116343e+003,1.611221e-001
7.120200e+003,1.609477e-001
7.124057e+003,1.499313e-001
7.127914e+003,1.461450e-001
7.131771e+003,1.414692e-001
7.135628e+003,1.538093e-001
7.139485e+003,1.478072e-001
7.143342e+003,1.388291e-001
7.147199e+003,1.356265e-001
7.151057e+003,1.252920e-001
7.154914e+003,1.225413e-001
7.158771e+003,1.094855e-001
7.162628e+003,1.278429e-001
7.166485e+003,1.545697e-001
7.170342e+003,1.755410e-001
7.174199e+003,1.749631e-001
7.178056e+003,1.514479e-001
7.181913e+003,1.410189e-001
7.185771e+003,1.418926e-001
7.189627e+003,1.278777e-001
7.193484e+003,1.209102e-001
7.197342e+003,1.201942e-001
7.201199e+003,1.238502e-001
7.205056e+003,1.239042e-001
7.208913e+003,1.245090e-001
7.212770e+003,1.476447e-001
7.216627e+003,1.671506e-001
7.220484e+003,1.434084e-001
7.224341e+003,1.410996e-001
7.228198e+003,1.297266e-001
7.232056e+003,1.123458e-001
7.235913e+003,1.194254e-001
7.239770e+003,1.215837e-001
7.243627e+003,1.206617e-001
7.247484e+003,1.540871e-001
7.251341e+003,1.704642e-001
7.255198e+003,1.766048e-001
7.259055e+003,1.747589e-001
7.262912e+003,1.414773e-001
7.266770e+003,1.083295e-001
7.270626e+003,1.309981e-001
7.274483e+003,1.546121e-001
7.278341e+003,1.210881e-001
7.282198e+003,8.049353e-002
7.286055e+003,9.123842e-002
7.289912e+003,1.243111e-001
7.293769e+003,1.259604e-001
7.297626e+003,1.268156e-001
7.301483e+003,1.351887e-001
7.305340e+003,1.614573e-001
7.309197e+003,1.585259e-001
7.313055e+003,1.469446e-001
7.316912e+003,1.521125e-001
7.320769e+003,1.430063e-001
7.324626e+003,1.292708e-001
7.328483e+003,1.183025e-001
7.332340e+003,1.354049e-001
7.336197e+003,1.685719e-001
7.340054e+003,1.612845e-001
7.343911e+003,1.537486e-001
7.347769e+003,1.511148e-001
7.351625e+003,1.343475e-001
7.355482e+003,1.261420e-001
7.359340e+003,1.002133e-001
7.363197e+003,9.330697e-002
7.367054e+003,9.423190e-002
7.370911e+003,1.135593e-001
7.374768e+003,1.504065e-001
7.378625e+003,1.312819e-001
7.382482e+003,1.135066e-001
7.386339e+003,1.047709e-001
7.390196e+003,1.128421e-001
7.394054e+003,1.272129e-001
7.397911e+003,1.399320e-001
7.401768e+003,1.278561e-001
7.405625e+003,1.119082e-001
7.409482e+003,1.195080e-001
7.413339e+003,1.426629e-001
7.417196e+003,1.418169e-001
7.421053e+003,1.614810e-001
7.424910e+003,1.667595e-001
7.428768e+003,1.451357e-001
7.432625e+003,1.360160e-001
7.436481e+003,1.394791e-001
7.440339e+003,1.481560e-001
7.444196e+003,9.880502e-002
7.448053e+003,8.607484e-002
7.451910e+003,1.182844e-001
7.455767e+003,1.607781e-001
7.459624e+003,1.364242e-001
7.463481e+003,1.124228e-001
7.467338e+003,1.041573e-001
7.471195e+003,1.079552e-001
7.475053e+003,1.044125e-001
7.478910e+003,8.959704e-002
7.482767e+003,1.282422e-001
7.486624e+003,1.212490e-001
7.490481e+003,1.182814e-001
7.494338e+003,1.304907e-001
7.498195e+003,1.172256e-001
7.502052e+003,1.556062e-001
7.505909e+003,1.702634e-001
7.509767e+003,1.563303e-001
7.513624e+003,1.629100e-001
7.517480e+003,1.737320e-001
7.521338e+003,1.627864e-001
7.525195e+003,1.595222e-001
7.529052e+003,1.430295e-001
7.532909e+003,1.328665e-001
7.536766e+003,1.557630e-001
7.540623e+003,1.679640e-001
7.544480e+003,1.415129e-001
7.548337e+003,1.289838e-001
7.552194e+003,1.145715e-001
7.556052e+003,1.026780e-001
7.559909e+003,1.578852e-001
7.563766e+003,1.765163e-001
7.567623e+003,1.191622e-001
7.571480e+003,1.215328e-001
7.575337e+003,1.789553e-001
7.579194e+003,1.843951e-001
7.583051e+003,1.843335e-001
7.586908e+003,1.987212e-001
7.590766e+003,1.742097e-001
7.594623e+003,1.387002e-001
7.598479e+003,1.287699e-001
7.602337e+003,8.652695e-002
7.606194e+003,7.058895e-002
7.610051e+003,1.284205e-001
7.613908e+003,1.853205e-001
7.617765e+003,1.631815e-001
7.621622e+003,1.588895e-001
7.625479e+003,2.052363e-001
7.629336e+003,2.259480e-001
7.633193e+003,2.013553e-001
7.637051e+003,1.731615e-001
7.640908e+003,1.977291e-001
7.644765e+003,1.750369e-001
7.648622e+003,1.566181e-001
7.652479e+003,1.420024e-001
7.656336e+003,1.433258e-001
7.660193e+003,1.694627e-001
7.664050e+003,1.653949e-001
7.667907e+003,1.648355e-001
7.671765e+003,1.280096e-001
7.675622e+003,9.326077e-002
7.679479e+003,9.260519e-002
7.683336e+003,1.111561e-001
7.687193e+003,1.245849e-001
7.691050e+003,1.277870e-001
7.694907e+003,1.459971e-001
7.698764e+003,1.394655e-001
7.702621e+003,1.306311e-001
7.706479e+003,1.528156e-001
7.710335e+003,1.779838e-001
7.714192e+003,1.801593e-001
7.718050e+003,1.958947e-001
7.721907e+003,2.363600e-001
7.725764e+003,1.583653e-001
7.729621e+003,7.716001e-002
7.733478e+003,1.275815e-001
7.737335e+003,1.870076e-001
7.741192e+003,2.272013e-001
7.745049e+003,2.181534e-001
7.748906e+003,1.957507e-001
7.752764e+003,1.805567e-001
7.756621e+003,2.017578e-001
7.760478e+003,2.257446e-001
7.764335e+003,2.102849e-001
7.768192e+003,1.696616e-001
7.772049e+003,1.547543e-001
7.775906e+003,1.136653e-001
7.779763e+003,6.992968e-002
7.783620e+003,5.334200e-002
7.787478e+003,1.146602e-001
7.791334e+003,1.698965e-001
7.795191e+003,1.510291e-001
7.799049e+003,1.250422e-001
7.802906e+003,1.413594e-001
7.806763e+003,1.914568e-001
7.810620e+003,2.427951e-001
7.814477e+003,2.194276e-001
7.818334e+003,1.569830e-001
7.822191e+003,6.891036e-002
7.826048e+003,5.409591e-002
7.829905e+003,1.079601e-001
7.833763e+003,1.138667e-001
7.837620e+003,1.508811e-001
7.841477e+003,1.621680e-001
7.845334e+003,7.218182e-002
7.849191e+003,6.014558e-002
7.853048e+003,1.429243e-001
7.856905e+003,1.117598e-001
7.860762e+003,1.131365e-001
7.864619e+003,1.332820e-001
7.868477e+003,1.340926e-001
7.872333e+003,9.385941e-002
7.876190e+003,2.680638e-002
7.880048e+003,8.340751e-002
7.883905e+003,1.339374e-001
7.887762e+003,5.633511e-002
7.891619e+003,3.890892e-002
7.895476e+003,1.266029e-001
7.899333e+003,1.776525e-001
7.903190e+003,2.115268e-001
7.907047e+003,2.240313e-001
7.910904e+003,1.359972e-001
7.914762e+003,8.292390e-002
7.918619e+003,6.689228e-002
7.922476e+003,4.620503e-002
7.926333e+003,1.143035e-001
7.930190e+003,1.631958e-001
7.934047e+003,1.280781e-001
7.937904e+003,1.083986e-001
7.941761e+003,1.284316e-001
7.945618e+003,1.446378e-001
7.949476e+003,1.690339e-001
7.953333e+003,1.425453e-001
7.957189e+003,1.331308e-001
7.961047e+003,9.958411e-002
7.964904e+003,7.472070e-002
7.968761e+003,1.198888e-001
7.972618e+003,9.389166e-002
7.976475e+003,8.490925e-002
7.980332e+003,1.046564e-001
7.984189e+003,1.289467e-001
7.988046e+003,1.951704e-001
7.991903e+003,2.299577e-001
7.995761e+003,2.446096e-001
7.999618e+003,1.796215e-001
