4.011380e+002,-4.301070e-001
4.049951e+002,4.092216e-001
4.088522e+002,3.532468e-001
4.127093e+002,1.314428e-002
4.165664e+002,-7.231280e-001
4.204235e+002,-1.350305e+000
4.242806e+002,6.000000e+000
4.281377e+002,6.000000e+000
4.319948e+002,-3.255152e-001
4.358519e+002,-1.233755e+000
4.397090e+002,6.000000e+000
4.435661e+002,6.000000e+000
4.474232e+002,6.000000e+000
4.512803e+002,6.000000e+000
4.551374e+002,-4.535447e-001
4.589945e+002,6.000000e+000
4.628516e+002,-4.715798e-001
4.667087e+002,6.000000e+000
4.705658e+002,6.000000e+000
4.744229e+002,-2.904563e-001
4.782800e+002,6.000000e+000
4.821371e+002,2.487958e-001
4.859941e+002,6.168120e-001
4.898513e+002,1.245907e-001
4.937083e+002,-5.249101e-001
4.975654e+002,6.000000e+000
5.014225e+002,6.073503e-001
5.052796e+002,6.000000e+000
5.091367e+002,6.000000e+000
5.129938e+002,-3.338792e-001
5.168509e+002,3.989402e-002
5.207080e+002,6.000000e+000
5.245651e+002,6.000000e+000
5.284222e+002,6.000000e+000
5.322793e+002,6.000000e+000
5.361364e+002,6.000000e+000
5.399935e+002,6.000000e+000
5.438506e+002,1.312063e+000
5.477077e+002,-3.887319e-001
5.515648e+002,-2.520687e-001
5.554219e+002,6.693304e-001
5.592790e+002,6.000000e+000
5.631361e+002,6.000000e+000
5.669932e+002,-5.992556e-001
5.708503e+002,-3.471080e-001
5.747074e+002,6.000000e+000
5.785645e+002,6.000000e+000
5.824216e+002,6.000000e+000
5.862787e+002,6.000000e+000
5.901357e+002,-1.417511e-001
5.939929e+002,1.213349e+000
5.978499e+002,-6.487432e-001
6.017070e+002,6.000000e+000
6.055641e+002,6.000000e+000
6.094212e+002,1.007877e+000
6.132783e+002,6.000000e+000
6.171354e+002,6.000000e+000
6.209925e+002,6.000000e+000
6.248496e+002,6.000000e+000
6.287067e+002,6.000000e+000
6.325638e+002,6.000000e+000
6.364209e+002,6.000000e+000
6.402780e+002,6.000000e+000
6.441351e+002,6.000000e+000
6.479922e+002,6.000000e+000
6.518493e+002,6.000000e+000
6.557064e+002,6.000000e+000
6.595635e+002,6.000000e+000
6.634205e+002,-1.660708e-001
6.672777e+002,3.977954e-002
6.711348e+002,6.000000e+000
6.749918e+002,6.000000e+000
6.788490e+002,6.000000e+000
6.827061e+002,6.000000e+000
6.865631e+002,6.000000e+000
6.904203e+002,-1.032324e+000
6.942773e+002,1.943683e-001
6.981344e+002,-6.734474e-001
7.019916e+002,9.741867e-001
7.058486e+002,-6.296857e-002
7.097057e+002,6.000000e+000
7.135629e+002,-1.900975e-003
7.174199e+002,-5.002036e-001
7.212770e+002,1.326856e-001
7.251342e+002,7.555273e-001
7.289912e+002,-4.061095e-001
7.328483e+002,6.000000e+000
7.367054e+002,8.461682e-002
7.405625e+002,-1.497881e-001
7.444196e+002,6.000000e+000
7.482767e+002,6.000000e+000
7.521338e+002,6.000000e+000
7.559908e+002,-5.272322e-001
7.598480e+002,6.000000e+000
7.637051e+002,1.967605e-001
7.675621e+002,6.000000e+000
7.714193e+002,-1.270527e+000
7.752764e+002,6.000000e+000
7.791334e+002,-6.742402e-001
7.829905e+002,-2.079384e-001
7.868477e+002,9.301156e-001
7.907047e+002,6.000000e+000
7.945618e+002,6.000000e+000
7.984189e+002,6.000000e+000
8.022760e+002,5.142541e-002
8.061331e+002,5.464565e-001
8.099902e+002,1.009520e-001
8.138473e+002,6.000000e+000
8.177044e+002,-1.498526e-001
8.215615e+002,3.136075e-002
8.254186e+002,6.000000e+000
8.292757e+002,6.000000e+000
8.331328e+002,6.000000e+000
8.369899e+002,5.711843e-001
8.408470e+002,3.925227e-001
8.447041e+002,7.642008e-001
8.485612e+002,8.517747e-001
8.524183e+002,7.226601e-001
8.562754e+002,1.315682e+000
8.601324e+002,6.000000e+000
8.639896e+002,6.000000e+000
8.678467e+002,6.000000e+000
8.717037e+002,6.000000e+000
8.755609e+002,1.741567e+000
8.794180e+002,1.655012e+000
8.832750e+002,6.000000e+000
8.871321e+002,6.000000e+000
8.909893e+002,1.244292e+000
8.948463e+002,1.488360e+000
8.987034e+002,6.000000e+000
9.025605e+002,6.000000e+000
9.064176e+002,1.439142e+000
9.102747e+002,6.000000e+000
9.141318e+002,6.000000e+000
9.179889e+002,6.000000e+000
9.218461e+002,6.000000e+000
9.257031e+002,2.329576e+000
9.295602e+002,6.000000e+000
9.334174e+002,6.000000e+000
9.372744e+002,2.614547e+000
9.411315e+002,2.347325e+000
9.449886e+002,2.063283e+000
9.488457e+002,2.150100e+000
9.527028e+002,1.581085e+000
9.565599e+002,1.769215e+000
9.604170e+002,1.850588e+000
9.642740e+002,2.314684e+000
9.681312e+002,6.000000e+000
9.719883e+002,6.000000e+000
9.758453e+002,6.000000e+000
9.797025e+002,2.677584e+000
9.835596e+002,6.000000e+000
9.874166e+002,2.372772e+000
9.912738e+002,1.862377e+000
9.951309e+002,1.802740e+000
9.989879e+002,1.853219e+000
1.002845e+003,1.806575e+000
1.006702e+003,2.058204e+000
1.010559e+003,2.262772e+000
1.014416e+003,1.798092e+000
1.018273e+003,1.370409e+000
1.022130e+003,1.406219e+000
1.025988e+003,1.651403e+000
1.029845e+003,1.650620e+000
1.033702e+003,1.716797e+000
1.037559e+003,1.813620e+000
1.041416e+003,1.952005e+000
1.045273e+003,1.535922e+000
1.049130e+003,1.319438e+000
1.052987e+003,1.468697e+000
1.056844e+003,1.558993e+000
1.060702e+003,1.541659e+000
1.064559e+003,1.701445e+000
1.068416e+003,1.922421e+000
1.072273e+003,1.789386e+000
1.076130e+003,1.662145e+000
1.079987e+003,1.600695e+000
1.083844e+003,1.425063e+000
1.087701e+003,1.277906e+000
1.091558e+003,1.347285e+000
1.095415e+003,1.469384e+000
1.099272e+003,1.455640e+000
1.103130e+003,1.470764e+000
1.106987e+003,1.367699e+000
1.110844e+003,1.254223e+000
1.114701e+003,1.201111e+000
1.118558e+003,1.249374e+000
1.122415e+003,1.334372e+000
1.126272e+003,1.289150e+000
1.130129e+003,1.297711e+000
1.133986e+003,1.300964e+000
1.137843e+003,1.250639e+000
1.141701e+003,1.270816e+000
1.145558e+003,1.285089e+000
1.149415e+003,1.248275e+000
1.153272e+003,1.194976e+000
1.157129e+003,1.161300e+000
1.160986e+003,1.208640e+000
1.164843e+003,1.263872e+000
1.168700e+003,1.183909e+000
1.172557e+003,1.130974e+000
1.176414e+003,1.175250e+000
1.180271e+003,1.211396e+000
1.184129e+003,1.225975e+000
1.187986e+003,1.240963e+000
1.191843e+003,1.204884e+000
1.195700e+003,1.170655e+000
1.199557e+003,1.207362e+000
1.203414e+003,1.217118e+000
1.207271e+003,1.139272e+000
1.211128e+003,1.064525e+000
1.214985e+003,1.031032e+000
1.218842e+003,9.730599e-001
1.222699e+003,9.007292e-001
1.226557e+003,8.274244e-001
1.230414e+003,7.712031e-001
1.234271e+003,7.417977e-001
1.238128e+003,7.099761e-001
1.241985e+003,6.634294e-001
1.245842e+003,6.266073e-001
1.249699e+003,6.032949e-001
1.253556e+003,5.804013e-001
1.257413e+003,5.536225e-001
1.261271e+003,5.312371e-001
1.265128e+003,5.249208e-001
1.268985e+003,5.170904e-001
1.272842e+003,5.034928e-001
1.276699e+003,4.924751e-001
1.280556e+003,4.782076e-001
1.284413e+003,4.693521e-001
1.288270e+003,4.604450e-001
1.292127e+003,4.449547e-001
1.295984e+003,4.333474e-001
1.299841e+003,4.272531e-001
1.303698e+003,4.242797e-001
1.307556e+003,4.164056e-001
1.311413e+003,4.145316e-001
1.315270e+003,4.132500e-001
1.319127e+003,4.042404e-001
1.322984e+003,3.968255e-001
1.326841e+003,4.009574e-001
1.330698e+003,4.039198e-001
1.334555e+003,3.966946e-001
1.338412e+003,3.997023e-001
1.342270e+003,4.022157e-001
1.346127e+003,4.006127e-001
1.349984e+003,4.032653e-001
1.353841e+003,3.990943e-001
1.357698e+003,3.982640e-001
1.361555e+003,4.031234e-001
1.365412e+003,4.106317e-001
1.369269e+003,4.199388e-001
1.373126e+003,4.243565e-001
1.376983e+003,4.243701e-001
1.380840e+003,4.313321e-001
1.384698e+003,4.552911e-001
1.388555e+003,4.698020e-001
1.392412e+003,4.761873e-001
1.396269e+003,4.885523e-001
1.400126e+003,5.064170e-001
1.403983e+003,5.107206e-001
1.407840e+003,5.150828e-001
1.411697e+003,5.411288e-001
1.415554e+003,5.602218e-001
1.419411e+003,5.669872e-001
1.423269e+003,5.726966e-001
1.427126e+003,5.763612e-001
1.430983e+003,5.745806e-001
1.434840e+003,5.833063e-001
1.438697e+003,5.911904e-001
1.442554e+003,5.838189e-001
1.446411e+003,5.663121e-001
1.450268e+003,5.567187e-001
1.454125e+003,5.562933e-001
1.457982e+003,5.477676e-001
1.461839e+003,5.380515e-001
1.465697e+003,5.315763e-001
1.469554e+003,5.245225e-001
1.473411e+003,5.310205e-001
1.477268e+003,5.435256e-001
1.481125e+003,5.512856e-001
1.484982e+003,5.508252e-001
1.488839e+003,5.526084e-001
1.492696e+003,5.740609e-001
1.496553e+003,5.940107e-001
1.500411e+003,5.973632e-001
1.504268e+003,5.994750e-001
1.508125e+003,6.043387e-001
1.511982e+003,5.979788e-001
1.515839e+003,5.871556e-001
1.519696e+003,5.818205e-001
1.523553e+003,5.750724e-001
1.527410e+003,5.727590e-001
1.531267e+003,5.632247e-001
1.535124e+003,5.452283e-001
1.538981e+003,5.378186e-001
1.542839e+003,5.361650e-001
1.546696e+003,5.221109e-001
1.550553e+003,5.008063e-001
1.554410e+003,4.942711e-001
1.558267e+003,4.877692e-001
1.562124e+003,4.772001e-001
1.565981e+003,4.755379e-001
1.569838e+003,4.724151e-001
1.573695e+003,4.648898e-001
1.577552e+003,4.600393e-001
1.581410e+003,4.638608e-001
1.585267e+003,4.694546e-001
1.589124e+003,4.750984e-001
1.592981e+003,4.837149e-001
1.596838e+003,4.979735e-001
1.600695e+003,5.037369e-001
1.604552e+003,5.139575e-001
1.608409e+003,5.365051e-001
1.612266e+003,5.558335e-001
1.616123e+003,5.734408e-001
1.619980e+003,6.004259e-001
1.623838e+003,6.251258e-001
1.627695e+003,6.337931e-001
1.631552e+003,6.422896e-001
1.635409e+003,6.526214e-001
1.639266e+003,6.569417e-001
1.643123e+003,6.517805e-001
1.646980e+003,6.411492e-001
1.650837e+003,6.226230e-001
1.654694e+003,6.071925e-001
1.658551e+003,5.991262e-001
1.662409e+003,5.892392e-001
1.666266e+003,5.677664e-001
1.670123e+003,5.393376e-001
1.673980e+003,5.169701e-001
1.677837e+003,5.047871e-001
1.681694e+003,4.950213e-001
1.685551e+003,4.799404e-001
1.689408e+003,4.645205e-001
1.693265e+003,4.529404e-001
1.697122e+003,4.462316e-001
1.700979e+003,4.402197e-001
1.704837e+003,4.374560e-001
1.708694e+003,4.372029e-001
1.712551e+003,4.364146e-001
1.716408e+003,4.322488e-001
1.720265e+003,4.259069e-001
1.724122e+003,4.231354e-001
1.727979e+003,4.187454e-001
1.731836e+003,4.143009e-001
1.735693e+003,4.125341e-001
1.739550e+003,4.113778e-001
1.743408e+003,4.073048e-001
1.747265e+003,3.996349e-001
1.751122e+003,3.949993e-001
1.754979e+003,3.928035e-001
1.758836e+003,3.879353e-001
1.762693e+003,3.886214e-001
1.766550e+003,3.904400e-001
1.770407e+003,3.926395e-001
1.774264e+003,3.935231e-001
1.778121e+003,3.933947e-001
1.781979e+003,3.942496e-001
1.785836e+003,3.939514e-001
1.789693e+003,3.931632e-001
1.793550e+003,3.894652e-001
1.797407e+003,3.842505e-001
1.801264e+003,3.866059e-001
1.805121e+003,3.913926e-001
1.808978e+003,3.952065e-001
1.812835e+003,3.963425e-001
1.816692e+003,3.910973e-001
1.820549e+003,3.880183e-001
1.824407e+003,3.918072e-001
1.828264e+003,3.943813e-001
1.832121e+003,3.922880e-001
1.835978e+003,3.892747e-001
1.839835e+003,3.810516e-001
1.843692e+003,3.803929e-001
1.847549e+003,3.805990e-001
1.851406e+003,3.746860e-001
1.855263e+003,3.736017e-001
1.859120e+003,3.724490e-001
1.862978e+003,3.666265e-001
1.866835e+003,3.644740e-001
1.870692e+003,3.662782e-001
1.874549e+003,3.656206e-001
1.878406e+003,3.599158e-001
1.882263e+003,3.565018e-001
1.886120e+003,3.617306e-001
1.889977e+003,3.673017e-001
1.893834e+003,3.638833e-001
1.897691e+003,3.594521e-001
1.901548e+003,3.614941e-001
1.905406e+003,3.642696e-001
1.909263e+003,3.607355e-001
1.913120e+003,3.595551e-001
1.916977e+003,3.607238e-001
1.920834e+003,3.621312e-001
1.924691e+003,3.670634e-001
1.928548e+003,3.702205e-001
1.932405e+003,3.680182e-001
1.936262e+003,3.606403e-001
1.940119e+003,3.580466e-001
1.943977e+003,3.590594e-001
1.947834e+003,3.617010e-001
1.951691e+003,3.621438e-001
1.955548e+003,3.598672e-001
1.959405e+003,3.569998e-001
1.963262e+003,3.529035e-001
1.967119e+003,3.497967e-001
1.970976e+003,3.450400e-001
1.974833e+003,3.423280e-001
1.978690e+003,3.387343e-001
1.982547e+003,3.307040e-001
1.986405e+003,3.287742e-001
1.990262e+003,3.307249e-001
1.994119e+003,3.337634e-001
1.997976e+003,3.329285e-001
2.001833e+003,3.359491e-001
2.005690e+003,3.446827e-001
2.009547e+003,3.455172e-001
2.013404e+003,3.440021e-001
2.017261e+003,3.428768e-001
2.021118e+003,3.391312e-001
2.024976e+003,3.372371e-001
2.028833e+003,3.398091e-001
2.032690e+003,3.423754e-001
2.036547e+003,3.432336e-001
2.040404e+003,3.412779e-001
2.044261e+003,3.399778e-001
2.048118e+003,3.382019e-001
2.051975e+003,3.370071e-001
2.055832e+003,3.324842e-001
2.059689e+003,3.307202e-001
2.063546e+003,3.326162e-001
2.067404e+003,3.318242e-001
2.071261e+003,3.257596e-001
2.075118e+003,3.221344e-001
2.078975e+003,3.224374e-001
2.082832e+003,3.203761e-001
2.086689e+003,3.192945e-001
2.090546e+003,3.197144e-001
2.094403e+003,3.187633e-001
2.098260e+003,3.187321e-001
2.102117e+003,3.183295e-001
2.105975e+003,3.199580e-001
2.109832e+003,3.223014e-001
2.113689e+003,3.228329e-001
2.117546e+003,3.229164e-001
2.121403e+003,3.268786e-001
2.125260e+003,3.270659e-001
2.129117e+003,3.258885e-001
2.132974e+003,3.266470e-001
2.136831e+003,3.292728e-001
2.140688e+003,3.321650e-001
2.144545e+003,3.323352e-001
2.148403e+003,3.330899e-001
2.152260e+003,3.356358e-001
2.156117e+003,3.374939e-001
2.159974e+003,3.362292e-001
2.163831e+003,3.340114e-001
2.167688e+003,3.316431e-001
2.171545e+003,3.316611e-001
2.175402e+003,3.308269e-001
2.179259e+003,3.274447e-001
2.183116e+003,3.255136e-001
2.186974e+003,3.233315e-001
2.190831e+003,3.235310e-001
2.194688e+003,3.213786e-001
2.198545e+003,3.228160e-001
2.202402e+003,3.223933e-001
2.206259e+003,3.211388e-001
2.210116e+003,3.215740e-001
2.213973e+003,3.201334e-001
2.217830e+003,3.218119e-001
2.221688e+003,3.252832e-001
2.225544e+003,3.257785e-001
2.229402e+003,3.251984e-001
2.233259e+003,3.292142e-001
2.237116e+003,3.317356e-001
2.240973e+003,3.327105e-001
2.244830e+003,3.320354e-001
2.248687e+003,3.333408e-001
2.252544e+003,3.407856e-001
2.256401e+003,3.449969e-001
2.260258e+003,3.416100e-001
2.264115e+003,3.378831e-001
2.267973e+003,3.380958e-001
2.271830e+003,3.419093e-001
2.275687e+003,3.421541e-001
2.279544e+003,3.406900e-001
2.283401e+003,3.369095e-001
2.287258e+003,3.385513e-001
2.291115e+003,3.407171e-001
2.294972e+003,3.377200e-001
2.298829e+003,3.352552e-001
2.302687e+003,3.339267e-001
2.306543e+003,3.293988e-001
2.310401e+003,3.273418e-001
2.314258e+003,3.304228e-001
2.318115e+003,3.309979e-001
2.321972e+003,3.272226e-001
2.325829e+003,3.258649e-001
2.329686e+003,3.264569e-001
2.333543e+003,3.276213e-001
2.337400e+003,3.284368e-001
2.341257e+003,3.288643e-001
2.345115e+003,3.282239e-001
2.348972e+003,3.284532e-001
2.352829e+003,3.344009e-001
2.356686e+003,3.442898e-001
2.360543e+003,3.483247e-001
2.364400e+003,3.462447e-001
2.368257e+003,3.419745e-001
2.372114e+003,3.427824e-001
2.375971e+003,3.443513e-001
2.379828e+003,3.463513e-001
2.383686e+003,3.452094e-001
2.387542e+003,3.427220e-001
2.391400e+003,3.462326e-001
2.395257e+003,3.475909e-001
2.399114e+003,3.450995e-001
2.402971e+003,3.426353e-001
2.406828e+003,3.397326e-001
2.410685e+003,3.374329e-001
2.414542e+003,3.348367e-001
2.418399e+003,3.320828e-001
2.422256e+003,3.314579e-001
2.426114e+003,3.300038e-001
2.429971e+003,3.293423e-001
2.433828e+003,3.247089e-001
2.437685e+003,3.217290e-001
2.441542e+003,3.228435e-001
2.445399e+003,3.230859e-001
2.449256e+003,3.247814e-001
2.453113e+003,3.275623e-001
2.456970e+003,3.289185e-001
2.460827e+003,3.291879e-001
2.464684e+003,3.303905e-001
2.468542e+003,3.304884e-001
2.472399e+003,3.317263e-001
2.476256e+003,3.363399e-001
2.480113e+003,3.407885e-001
2.483970e+003,3.404665e-001
2.487827e+003,3.382363e-001
2.491684e+003,3.384254e-001
2.495541e+003,3.393304e-001
2.499398e+003,3.400119e-001
2.503255e+003,3.405727e-001
2.507113e+003,3.408141e-001
2.510969e+003,3.392238e-001
2.514827e+003,3.373351e-001
2.518684e+003,3.370034e-001
2.522541e+003,3.387383e-001
2.526398e+003,3.383007e-001
2.530255e+003,3.339358e-001
2.534112e+003,3.305615e-001
2.537969e+003,3.327440e-001
2.541826e+003,3.320161e-001
2.545683e+003,3.291416e-001
2.549541e+003,3.276789e-001
2.553398e+003,3.270394e-001
2.557255e+003,3.263246e-001
2.561112e+003,3.301619e-001
2.564969e+003,3.338692e-001
2.568826e+003,3.346910e-001
2.572683e+003,3.368774e-001
2.576540e+003,3.416187e-001
2.580397e+003,3.481551e-001
2.584254e+003,3.515515e-001
2.588112e+003,3.530343e-001
2.591969e+003,3.557852e-001
2.595826e+003,3.578849e-001
2.599683e+003,3.584706e-001
2.603540e+003,3.663624e-001
2.607397e+003,3.728504e-001
2.611254e+003,3.747661e-001
2.615111e+003,3.762109e-001
2.618968e+003,3.763193e-001
2.622825e+003,3.731931e-001
2.626682e+003,3.708222e-001
2.630540e+003,3.676662e-001
2.634397e+003,3.625899e-001
2.638254e+003,3.634441e-001
2.642111e+003,3.669402e-001
2.645968e+003,3.739647e-001
2.649825e+003,3.744327e-001
2.653682e+003,3.708484e-001
2.657539e+003,3.687073e-001
2.661396e+003,3.673583e-001
2.665253e+003,3.695497e-001
2.669111e+003,3.735461e-001
2.672968e+003,3.742119e-001
2.676825e+003,3.759281e-001
2.680682e+003,3.825185e-001
2.684539e+003,3.877761e-001
2.688396e+003,3.865203e-001
2.692253e+003,3.881078e-001
2.696110e+003,3.929531e-001
2.699967e+003,3.969058e-001
2.703824e+003,4.014353e-001
2.707681e+003,4.041185e-001
2.711539e+003,4.051512e-001
2.715396e+003,4.110262e-001
2.719253e+003,4.189461e-001
2.723110e+003,4.242537e-001
2.726967e+003,4.291610e-001
2.730824e+003,4.274437e-001
2.734681e+003,4.252784e-001
2.738538e+003,4.274821e-001
2.742395e+003,4.298521e-001
2.746252e+003,4.296012e-001
2.750110e+003,4.322801e-001
2.753967e+003,4.331307e-001
2.757824e+003,4.294503e-001
2.761681e+003,4.282193e-001
2.765538e+003,4.328981e-001
2.769395e+003,4.384577e-001
2.773252e+003,4.397625e-001
2.777109e+003,4.393168e-001
2.780966e+003,4.394290e-001
2.784823e+003,4.404413e-001
2.788680e+003,4.454794e-001
2.792538e+003,4.512352e-001
2.796395e+003,4.540748e-001
2.800252e+003,4.578494e-001
2.804109e+003,4.639674e-001
2.807966e+003,4.671312e-001
2.811823e+003,4.676835e-001
2.815680e+003,4.684114e-001
2.819537e+003,4.742633e-001
2.823394e+003,4.776355e-001
2.827251e+003,4.836327e-001
2.831109e+003,4.889794e-001
2.834966e+003,4.959678e-001
2.838823e+003,5.003617e-001
2.842680e+003,5.029128e-001
2.846537e+003,5.067034e-001
2.850394e+003,5.078335e-001
2.854251e+003,5.139006e-001
2.858108e+003,5.161889e-001
2.861965e+003,5.139846e-001
2.865823e+003,5.111519e-001
2.869679e+003,5.098766e-001
2.873537e+003,5.130128e-001
2.877394e+003,5.204987e-001
2.881251e+003,5.218447e-001
2.885108e+003,5.200372e-001
2.888965e+003,5.263390e-001
2.892822e+003,5.329583e-001
2.896679e+003,5.359221e-001
2.900536e+003,5.372377e-001
2.904393e+003,5.441986e-001
2.908250e+003,5.567488e-001
2.912108e+003,5.575984e-001
2.915965e+003,5.522065e-001
2.919822e+003,5.477255e-001
2.923679e+003,5.520624e-001
2.927536e+003,5.642772e-001
2.931393e+003,5.744647e-001
2.935250e+003,5.746731e-001
2.939107e+003,5.790027e-001
2.942964e+003,5.850434e-001
2.946822e+003,5.857877e-001
2.950678e+003,5.930654e-001
2.954536e+003,6.013563e-001
2.958393e+003,6.045513e-001
2.962250e+003,6.096960e-001
2.966107e+003,6.100093e-001
2.969964e+003,6.145997e-001
2.973821e+003,6.167611e-001
2.977678e+003,6.160250e-001
2.981535e+003,6.138839e-001
2.985392e+003,6.210752e-001
2.989250e+003,6.226617e-001
2.993107e+003,6.278917e-001
2.996964e+003,6.358853e-001
3.000821e+003,6.381703e-001
3.004678e+003,6.376501e-001
3.008535e+003,6.404417e-001
3.012392e+003,6.485925e-001
3.016249e+003,6.487026e-001
3.020106e+003,6.490862e-001
3.023963e+003,6.597109e-001
3.027821e+003,6.615614e-001
3.031677e+003,6.612338e-001
3.035535e+003,6.681474e-001
3.039392e+003,6.733610e-001
3.043249e+003,6.801811e-001
3.047106e+003,6.938847e-001
3.050963e+003,7.008376e-001
3.054820e+003,6.960202e-001
3.058677e+003,6.991767e-001
3.062534e+003,7.114658e-001
3.066391e+003,7.178060e-001
3.070249e+003,7.133657e-001
3.074106e+003,7.140604e-001
3.077963e+003,7.261197e-001
3.081820e+003,7.333012e-001
3.085677e+003,7.319897e-001
3.089534e+003,7.325262e-001
3.093391e+003,7.404293e-001
3.097248e+003,7.568621e-001
3.101105e+003,7.575161e-001
3.104962e+003,7.458397e-001
3.108820e+003,7.485678e-001
3.112677e+003,7.643576e-001
3.116534e+003,7.706110e-001
3.120391e+003,7.615505e-001
3.124248e+003,7.645579e-001
3.128105e+003,7.701076e-001
3.131962e+003,7.773535e-001
3.135819e+003,7.855088e-001
3.139676e+003,7.841595e-001
3.143533e+003,7.930716e-001
3.147390e+003,8.162129e-001
3.151248e+003,8.240407e-001
3.155105e+003,8.319454e-001
3.158962e+003,8.495682e-001
3.162819e+003,8.495552e-001
3.166676e+003,8.336474e-001
3.170533e+003,8.298447e-001
3.174390e+003,8.484538e-001
3.178247e+003,8.449273e-001
3.182104e+003,8.412764e-001
3.185961e+003,8.590720e-001
3.189819e+003,8.787476e-001
3.193676e+003,8.785207e-001
3.197533e+003,8.820691e-001
3.201390e+003,8.865396e-001
3.205247e+003,8.905195e-001
3.209104e+003,8.852062e-001
3.212961e+003,8.885921e-001
3.216818e+003,9.086188e-001
3.220675e+003,9.275311e-001
3.224532e+003,9.170018e-001
3.228389e+003,9.068855e-001
3.232247e+003,9.117228e-001
3.236104e+003,9.262082e-001
3.239961e+003,9.453756e-001
3.243818e+003,9.433135e-001
3.247675e+003,9.286537e-001
3.251532e+003,9.421918e-001
3.255389e+003,9.549429e-001
3.259246e+003,9.417281e-001
3.263103e+003,9.514036e-001
3.266960e+003,9.775219e-001
3.270818e+003,9.807232e-001
3.274675e+003,9.616672e-001
3.278532e+003,9.404203e-001
3.282389e+003,9.352226e-001
3.286246e+003,9.528363e-001
3.290103e+003,9.678482e-001
3.293960e+003,9.591862e-001
3.297817e+003,9.674714e-001
3.301674e+003,9.892959e-001
3.305531e+003,9.878064e-001
3.309388e+003,9.939533e-001
3.313246e+003,1.010872e+000
3.317103e+003,1.009393e+000
3.320960e+003,1.016898e+000
3.324817e+003,1.014091e+000
3.328674e+003,9.880850e-001
3.332531e+003,1.011279e+000
3.336388e+003,1.053983e+000
3.340245e+003,1.058270e+000
3.344102e+003,1.040847e+000
3.347959e+003,1.038223e+000
3.351817e+003,1.051761e+000
3.355674e+003,1.066263e+000
3.359531e+003,1.068001e+000
3.363388e+003,1.060047e+000
3.367245e+003,1.046267e+000
3.371102e+003,1.052757e+000
3.374959e+003,1.061281e+000
3.378816e+003,1.083877e+000
3.382673e+003,1.097143e+000
3.386530e+003,1.106781e+000
3.390387e+003,1.113143e+000
3.394245e+003,1.108649e+000
3.398102e+003,1.104761e+000
3.401959e+003,1.099570e+000
3.405816e+003,1.099032e+000
3.409673e+003,1.113456e+000
3.413530e+003,1.101923e+000
3.417387e+003,1.090324e+000
3.421244e+003,1.094207e+000
3.425101e+003,1.102306e+000
3.428958e+003,1.107458e+000
3.432815e+003,1.104668e+000
3.436673e+003,1.112036e+000
3.440530e+003,1.153250e+000
3.444387e+003,1.140220e+000
3.448244e+003,1.116934e+000
3.452101e+003,1.110643e+000
3.455958e+003,1.103695e+000
3.459815e+003,1.126988e+000
3.463672e+003,1.144879e+000
3.467529e+003,1.140693e+000
3.471386e+003,1.140474e+000
3.475244e+003,1.157455e+000
3.479101e+003,1.156297e+000
3.482958e+003,1.143775e+000
3.486815e+003,1.137533e+000
3.490672e+003,1.135949e+000
3.494529e+003,1.138453e+000
3.498386e+003,1.126383e+000
3.502243e+003,1.113090e+000
3.506100e+003,1.117824e+000
3.509958e+003,1.132620e+000
3.513814e+003,1.145270e+000
3.517672e+003,1.128873e+000
3.521529e+003,1.134619e+000
3.525386e+003,1.175806e+000
3.529243e+003,1.168451e+000
3.533100e+003,1.141933e+000
3.536957e+003,1.122008e+000
3.540814e+003,1.139025e+000
3.544671e+003,1.142218e+000
3.548528e+003,1.112699e+000
3.552385e+003,1.125952e+000
3.556243e+003,1.132537e+000
3.560100e+003,1.121789e+000
3.563957e+003,1.116355e+000
3.567814e+003,1.121443e+000
3.571671e+003,1.096885e+000
3.575528e+003,1.073096e+000
3.579385e+003,1.066689e+000
3.583242e+003,1.060986e+000
3.587099e+003,1.041922e+000
3.590957e+003,1.019049e+000
3.594813e+003,9.991388e-001
3.598671e+003,9.924209e-001
3.602528e+003,9.470549e-001
3.606385e+003,9.082916e-001
3.610242e+003,8.878032e-001
3.614099e+003,8.618597e-001
3.617956e+003,8.313316e-001
3.621813e+003,7.888767e-001
3.625670e+003,7.495946e-001
3.629527e+003,7.160074e-001
3.633385e+003,6.796809e-001
3.637242e+003,6.416439e-001
3.641099e+003,6.101166e-001
3.644956e+003,5.708641e-001
3.648813e+003,5.217264e-001
3.652670e+003,4.883716e-001
3.656527e+003,4.589241e-001
3.660384e+003,4.289773e-001
3.664241e+003,4.042614e-001
3.668098e+003,3.779595e-001
3.671956e+003,3.545820e-001
3.675813e+003,3.359769e-001
3.679670e+003,3.181676e-001
3.683527e+003,3.051293e-001
3.687384e+003,2.892890e-001
3.691241e+003,2.756961e-001
3.695098e+003,2.709836e-001
3.698955e+003,2.662752e-001
3.702812e+003,2.563676e-001
3.706669e+003,2.494844e-001
3.710526e+003,2.435230e-001
3.714384e+003,2.410359e-001
3.718241e+003,2.391696e-001
3.722098e+003,2.361698e-001
3.725955e+003,2.384555e-001
3.729812e+003,2.362991e-001
3.733669e+003,2.312547e-001
3.737526e+003,2.296866e-001
3.741383e+003,2.268922e-001
3.745240e+003,2.247888e-001
3.749097e+003,2.251206e-001
3.752955e+003,2.189206e-001
3.756812e+003,2.170977e-001
3.760669e+003,2.165652e-001
3.764526e+003,2.162405e-001
3.768383e+003,2.151601e-001
3.772240e+003,2.141022e-001
3.776097e+003,2.118965e-001
3.779954e+003,2.087673e-001
3.783811e+003,2.084787e-001
3.787668e+003,2.090301e-001
3.791525e+003,2.093818e-001
3.795383e+003,2.061929e-001
3.799240e+003,2.034994e-001
3.803097e+003,2.062340e-001
3.806954e+003,2.081710e-001
3.810811e+003,2.076276e-001
3.814668e+003,2.069027e-001
3.818525e+003,2.055402e-001
3.822382e+003,2.116767e-001
3.826239e+003,2.174846e-001
3.830096e+003,2.113927e-001
3.833954e+003,2.128972e-001
3.837811e+003,2.187886e-001
3.841668e+003,2.152673e-001
3.845525e+003,2.126892e-001
3.849382e+003,2.133860e-001
3.853239e+003,2.129402e-001
3.857096e+003,2.129428e-001
3.860953e+003,2.097325e-001
3.864810e+003,2.007853e-001
3.868667e+003,2.005914e-001
3.872524e+003,2.056352e-001
3.876382e+003,2.057066e-001
3.880239e+003,2.014241e-001
3.884096e+003,1.985425e-001
3.887953e+003,1.984721e-001
3.891810e+003,1.978546e-001
3.895667e+003,1.950293e-001
3.899524e+003,1.975534e-001
3.903381e+003,2.004431e-001
3.907238e+003,2.007398e-001
3.911095e+003,2.010149e-001
3.914953e+003,1.992352e-001
3.918810e+003,1.992753e-001
3.922667e+003,2.010587e-001
3.926524e+003,1.990335e-001
3.930381e+003,1.996482e-001
3.934238e+003,2.004886e-001
3.938095e+003,2.010761e-001
3.941952e+003,2.046236e-001
3.945809e+003,2.085115e-001
3.949667e+003,2.085446e-001
3.953523e+003,2.055493e-001
3.957381e+003,2.057982e-001
3.961238e+003,2.072212e-001
3.965095e+003,2.061955e-001
3.968952e+003,2.030771e-001
3.972809e+003,1.988439e-001
3.976666e+003,2.008208e-001
3.980523e+003,2.019376e-001
3.984380e+003,1.999428e-001
3.988237e+003,1.947189e-001
3.992094e+003,1.940707e-001
3.995952e+003,1.986258e-001
3.999809e+003,1.957324e-001
4.003666e+003,1.867533e-001
4.007523e+003,1.892983e-001
4.011380e+003,1.890085e-001
4.015237e+003,1.865024e-001
4.019094e+003,1.885408e-001
4.022951e+003,1.941099e-001
4.026808e+003,1.965898e-001
4.030666e+003,1.945593e-001
4.034522e+003,1.910219e-001
4.038380e+003,1.886741e-001
4.042237e+003,1.898931e-001
4.046094e+003,1.938874e-001
4.049951e+003,1.961599e-001
4.053808e+003,1.956629e-001
4.057665e+003,1.948816e-001
4.061522e+003,1.915949e-001
4.065379e+003,1.934510e-001
4.069236e+003,2.001969e-001
4.073094e+003,2.018565e-001
4.076951e+003,2.004207e-001
4.080808e+003,1.932311e-001
4.084665e+003,1.893544e-001
4.088522e+003,1.873890e-001
4.092379e+003,1.863039e-001
4.096236e+003,1.874407e-001
4.100093e+003,1.906103e-001
4.103950e+003,1.874627e-001
4.107808e+003,1.838258e-001
4.111665e+003,1.863653e-001
4.115521e+003,1.861184e-001
4.119379e+003,1.846036e-001
4.123236e+003,1.853019e-001
4.127093e+003,1.856540e-001
4.130950e+003,1.846260e-001
4.134807e+003,1.809953e-001
4.138664e+003,1.782514e-001
4.142521e+003,1.768063e-001
4.146378e+003,1.782351e-001
4.150235e+003,1.810136e-001
4.154093e+003,1.823730e-001
4.157950e+003,1.824090e-001
4.161807e+003,1.851391e-001
4.165664e+003,1.826238e-001
4.169521e+003,1.793040e-001
4.173378e+003,1.820889e-001
4.177235e+003,1.844348e-001
4.181092e+003,1.834067e-001
4.184949e+003,1.834308e-001
4.188807e+003,1.869325e-001
4.192664e+003,1.895955e-001
4.196521e+003,1.882433e-001
4.200378e+003,1.849857e-001
4.204235e+003,1.847248e-001
4.208092e+003,1.840135e-001
4.211949e+003,1.842905e-001
4.215806e+003,1.859163e-001
4.219663e+003,1.873672e-001
4.223521e+003,1.833300e-001
4.227377e+003,1.815400e-001
4.231234e+003,1.807997e-001
4.235092e+003,1.765223e-001
4.238949e+003,1.719528e-001
4.242806e+003,1.705617e-001
4.246663e+003,1.698142e-001
4.250520e+003,1.683428e-001
4.254377e+003,1.742040e-001
4.258234e+003,1.798945e-001
4.262091e+003,1.767856e-001
4.265948e+003,1.735945e-001
4.269806e+003,1.718617e-001
4.273663e+003,1.716097e-001
4.277520e+003,1.771026e-001
4.281377e+003,1.815731e-001
4.285234e+003,1.780410e-001
4.289091e+003,1.727836e-001
4.292948e+003,1.750465e-001
4.296805e+003,1.770789e-001
4.300662e+003,1.749844e-001
4.304520e+003,1.736930e-001
4.308376e+003,1.712629e-001
4.312233e+003,1.772887e-001
4.316091e+003,1.870572e-001
4.319948e+003,1.874555e-001
4.323805e+003,1.797305e-001
4.327662e+003,1.765374e-001
4.331519e+003,1.754874e-001
4.335376e+003,1.776464e-001
4.339233e+003,1.753203e-001
4.343090e+003,1.724431e-001
4.346947e+003,1.733844e-001
4.350805e+003,1.742852e-001
4.354662e+003,1.727357e-001
4.358519e+003,1.712176e-001
4.362376e+003,1.718934e-001
4.366233e+003,1.718228e-001
4.370090e+003,1.748953e-001
4.373947e+003,1.698451e-001
4.377804e+003,1.708787e-001
4.381661e+003,1.825519e-001
4.385519e+003,1.843523e-001
4.389375e+003,1.807776e-001
4.393232e+003,1.781769e-001
4.397090e+003,1.787123e-001
4.400947e+003,1.735711e-001
4.404804e+003,1.740046e-001
4.408661e+003,1.800761e-001
4.412518e+003,1.819451e-001
4.416375e+003,1.800060e-001
4.420232e+003,1.797544e-001
4.424089e+003,1.787493e-001
4.427946e+003,1.789656e-001
4.431804e+003,1.765504e-001
4.435661e+003,1.742260e-001
4.439518e+003,1.789697e-001
4.443375e+003,1.845117e-001
4.447232e+003,1.808039e-001
4.451089e+003,1.719408e-001
4.454946e+003,1.768654e-001
4.458803e+003,1.796563e-001
4.462660e+003,1.750014e-001
4.466518e+003,1.719385e-001
4.470375e+003,1.737026e-001
4.474231e+003,1.781830e-001
4.478089e+003,1.775393e-001
4.481946e+003,1.737873e-001
4.485803e+003,1.710351e-001
4.489660e+003,1.686622e-001
4.493517e+003,1.707284e-001
4.497375e+003,1.734234e-001
4.501231e+003,1.699956e-001
4.505088e+003,1.715780e-001
4.508946e+003,1.767621e-001
4.512803e+003,1.718229e-001
4.516660e+003,1.637414e-001
4.520517e+003,1.637516e-001
4.524374e+003,1.735958e-001
4.528231e+003,1.808239e-001
4.532088e+003,1.802953e-001
4.535945e+003,1.799719e-001
4.539802e+003,1.746063e-001
4.543660e+003,1.741077e-001
4.547517e+003,1.730455e-001
4.551374e+003,1.725126e-001
4.555231e+003,1.799557e-001
4.559088e+003,1.790265e-001
4.562945e+003,1.726685e-001
4.566802e+003,1.693905e-001
4.570659e+003,1.653983e-001
4.574516e+003,1.688282e-001
4.578374e+003,1.712143e-001
4.582230e+003,1.656758e-001
4.586087e+003,1.644003e-001
4.589945e+003,1.676786e-001
4.593802e+003,1.627247e-001
4.597659e+003,1.644127e-001
4.601516e+003,1.645439e-001
4.605373e+003,1.594105e-001
4.609230e+003,1.587662e-001
4.613087e+003,1.609430e-001
4.616944e+003,1.611695e-001
4.620801e+003,1.662789e-001
4.624659e+003,1.677887e-001
4.628516e+003,1.639900e-001
4.632373e+003,1.605051e-001
4.636230e+003,1.630566e-001
4.640087e+003,1.683134e-001
4.643944e+003,1.701821e-001
4.647801e+003,1.740786e-001
4.651658e+003,1.748855e-001
4.655515e+003,1.710414e-001
4.659373e+003,1.665209e-001
4.663229e+003,1.677428e-001
4.667086e+003,1.690083e-001
4.670944e+003,1.673471e-001
4.674801e+003,1.703082e-001
4.678658e+003,1.692712e-001
4.682515e+003,1.636293e-001
4.686372e+003,1.652429e-001
4.690229e+003,1.677079e-001
4.694086e+003,1.704490e-001
4.697943e+003,1.732382e-001
4.701800e+003,1.684659e-001
4.705658e+003,1.663519e-001
4.709515e+003,1.611622e-001
4.713372e+003,1.572800e-001
4.717229e+003,1.599422e-001
4.721086e+003,1.613201e-001
4.724943e+003,1.615319e-001
4.728800e+003,1.595667e-001
4.732657e+003,1.592938e-001
4.736514e+003,1.659477e-001
4.740372e+003,1.757180e-001
4.744229e+003,1.749348e-001
4.748085e+003,1.693503e-001
4.751943e+003,1.635359e-001
4.755800e+003,1.632363e-001
4.759657e+003,1.643325e-001
4.763514e+003,1.673837e-001
4.767371e+003,1.713367e-001
4.771228e+003,1.708296e-001
4.775085e+003,1.725190e-001
4.778942e+003,1.707428e-001
4.782799e+003,1.680378e-001
4.786657e+003,1.631868e-001
4.790514e+003,1.625713e-001
4.794371e+003,1.705294e-001
4.798228e+003,1.662381e-001
4.802085e+003,1.606019e-001
4.805942e+003,1.619554e-001
4.809799e+003,1.605665e-001
4.813656e+003,1.590844e-001
4.817513e+003,1.635730e-001
4.821371e+003,1.575295e-001
4.825228e+003,1.632204e-001
4.829084e+003,1.768082e-001
4.832942e+003,1.657359e-001
4.836799e+003,1.577746e-001
4.840656e+003,1.569215e-001
4.844513e+003,1.516744e-001
4.848370e+003,1.498353e-001
4.852227e+003,1.491113e-001
4.856084e+003,1.553877e-001
4.859941e+003,1.572075e-001
4.863798e+003,1.579418e-001
4.867656e+003,1.650221e-001
4.871513e+003,1.659379e-001
4.875370e+003,1.632206e-001
4.879227e+003,1.620357e-001
4.883084e+003,1.650354e-001
4.886941e+003,1.695554e-001
4.890798e+003,1.674591e-001
4.894655e+003,1.687514e-001
4.898512e+003,1.667506e-001
4.902370e+003,1.651199e-001
4.906227e+003,1.694698e-001
4.910083e+003,1.630467e-001
4.913941e+003,1.610028e-001
4.917798e+003,1.660974e-001
4.921655e+003,1.660970e-001
4.925512e+003,1.631097e-001
4.929369e+003,1.605272e-001
4.933226e+003,1.567987e-001
4.937083e+003,1.604304e-001
4.940940e+003,1.594629e-001
4.944797e+003,1.563938e-001
4.948655e+003,1.602613e-001
4.952512e+003,1.583492e-001
4.956369e+003,1.580392e-001
4.960226e+003,1.689455e-001
4.964083e+003,1.680599e-001
4.967940e+003,1.645931e-001
4.971797e+003,1.641182e-001
4.975654e+003,1.661042e-001
4.979511e+003,1.661395e-001
4.983369e+003,1.510682e-001
4.987226e+003,1.494744e-001
4.991083e+003,1.616594e-001
4.994940e+003,1.669974e-001
4.998797e+003,1.702472e-001
5.002654e+003,1.656421e-001
5.006511e+003,1.584152e-001
5.010368e+003,1.519606e-001
5.014225e+003,1.563867e-001
5.018083e+003,1.649686e-001
5.021939e+003,1.647265e-001
5.025796e+003,1.589155e-001
5.029654e+003,1.638903e-001
5.033511e+003,1.741362e-001
5.037368e+003,1.682620e-001
5.041225e+003,1.645186e-001
5.045082e+003,1.674080e-001
5.048939e+003,1.651150e-001
5.052796e+003,1.672667e-001
5.056653e+003,1.658426e-001
5.060510e+003,1.660923e-001
5.064368e+003,1.707503e-001
5.068225e+003,1.618414e-001
5.072082e+003,1.569755e-001
5.075939e+003,1.606947e-001
5.079796e+003,1.614329e-001
5.083653e+003,1.598816e-001
5.087510e+003,1.608399e-001
5.091367e+003,1.594831e-001
5.095224e+003,1.602447e-001
5.099082e+003,1.661664e-001
5.102938e+003,1.661307e-001
5.106795e+003,1.651714e-001
5.110653e+003,1.685998e-001
5.114510e+003,1.642320e-001
5.118367e+003,1.626685e-001
5.122224e+003,1.737106e-001
5.126081e+003,1.730158e-001
5.129938e+003,1.633662e-001
5.133795e+003,1.588882e-001
5.137652e+003,1.589745e-001
5.141509e+003,1.650494e-001
5.145367e+003,1.703130e-001
5.149224e+003,1.723039e-001
5.153081e+003,1.674349e-001
5.156938e+003,1.591243e-001
5.160795e+003,1.620019e-001
5.164652e+003,1.685852e-001
5.168509e+003,1.717450e-001
5.172366e+003,1.705995e-001
5.176223e+003,1.698019e-001
5.180081e+003,1.680141e-001
5.183938e+003,1.629999e-001
5.187794e+003,1.670840e-001
5.191652e+003,1.736132e-001
5.195509e+003,1.690853e-001
5.199366e+003,1.641352e-001
5.203223e+003,1.723982e-001
5.207080e+003,1.731312e-001
5.210937e+003,1.777391e-001
5.214794e+003,1.796443e-001
5.218651e+003,1.756516e-001
5.222508e+003,1.695798e-001
5.226366e+003,1.617190e-001
5.230223e+003,1.648215e-001
5.234080e+003,1.616697e-001
5.237937e+003,1.610432e-001
5.241794e+003,1.657341e-001
5.245651e+003,1.640195e-001
5.249508e+003,1.648822e-001
5.253365e+003,1.695694e-001
5.257222e+003,1.620767e-001
5.261080e+003,1.591906e-001
5.264937e+003,1.638250e-001
5.268793e+003,1.603424e-001
5.272651e+003,1.546901e-001
5.276508e+003,1.621406e-001
5.280365e+003,1.641986e-001
5.284222e+003,1.599912e-001
5.288079e+003,1.626219e-001
5.291936e+003,1.622820e-001
5.295793e+003,1.577642e-001
5.299650e+003,1.641225e-001
5.303507e+003,1.643565e-001
5.307365e+003,1.676930e-001
5.311222e+003,1.696959e-001
5.315079e+003,1.616234e-001
5.318936e+003,1.539466e-001
5.322793e+003,1.557536e-001
5.326650e+003,1.574330e-001
5.330507e+003,1.530196e-001
5.334364e+003,1.588660e-001
5.338221e+003,1.638328e-001
5.342079e+003,1.578475e-001
5.345936e+003,1.589014e-001
5.349792e+003,1.587172e-001
5.353650e+003,1.529571e-001
5.357507e+003,1.478762e-001
5.361364e+003,1.543604e-001
5.365221e+003,1.559345e-001
5.369078e+003,1.512775e-001
5.372935e+003,1.578992e-001
5.376792e+003,1.667517e-001
5.380649e+003,1.652562e-001
5.384506e+003,1.627814e-001
5.388364e+003,1.585197e-001
5.392221e+003,1.537956e-001
5.396078e+003,1.550395e-001
5.399935e+003,1.524599e-001
5.403792e+003,1.558259e-001
5.407649e+003,1.619382e-001
5.411506e+003,1.630703e-001
5.415363e+003,1.659302e-001
5.419220e+003,1.635110e-001
5.423078e+003,1.636657e-001
5.426935e+003,1.631107e-001
5.430792e+003,1.525767e-001
5.434649e+003,1.552091e-001
5.438506e+003,1.596350e-001
5.442363e+003,1.562619e-001
5.446220e+003,1.612026e-001
5.450077e+003,1.627565e-001
5.453934e+003,1.655334e-001
5.457792e+003,1.692987e-001
5.461648e+003,1.583559e-001
5.465505e+003,1.563263e-001
5.469363e+003,1.553388e-001
5.473220e+003,1.518210e-001
5.477077e+003,1.626439e-001
5.480934e+003,1.611489e-001
5.484791e+003,1.535657e-001
5.488648e+003,1.556460e-001
5.492505e+003,1.582237e-001
5.496362e+003,1.575287e-001
5.500219e+003,1.523755e-001
5.504077e+003,1.497199e-001
5.507934e+003,1.537161e-001
5.511791e+003,1.545789e-001
5.515648e+003,1.574744e-001
5.519505e+003,1.598944e-001
5.523362e+003,1.571168e-001
5.527219e+003,1.632675e-001
5.531076e+003,1.624629e-001
5.534933e+003,1.624926e-001
5.538791e+003,1.713609e-001
5.542647e+003,1.695590e-001
5.546504e+003,1.592739e-001
5.550362e+003,1.564338e-001
5.554219e+003,1.568916e-001
5.558076e+003,1.624155e-001
5.561933e+003,1.706027e-001
5.565790e+003,1.684852e-001
5.569647e+003,1.624063e-001
5.573504e+003,1.663220e-001
5.577361e+003,1.675878e-001
5.581218e+003,1.637281e-001
5.585076e+003,1.627556e-001
5.588933e+003,1.641847e-001
5.592790e+003,1.612546e-001
5.596647e+003,1.568810e-001
5.600504e+003,1.559546e-001
5.604361e+003,1.494382e-001
5.608218e+003,1.469655e-001
5.612075e+003,1.569266e-001
5.615932e+003,1.688834e-001
5.619790e+003,1.614811e-001
5.623646e+003,1.627062e-001
5.627503e+003,1.711155e-001
5.631361e+003,1.621297e-001
5.635218e+003,1.522286e-001
5.639075e+003,1.498561e-001
5.642932e+003,1.546543e-001
5.646789e+003,1.509625e-001
5.650646e+003,1.626044e-001
5.654503e+003,1.724810e-001
5.658360e+003,1.675764e-001
5.662217e+003,1.550215e-001
5.666075e+003,1.507601e-001
5.669932e+003,1.579423e-001
5.673789e+003,1.565191e-001
5.677646e+003,1.510209e-001
5.681503e+003,1.505657e-001
5.685360e+003,1.487526e-001
5.689217e+003,1.517007e-001
5.693074e+003,1.520482e-001
5.696931e+003,1.564605e-001
5.700789e+003,1.675466e-001
5.704646e+003,1.614714e-001
5.708502e+003,1.547919e-001
5.712360e+003,1.535728e-001
5.716217e+003,1.644742e-001
5.720074e+003,1.630780e-001
5.723931e+003,1.543297e-001
5.727788e+003,1.500306e-001
5.731645e+003,1.525206e-001
5.735502e+003,1.677571e-001
5.739359e+003,1.746145e-001
5.743216e+003,1.677079e-001
5.747074e+003,1.609653e-001
5.750931e+003,1.563141e-001
5.754788e+003,1.573152e-001
5.758645e+003,1.601519e-001
5.762502e+003,1.639737e-001
5.766359e+003,1.598491e-001
5.770216e+003,1.587478e-001
5.774073e+003,1.646696e-001
5.777930e+003,1.624578e-001
5.781788e+003,1.471986e-001
5.785645e+003,1.424700e-001
5.789501e+003,1.480034e-001
5.793359e+003,1.480736e-001
5.797216e+003,1.495858e-001
5.801073e+003,1.458834e-001
5.804930e+003,1.491359e-001
5.808787e+003,1.557881e-001
5.812644e+003,1.644761e-001
5.816501e+003,1.726904e-001
5.820358e+003,1.713212e-001
5.824215e+003,1.638262e-001
5.828073e+003,1.600312e-001
5.831930e+003,1.681507e-001
5.835787e+003,1.606215e-001
5.839644e+003,1.498123e-001
5.843501e+003,1.545147e-001
5.847358e+003,1.519380e-001
5.851215e+003,1.556830e-001
5.855072e+003,1.565994e-001
5.858929e+003,1.540387e-001
5.862787e+003,1.589181e-001
5.866644e+003,1.633556e-001
5.870500e+003,1.605739e-001
5.874358e+003,1.631980e-001
5.878215e+003,1.644986e-001
5.882072e+003,1.547403e-001
5.885929e+003,1.544600e-001
5.889786e+003,1.644645e-001
5.893643e+003,1.603565e-001
5.897500e+003,1.550399e-001
5.901357e+003,1.525044e-001
5.905214e+003,1.564501e-001
5.909072e+003,1.545242e-001
5.912929e+003,1.563081e-001
5.916786e+003,1.559843e-001
5.920643e+003,1.540503e-001
5.924500e+003,1.503308e-001
5.928357e+003,1.558050e-001
5.932214e+003,1.539973e-001
5.936071e+003,1.546369e-001
5.939928e+003,1.532351e-001
5.943786e+003,1.476018e-001
5.947643e+003,1.580683e-001
5.951500e+003,1.681448e-001
5.955357e+003,1.548364e-001
5.959214e+003,1.419343e-001
5.963071e+003,1.419978e-001
5.966928e+003,1.432847e-001
5.970785e+003,1.420299e-001
5.974642e+003,1.534586e-001
5.978500e+003,1.604544e-001
5.982356e+003,1.485081e-001
5.986213e+003,1.507320e-001
5.990071e+003,1.586780e-001
5.993928e+003,1.586039e-001
5.997785e+003,1.561796e-001
6.001642e+003,1.652088e-001
6.005499e+003,1.626898e-001
6.009356e+003,1.589939e-001
6.013213e+003,1.511174e-001
6.017070e+003,1.546728e-001
6.020927e+003,1.519625e-001
6.024785e+003,1.527863e-001
6.028642e+003,1.634782e-001
6.032499e+003,1.610549e-001
6.036356e+003,1.516969e-001
6.040213e+003,1.682062e-001
6.044070e+003,1.677915e-001
6.047927e+003,1.535641e-001
6.051784e+003,1.531817e-001
6.055641e+003,1.534393e-001
6.059499e+003,1.524037e-001
6.063355e+003,1.638325e-001
6.067212e+003,1.654517e-001
6.071070e+003,1.538936e-001
6.074927e+003,1.484423e-001
6.078784e+003,1.438415e-001
6.082641e+003,1.528092e-001
6.086498e+003,1.600584e-001
6.090355e+003,1.596364e-001
6.094212e+003,1.723210e-001
6.098069e+003,1.741489e-001
6.101926e+003,1.684990e-001
6.105784e+003,1.657857e-001
6.109641e+003,1.660642e-001
6.113498e+003,1.670592e-001
6.117355e+003,1.611901e-001
6.121212e+003,1.552500e-001
6.125069e+003,1.581876e-001
6.128926e+003,1.529828e-001
6.132783e+003,1.565454e-001
6.136640e+003,1.622202e-001
6.140498e+003,1.584138e-001
6.144354e+003,1.655783e-001
6.148211e+003,1.707582e-001
6.152069e+003,1.764417e-001
6.155926e+003,1.810486e-001
6.159783e+003,1.844729e-001
6.163640e+003,1.718550e-001
6.167497e+003,1.570201e-001
6.171354e+003,1.536006e-001
6.175211e+003,1.607635e-001
6.179068e+003,1.628740e-001
6.182925e+003,1.559962e-001
6.186783e+003,1.557512e-001
6.190640e+003,1.517060e-001
6.194497e+003,1.407991e-001
6.198354e+003,1.459848e-001
6.202211e+003,1.640399e-001
6.206068e+003,1.674521e-001
6.209925e+003,1.487522e-001
6.213782e+003,1.439023e-001
6.217639e+003,1.544141e-001
6.221497e+003,1.472924e-001
6.225354e+003,1.411653e-001
6.229210e+003,1.497455e-001
6.233068e+003,1.630936e-001
6.236925e+003,1.729017e-001
6.240782e+003,1.845821e-001
6.244639e+003,1.854593e-001
6.248496e+003,1.620497e-001
6.252353e+003,1.498518e-001
6.256210e+003,1.441099e-001
6.260067e+003,1.519460e-001
6.263924e+003,1.647188e-001
6.267782e+003,1.638951e-001
6.271639e+003,1.542593e-001
6.275496e+003,1.649802e-001
6.279353e+003,1.712487e-001
6.283210e+003,1.675989e-001
6.287067e+003,1.614423e-001
6.290924e+003,1.569900e-001
6.294781e+003,1.727782e-001
6.298638e+003,1.805007e-001
6.302496e+003,1.679296e-001
6.306353e+003,1.540862e-001
6.310209e+003,1.540199e-001
6.314067e+003,1.587749e-001
6.317924e+003,1.607266e-001
6.321781e+003,1.625069e-001
6.325638e+003,1.653608e-001
6.329495e+003,1.524956e-001
6.333352e+003,1.547964e-001
6.337209e+003,1.529260e-001
6.341066e+003,1.601911e-001
6.344923e+003,1.725851e-001
6.348780e+003,1.700031e-001
6.352638e+003,1.669874e-001
6.356495e+003,1.684071e-001
6.360352e+003,1.639114e-001
6.364209e+003,1.653032e-001
6.368066e+003,1.572551e-001
6.371923e+003,1.646163e-001
6.375780e+003,1.741127e-001
6.379637e+003,1.739573e-001
6.383494e+003,1.801944e-001
6.387352e+003,1.767185e-001
6.391208e+003,1.530654e-001
6.395065e+003,1.487246e-001
6.398923e+003,1.734810e-001
6.402780e+003,1.881564e-001
6.406637e+003,1.836320e-001
6.410494e+003,1.805236e-001
6.414351e+003,1.808782e-001
6.418208e+003,1.652422e-001
6.422065e+003,1.488043e-001
6.425922e+003,1.626484e-001
6.429779e+003,1.619637e-001
6.433637e+003,1.711017e-001
6.437494e+003,1.800346e-001
6.441351e+003,1.624075e-001
6.445208e+003,1.628771e-001
6.449065e+003,1.740621e-001
6.452922e+003,1.837324e-001
6.456779e+003,1.875800e-001
6.460636e+003,1.747737e-001
6.464493e+003,1.579676e-001
6.468351e+003,1.517716e-001
6.472208e+003,1.580146e-001
6.476064e+003,1.709523e-001
6.479922e+003,1.788082e-001
6.483779e+003,1.649192e-001
6.487636e+003,1.629531e-001
6.491493e+003,1.580132e-001
6.495350e+003,1.569162e-001
6.499207e+003,1.676607e-001
6.503064e+003,1.665300e-001
6.506921e+003,1.600793e-001
6.510778e+003,1.619292e-001
6.514636e+003,1.716642e-001
6.518493e+003,1.649255e-001
6.522350e+003,1.664246e-001
6.526207e+003,1.792574e-001
6.530064e+003,1.697718e-001
6.533921e+003,1.609380e-001
6.537778e+003,1.715762e-001
6.541635e+003,1.739314e-001
6.545492e+003,1.566637e-001
6.549350e+003,1.615790e-001
6.553207e+003,1.647836e-001
6.557063e+003,1.670690e-001
6.560921e+003,1.501694e-001
6.564778e+003,1.463433e-001
6.568635e+003,1.509841e-001
6.572492e+003,1.421528e-001
6.576349e+003,1.423768e-001
6.580206e+003,1.489300e-001
6.584063e+003,1.687365e-001
6.587920e+003,1.893009e-001
6.591777e+003,1.751921e-001
6.595635e+003,1.562304e-001
6.599492e+003,1.586626e-001
6.603349e+003,1.698063e-001
6.607206e+003,1.788624e-001
6.611063e+003,1.851647e-001
6.614920e+003,1.638948e-001
6.618777e+003,1.543112e-001
6.622634e+003,1.577314e-001
6.626491e+003,1.620100e-001
6.630349e+003,1.605827e-001
6.634206e+003,1.710704e-001
6.638063e+003,1.782102e-001
6.641920e+003,1.769731e-001
6.645777e+003,1.764624e-001
6.649634e+003,1.831119e-001
6.653491e+003,1.910319e-001
6.657348e+003,1.802274e-001
6.661205e+003,1.797397e-001
6.665063e+003,1.768078e-001
6.668919e+003,1.700979e-001
6.672776e+003,1.784134e-001
6.676634e+003,1.768909e-001
6.680491e+003,1.690686e-001
6.684348e+003,1.856701e-001
6.688205e+003,1.855964e-001
6.692062e+003,1.674703e-001
6.695919e+003,1.737423e-001
6.699776e+003,1.673034e-001
6.703633e+003,1.659489e-001
6.707490e+003,1.804808e-001
6.711348e+003,1.963962e-001
6.715205e+003,1.842526e-001
6.719062e+003,1.611028e-001
6.722919e+003,1.604348e-001
6.726776e+003,1.628723e-001
6.730633e+003,1.820425e-001
6.734490e+003,1.834062e-001
6.738347e+003,1.868360e-001
6.742204e+003,2.057855e-001
6.746062e+003,2.055520e-001
6.749918e+003,1.800041e-001
6.753775e+003,1.819539e-001
6.757633e+003,1.871232e-001
6.761490e+003,1.768201e-001
6.765347e+003,1.805667e-001
6.769204e+003,1.949595e-001
6.773061e+003,1.959136e-001
6.776918e+003,1.936206e-001
6.780775e+003,1.911113e-001
6.784632e+003,1.892376e-001
6.788489e+003,1.897300e-001
6.792347e+003,1.875190e-001
6.796204e+003,1.981097e-001
6.800061e+003,1.847814e-001
6.803918e+003,1.518241e-001
6.807775e+003,1.625616e-001
6.811632e+003,1.815110e-001
6.815489e+003,1.630847e-001
6.819346e+003,1.701935e-001
6.823203e+003,1.783462e-001
6.827061e+003,1.809745e-001
6.830917e+003,1.845521e-001
6.834774e+003,1.811162e-001
6.838632e+003,1.773638e-001
6.842489e+003,1.799370e-001
6.846346e+003,1.936106e-001
6.850203e+003,1.927971e-001
6.854060e+003,1.856296e-001
6.857917e+003,1.822319e-001
6.861774e+003,1.938549e-001
6.865631e+003,1.842152e-001
6.869488e+003,1.741567e-001
6.873346e+003,1.929550e-001
6.877203e+003,1.813609e-001
6.881060e+003,1.574223e-001
6.884917e+003,1.635753e-001
6.888774e+003,1.842930e-001
6.892631e+003,1.879477e-001
6.896488e+003,1.706347e-001
6.900345e+003,1.793580e-001
6.904202e+003,2.189135e-001
6.908060e+003,2.273107e-001
6.911917e+003,2.214720e-001
6.915773e+003,1.977817e-001
6.919631e+003,1.738686e-001
6.923488e+003,1.817221e-001
6.927345e+003,1.852274e-001
6.931202e+003,1.809471e-001
6.935059e+003,1.924260e-001
6.938916e+003,1.881355e-001
6.942773e+003,1.718287e-001
6.946630e+003,1.710216e-001
6.950487e+003,2.147987e-001
6.954345e+003,2.389132e-001
6.958202e+003,2.275982e-001
6.962059e+003,2.209190e-001
6.965916e+003,2.079878e-001
6.969773e+003,2.117000e-001
6.973630e+003,2.401625e-001
6.977487e+003,2.296248e-001
6.981344e+003,1.997102e-001
6.985201e+003,1.958755e-001
6.989059e+003,1.911123e-001
6.992916e+003,1.736299e-001
6.996772e+003,1.892501e-001
7.000630e+003,2.231595e-001
7.004487e+003,2.138297e-001
7.008344e+003,1.921042e-001
7.012201e+003,1.832961e-001
7.016058e+003,2.015709e-001
7.019915e+003,2.287001e-001
7.023772e+003,2.523125e-001
7.027629e+003,2.227395e-001
7.031486e+003,2.226221e-001
7.035344e+003,2.052054e-001
7.039201e+003,1.583222e-001
7.043058e+003,1.717201e-001
7.046915e+003,1.971709e-001
7.050772e+003,2.255476e-001
7.054629e+003,2.275526e-001
7.058486e+003,2.119467e-001
7.062343e+003,2.222494e-001
7.066200e+003,2.081983e-001
7.070058e+003,2.123214e-001
7.073915e+003,2.013975e-001
7.077771e+003,1.869076e-001
7.081629e+003,1.815741e-001
7.085486e+003,1.715750e-001
7.089343e+003,1.808327e-001
7.093200e+003,2.015734e-001
7.097057e+003,1.886984e-001
7.100914e+003,1.902262e-001
7.104771e+003,2.102545e-001
7.108628e+003,2.225481e-001
7.112485e+003,2.399088e-001
7.116343e+003,2.393606e-001
7.120200e+003,2.463331e-001
7.124057e+003,2.215905e-001
7.127914e+003,2.143355e-001
7.131771e+003,2.069430e-001
7.135628e+003,2.102911e-001
7.139485e+003,2.170110e-001
7.143342e+003,1.835842e-001
7.147199e+003,1.815249e-001
7.151057e+003,2.142196e-001
7.154914e+003,2.324093e-001
7.158771e+003,2.024191e-001
7.162628e+003,2.080634e-001
7.166485e+003,1.906817e-001
7.170342e+003,1.783180e-001
7.174199e+003,1.887413e-001
7.178056e+003,2.175535e-001
7.181913e+003,2.193243e-001
7.185771e+003,2.072048e-001
7.189627e+003,2.142875e-001
7.193484e+003,2.182505e-001
7.197342e+003,2.036564e-001
7.201199e+003,1.864087e-001
7.205056e+003,1.704308e-001
7.208913e+003,1.964466e-001
7.212770e+003,2.264481e-001
7.216627e+003,2.011481e-001
7.220484e+003,1.798594e-001
7.224341e+003,1.927212e-001
7.228198e+003,2.003898e-001
7.232056e+003,2.045657e-001
7.235913e+003,2.306694e-001
7.239770e+003,2.203867e-001
7.243627e+003,1.928414e-001
7.247484e+003,1.886219e-001
7.251341e+003,1.919522e-001
7.255198e+003,2.340371e-001
7.259055e+003,2.571474e-001
7.262912e+003,1.980909e-001
7.266770e+003,1.657657e-001
7.270626e+003,1.794115e-001
7.274483e+003,2.171070e-001
7.278341e+003,2.574238e-001
7.282198e+003,2.198313e-001
7.286055e+003,1.981577e-001
7.289912e+003,2.293671e-001
7.293769e+003,2.392348e-001
7.297626e+003,2.247551e-001
7.301483e+003,2.004844e-001
7.305340e+003,2.034568e-001
7.309197e+003,2.213379e-001
7.313055e+003,2.193125e-001
7.316912e+003,1.963926e-001
7.320769e+003,1.761077e-001
7.324626e+003,2.171563e-001
7.328483e+003,2.613608e-001
7.332340e+003,2.534929e-001
7.336197e+003,2.222573e-001
7.340054e+003,1.913636e-001
7.343911e+003,2.122989e-001
7.347769e+003,2.093073e-001
7.351625e+003,1.565942e-001
7.355482e+003,1.653026e-001
7.359340e+003,2.266736e-001
7.363197e+003,2.657235e-001
7.367054e+003,2.283619e-001
7.370911e+003,1.977323e-001
7.374768e+003,1.596217e-001
7.378625e+003,1.554756e-001
7.382482e+003,1.780291e-001
7.386339e+003,1.740984e-001
7.390196e+003,1.858390e-001
7.394054e+003,2.021985e-001
7.397911e+003,1.811252e-001
7.401768e+003,1.921614e-001
7.405625e+003,1.893277e-001
7.409482e+003,1.805711e-001
7.413339e+003,2.013273e-001
7.417196e+003,2.325213e-001
7.421053e+003,2.196937e-001
7.424910e+003,1.844403e-001
7.428768e+003,1.662747e-001
7.432625e+003,2.326407e-001
7.436481e+003,2.303202e-001
7.440339e+003,1.870975e-001
7.444196e+003,1.766193e-001
7.448053e+003,1.875211e-001
7.451910e+003,2.118022e-001
7.455767e+003,1.859273e-001
7.459624e+003,1.812774e-001
7.463481e+003,2.375034e-001
7.467338e+003,2.640449e-001
7.471195e+003,2.311166e-001
7.475053e+003,2.146239e-001
7.478910e+003,2.024692e-001
7.482767e+003,1.754098e-001
7.486624e+003,1.691354e-001
7.490481e+003,2.087922e-001
7.494338e+003,2.416409e-001
7.498195e+003,2.436256e-001
7.502052e+003,2.520803e-001
7.505909e+003,2.095933e-001
7.509767e+003,1.620481e-001
7.513624e+003,1.442896e-001
7.517480e+003,1.905753e-001
7.521338e+003,2.791357e-001
7.525195e+003,3.059522e-001
7.529052e+003,2.350745e-001
7.532909e+003,1.947490e-001
7.536766e+003,1.931008e-001
7.540623e+003,1.661329e-001
7.544480e+003,1.733491e-001
7.548337e+003,1.926863e-001
7.552194e+003,2.025813e-001
7.556052e+003,1.758777e-001
7.559909e+003,1.418866e-001
7.563766e+003,1.710128e-001
7.567623e+003,1.609716e-001
7.571480e+003,1.014317e-001
7.575337e+003,1.237670e-001
7.579194e+003,1.710667e-001
7.583051e+003,2.082033e-001
7.586908e+003,1.906818e-001
7.590766e+003,1.778809e-001
7.594623e+003,2.010558e-001
7.598479e+003,2.090642e-001
7.602337e+003,2.476598e-001
7.606194e+003,2.320596e-001
7.610051e+003,2.109067e-001
7.613908e+003,1.803472e-001
7.617765e+003,1.780303e-001
7.621622e+003,1.868276e-001
7.625479e+003,2.147681e-001
7.629336e+003,1.789441e-001
7.633193e+003,1.626409e-001
7.637051e+003,1.653282e-001
7.640908e+003,1.647695e-001
7.644765e+003,1.877492e-001
7.648622e+003,2.120061e-001
7.652479e+003,1.879360e-001
7.656336e+003,2.089504e-001
7.660193e+003,2.639876e-001
7.664050e+003,2.314965e-001
7.667907e+003,1.976402e-001
7.671765e+003,1.619886e-001
7.675622e+003,1.229331e-001
7.679479e+003,1.403548e-001
7.683336e+003,1.982297e-001
7.687193e+003,2.119226e-001
7.691050e+003,2.531282e-001
7.694907e+003,2.695192e-001
7.698764e+003,1.931430e-001
7.702621e+003,1.663114e-001
7.706479e+003,2.255689e-001
7.710335e+003,2.133404e-001
7.714192e+003,1.406042e-001
7.718050e+003,1.927827e-001
7.721907e+003,3.098027e-001
7.725764e+003,2.744719e-001
7.729621e+003,2.622991e-001
7.733478e+003,2.436120e-001
7.737335e+003,2.096596e-001
7.741192e+003,3.074516e-001
7.745049e+003,3.902525e-001
7.748906e+003,3.607811e-001
7.752764e+003,2.609932e-001
7.756621e+003,2.135959e-001
7.760478e+003,2.270875e-001
7.764335e+003,2.331934e-001
7.768192e+003,2.044206e-001
7.772049e+003,1.743668e-001
7.775906e+003,2.256810e-001
7.779763e+003,1.920259e-001
7.783620e+003,2.122447e-001
7.787478e+003,2.491650e-001
7.791334e+003,2.981530e-001
7.795191e+003,3.023970e-001
7.799049e+003,2.792477e-001
7.802906e+003,1.970475e-001
7.806763e+003,1.482456e-001
7.810620e+003,1.411090e-001
7.814477e+003,1.163805e-001
7.818334e+003,1.193645e-001
7.822191e+003,1.086311e-001
7.826048e+003,1.533169e-001
7.829905e+003,1.777970e-001
7.833763e+003,1.910143e-001
7.837620e+003,1.741111e-001
7.841477e+003,5.807382e-002
7.845334e+003,8.062086e-002
7.849191e+003,1.548170e-001
7.853048e+003,2.271845e-001
7.856905e+003,2.603021e-001
7.860762e+003,2.190441e-001
7.864619e+003,2.369259e-001
7.868477e+003,2.571216e-001
7.872333e+003,2.578529e-001
7.876190e+003,2.415803e-001
7.880048e+003,1.706414e-001
7.883905e+003,2.250447e-001
7.887762e+003,2.166839e-001
7.891619e+003,1.646090e-001
7.895476e+003,1.478635e-001
7.899333e+003,2.198888e-001
7.903190e+003,2.253733e-001
7.907047e+003,1.007841e-001
7.910904e+003,4.747535e-002
7.914762e+003,1.019936e-001
7.918619e+003,3.007146e-001
7.922476e+003,3.319443e-001
7.926333e+003,2.775294e-001
7.930190e+003,1.826881e-001
7.934047e+003,1.566504e-001
7.937904e+003,2.433636e-001
7.941761e+003,2.061196e-001
7.945618e+003,2.390394e-001
7.949476e+003,2.691912e-001
7.953333e+003,2.052414e-001
7.957189e+003,2.356277e-001
7.961047e+003,3.456704e-001
7.964904e+003,4.082747e-001
7.968761e+003,2.518721e-001
7.972618e+003,1.605541e-002
7.976475e+003,1.378160e-001
7.980332e+003,3.088318e-001
7.984189e+003,3.042693e-001
7.988046e+003,2.247868e-001
7.991903e+003,1.977522e-001
7.995761e+003,2.507771e-001
7.999618e+003,1.631341e-001
