4.011380e+002,-8.840210e-001
4.049951e+002,6.000000e+000
4.088522e+002,6.000000e+000
4.127093e+002,6.000000e+000
4.165664e+002,6.000000e+000
4.204235e+002,-3.870365e-001
4.242806e+002,1.979668e-001
4.281377e+002,-7.301684e-001
4.319948e+002,5.453050e-001
4.358519e+002,1.559402e+000
4.397090e+002,1.805649e+000
4.435661e+002,7.819036e-001
4.474232e+002,-8.764253e-002
4.512803e+002,6.000000e+000
4.551374e+002,6.000000e+000
4.589945e+002,6.000000e+000
4.628516e+002,6.000000e+000
4.667087e+002,6.000000e+000
4.705658e+002,6.000000e+000
4.744229e+002,6.000000e+000
4.782800e+002,6.000000e+000
4.821371e+002,-5.725286e-001
4.859941e+002,6.000000e+000
4.898513e+002,6.000000e+000
4.937083e+002,6.000000e+000
4.975654e+002,2.452962e-001
5.014225e+002,1.522893e-001
5.052796e+002,6.000000e+000
5.091367e+002,6.000000e+000
5.129938e+002,-2.736219e-001
5.168509e+002,1.214244e+000
5.207080e+002,6.000000e+000
5.245651e+002,4.977836e-001
5.284222e+002,8.411332e-001
5.322793e+002,6.000000e+000
5.361364e+002,1.438762e-002
5.399935e+002,6.000000e+000
5.438506e+002,6.000000e+000
5.477077e+002,-5.372074e-001
5.515648e+002,-3.993342e-002
5.554219e+002,-1.136096e+000
5.592790e+002,6.000000e+000
5.631361e+002,-5.614943e-001
5.669932e+002,3.162003e-001
5.708503e+002,9.365523e-001
5.747074e+002,6.000000e+000
5.785645e+002,6.000000e+000
5.824216e+002,6.000000e+000
5.862787e+002,-3.080996e-001
5.901357e+002,6.000000e+000
5.939929e+002,-7.385631e-001
5.978499e+002,6.000000e+000
6.017070e+002,6.000000e+000
6.055641e+002,6.000000e+000
6.094212e+002,6.000000e+000
6.132783e+002,6.000000e+000
6.171354e+002,6.000000e+000
6.209925e+002,9.655198e-001
6.248496e+002,-8.416766e-001
6.287067e+002,8.726490e-001
6.325638e+002,-1.035369e-001
6.364209e+002,1.216699e-002
6.402780e+002,3.540050e-001
6.441351e+002,2.650846e+000
6.479922e+002,6.000000e+000
6.518493e+002,6.000000e+000
6.557064e+002,6.000000e+000
6.595635e+002,6.000000e+000
6.634205e+002,6.000000e+000
6.672777e+002,4.954223e-001
6.711348e+002,6.000000e+000
6.749918e+002,-4.155394e-001
6.788490e+002,-3.262182e-001
6.827061e+002,6.000000e+000
6.865631e+002,-1.114747e+000
6.904203e+002,1.236076e-004
6.942773e+002,1.895883e-001
6.981344e+002,-7.407356e-001
7.019916e+002,6.000000e+000
7.058486e+002,6.000000e+000
7.097057e+002,-2.433913e+000
7.135629e+002,4.511866e-001
7.174199e+002,6.000000e+000
7.212770e+002,6.000000e+000
7.251342e+002,6.000000e+000
7.289912e+002,6.000000e+000
7.328483e+002,2.082417e-001
7.367054e+002,6.000000e+000
7.405625e+002,6.183263e-001
7.444196e+002,-2.140240e-001
7.482767e+002,-3.315075e-001
7.521338e+002,-3.850484e-001
7.559908e+002,-4.927958e-002
7.598480e+002,-1.927730e+000
7.637051e+002,6.000000e+000
7.675621e+002,6.000000e+000
7.714193e+002,6.000000e+000
7.752764e+002,6.000000e+000
7.791334e+002,6.000000e+000
7.829905e+002,4.831519e-001
7.868477e+002,1.112601e+000
7.907047e+002,6.000000e+000
7.945618e+002,9.645944e-001
7.984189e+002,6.000000e+000
8.022760e+002,6.000000e+000
8.061331e+002,6.000000e+000
8.099902e+002,9.805422e-001
8.138473e+002,1.157395e+000
8.177044e+002,6.000000e+000
8.215615e+002,6.000000e+000
8.254186e+002,5.207989e-001
8.292757e+002,5.766593e-001
8.331328e+002,6.000000e+000
8.369899e+002,6.000000e+000
8.408470e+002,6.000000e+000
8.447041e+002,1.488809e+000
8.485612e+002,1.468058e+000
8.524183e+002,1.880980e+000
8.562754e+002,1.371454e+000
8.601324e+002,1.151779e+000
8.639896e+002,1.275792e+000
8.678467e+002,2.580496e+000
8.717037e+002,6.000000e+000
8.755609e+002,6.000000e+000
8.794180e+002,1.763796e+000
8.832750e+002,1.566287e+000
8.871321e+002,1.481999e+000
8.909893e+002,1.356541e+000
8.948463e+002,1.832512e+000
8.987034e+002,6.000000e+000
9.025605e+002,6.000000e+000
9.064176e+002,6.000000e+000
9.102747e+002,2.156118e+000
9.141318e+002,6.000000e+000
9.179889e+002,6.000000e+000
9.218461e+002,6.000000e+000
9.257031e+002,2.352562e+000
9.295602e+002,1.539360e+000
9.334174e+002,1.689619e+000
9.372744e+002,6.000000e+000
9.411315e+002,6.000000e+000
9.449886e+002,6.000000e+000
9.488457e+002,2.618104e+000
9.527028e+002,2.102733e+000
9.565599e+002,2.147122e+000
9.604170e+002,6.000000e+000
9.642740e+002,6.000000e+000
9.681312e+002,2.068766e+000
9.719883e+002,1.921744e+000
9.758453e+002,2.017072e+000
9.797025e+002,2.440530e+000
9.835596e+002,6.000000e+000
9.874166e+002,6.000000e+000
9.912738e+002,2.359146e+000
9.951309e+002,2.521742e+000
9.989879e+002,2.351836e+000
1.002845e+003,2.095937e+000
1.006702e+003,2.068603e+000
1.010559e+003,2.327058e+000
1.014416e+003,2.345813e+000
1.018273e+003,2.229525e+000
1.022130e+003,2.425724e+000
1.025988e+003,2.146493e+000
1.029845e+003,2.037351e+000
1.033702e+003,2.088353e+000
1.037559e+003,2.355730e+000
1.041416e+003,2.411757e+000
1.045273e+003,2.196523e+000
1.049130e+003,2.027784e+000
1.052987e+003,1.998984e+000
1.056844e+003,1.987763e+000
1.060702e+003,1.999047e+000
1.064559e+003,2.015957e+000
1.068416e+003,2.091418e+000
1.072273e+003,2.073302e+000
1.076130e+003,1.990178e+000
1.079987e+003,2.004128e+000
1.083844e+003,1.951203e+000
1.087701e+003,1.844277e+000
1.091558e+003,1.844653e+000
1.095415e+003,1.848979e+000
1.099272e+003,1.823875e+000
1.103130e+003,1.865832e+000
1.106987e+003,1.879668e+000
1.110844e+003,1.763655e+000
1.114701e+003,1.686725e+000
1.118558e+003,1.662915e+000
1.122415e+003,1.702836e+000
1.126272e+003,1.746068e+000
1.130129e+003,1.746123e+000
1.133986e+003,1.719360e+000
1.137843e+003,1.701679e+000
1.141701e+003,1.703191e+000
1.145558e+003,1.687993e+000
1.149415e+003,1.662807e+000
1.153272e+003,1.672208e+000
1.157129e+003,1.700369e+000
1.160986e+003,1.676643e+000
1.164843e+003,1.648340e+000
1.168700e+003,1.664086e+000
1.172557e+003,1.702243e+000
1.176414e+003,1.662198e+000
1.180271e+003,1.619834e+000
1.184129e+003,1.656063e+000
1.187986e+003,1.690926e+000
1.191843e+003,1.688717e+000
1.195700e+003,1.670010e+000
1.199557e+003,1.654517e+000
1.203414e+003,1.656835e+000
1.207271e+003,1.673981e+000
1.211128e+003,1.647393e+000
1.214985e+003,1.584382e+000
1.218842e+003,1.542541e+000
1.222699e+003,1.493675e+000
1.226557e+003,1.479325e+000
1.230414e+003,1.419565e+000
1.234271e+003,1.326317e+000
1.238128e+003,1.242166e+000
1.241985e+003,1.179352e+000
1.245842e+003,1.109766e+000
1.249699e+003,1.049866e+000
1.253556e+003,1.011240e+000
1.257413e+003,9.772873e-001
1.261271e+003,9.452589e-001
1.265128e+003,9.193192e-001
1.268985e+003,8.839764e-001
1.272842e+003,8.482579e-001
1.276699e+003,8.263130e-001
1.280556e+003,8.172354e-001
1.284413e+003,7.952479e-001
1.288270e+003,7.685767e-001
1.292127e+003,7.498868e-001
1.295984e+003,7.331921e-001
1.299841e+003,7.161819e-001
1.303698e+003,7.034544e-001
1.307556e+003,6.918778e-001
1.311413e+003,6.800498e-001
1.315270e+003,6.701291e-001
1.319127e+003,6.617467e-001
1.322984e+003,6.538509e-001
1.326841e+003,6.474574e-001
1.330698e+003,6.412366e-001
1.334555e+003,6.337517e-001
1.338412e+003,6.293319e-001
1.342270e+003,6.285498e-001
1.346127e+003,6.276594e-001
1.349984e+003,6.263079e-001
1.353841e+003,6.259338e-001
1.357698e+003,6.250635e-001
1.361555e+003,6.285937e-001
1.365412e+003,6.318929e-001
1.369269e+003,6.386237e-001
1.373126e+003,6.518250e-001
1.376983e+003,6.673318e-001
1.380840e+003,6.790769e-001
1.384698e+003,6.861607e-001
1.388555e+003,7.020112e-001
1.392412e+003,7.196859e-001
1.396269e+003,7.403748e-001
1.400126e+003,7.644220e-001
1.403983e+003,7.841900e-001
1.407840e+003,8.027930e-001
1.411697e+003,8.209842e-001
1.415554e+003,8.385990e-001
1.419411e+003,8.564291e-001
1.423269e+003,8.613467e-001
1.427126e+003,8.716303e-001
1.430983e+003,8.895192e-001
1.434840e+003,8.917419e-001
1.438697e+003,8.791764e-001
1.442554e+003,8.691750e-001
1.446411e+003,8.591017e-001
1.450268e+003,8.441842e-001
1.454125e+003,8.334936e-001
1.457982e+003,8.299860e-001
1.461839e+003,8.232237e-001
1.465697e+003,8.069206e-001
1.469554e+003,7.965603e-001
1.473411e+003,7.983728e-001
1.477268e+003,8.081566e-001
1.481125e+003,8.245986e-001
1.484982e+003,8.349950e-001
1.488839e+003,8.407179e-001
1.492696e+003,8.531058e-001
1.496553e+003,8.659885e-001
1.500411e+003,8.798599e-001
1.504268e+003,8.848509e-001
1.508125e+003,8.797333e-001
1.511982e+003,8.822722e-001
1.515839e+003,8.838867e-001
1.519696e+003,8.729638e-001
1.523553e+003,8.587647e-001
1.527410e+003,8.429726e-001
1.531267e+003,8.284816e-001
1.535124e+003,8.155386e-001
1.538981e+003,7.985902e-001
1.542839e+003,7.809463e-001
1.546696e+003,7.548857e-001
1.550553e+003,7.346921e-001
1.554410e+003,7.160895e-001
1.558267e+003,6.970018e-001
1.562124e+003,6.864068e-001
1.565981e+003,6.823478e-001
1.569838e+003,6.740075e-001
1.573695e+003,6.625172e-001
1.577552e+003,6.565560e-001
1.581410e+003,6.574591e-001
1.585267e+003,6.599258e-001
1.589124e+003,6.630967e-001
1.592981e+003,6.720416e-001
1.596838e+003,6.886634e-001
1.600695e+003,7.094314e-001
1.604552e+003,7.329962e-001
1.608409e+003,7.647427e-001
1.612266e+003,7.980310e-001
1.616123e+003,8.347325e-001
1.619980e+003,8.743290e-001
1.623838e+003,9.144604e-001
1.627695e+003,9.518328e-001
1.631552e+003,9.779109e-001
1.635409e+003,9.876456e-001
1.639266e+003,9.818125e-001
1.643123e+003,9.600070e-001
1.646980e+003,9.432219e-001
1.650837e+003,9.192379e-001
1.654694e+003,8.928798e-001
1.658551e+003,8.691592e-001
1.662409e+003,8.363912e-001
1.666266e+003,7.971135e-001
1.670123e+003,7.583424e-001
1.673980e+003,7.241771e-001
1.677837e+003,6.927050e-001
1.681694e+003,6.682729e-001
1.685551e+003,6.442434e-001
1.689408e+003,6.186575e-001
1.693265e+003,6.020239e-001
1.697122e+003,5.882053e-001
1.700979e+003,5.721136e-001
1.704837e+003,5.612146e-001
1.708694e+003,5.505418e-001
1.712551e+003,5.427047e-001
1.716408e+003,5.312212e-001
1.720265e+003,5.226705e-001
1.724122e+003,5.202994e-001
1.727979e+003,5.156246e-001
1.731836e+003,5.076689e-001
1.735693e+003,5.035274e-001
1.739550e+003,5.025586e-001
1.743408e+003,4.988791e-001
1.747265e+003,4.944807e-001
1.751122e+003,4.961628e-001
1.754979e+003,4.963931e-001
1.758836e+003,4.934143e-001
1.762693e+003,4.910727e-001
1.766550e+003,4.908443e-001
1.770407e+003,4.911010e-001
1.774264e+003,4.873999e-001
1.778121e+003,4.844633e-001
1.781979e+003,4.823508e-001
1.785836e+003,4.795356e-001
1.789693e+003,4.771343e-001
1.793550e+003,4.730166e-001
1.797407e+003,4.690952e-001
1.801264e+003,4.680402e-001
1.805121e+003,4.685031e-001
1.808978e+003,4.687976e-001
1.812835e+003,4.648266e-001
1.816692e+003,4.613636e-001
1.820549e+003,4.608675e-001
1.824407e+003,4.592356e-001
1.828264e+003,4.581455e-001
1.832121e+003,4.561270e-001
1.835978e+003,4.533896e-001
1.839835e+003,4.502380e-001
1.843692e+003,4.466741e-001
1.847549e+003,4.433814e-001
1.851406e+003,4.395783e-001
1.855263e+003,4.385014e-001
1.859120e+003,4.392640e-001
1.862978e+003,4.357368e-001
1.866835e+003,4.306515e-001
1.870692e+003,4.278916e-001
1.874549e+003,4.290478e-001
1.878406e+003,4.292554e-001
1.882263e+003,4.263553e-001
1.886120e+003,4.230446e-001
1.889977e+003,4.207855e-001
1.893834e+003,4.187029e-001
1.897691e+003,4.158096e-001
1.901548e+003,4.125231e-001
1.905406e+003,4.108892e-001
1.909263e+003,4.096246e-001
1.913120e+003,4.070534e-001
1.916977e+003,4.069252e-001
1.920834e+003,4.063053e-001
1.924691e+003,4.022001e-001
1.928548e+003,4.005063e-001
1.932405e+003,3.998104e-001
1.936262e+003,3.970325e-001
1.940119e+003,3.942961e-001
1.943977e+003,3.938427e-001
1.947834e+003,3.925173e-001
1.951691e+003,3.893647e-001
1.955548e+003,3.850154e-001
1.959405e+003,3.810129e-001
1.963262e+003,3.800024e-001
1.967119e+003,3.788229e-001
1.970976e+003,3.750421e-001
1.974833e+003,3.715423e-001
1.978690e+003,3.700323e-001
1.982547e+003,3.689550e-001
1.986405e+003,3.693238e-001
1.990262e+003,3.693181e-001
1.994119e+003,3.662242e-001
1.997976e+003,3.644827e-001
2.001833e+003,3.651608e-001
2.005690e+003,3.643184e-001
2.009547e+003,3.609894e-001
2.013404e+003,3.598285e-001
2.017261e+003,3.600154e-001
2.021118e+003,3.583227e-001
2.024976e+003,3.554937e-001
2.028833e+003,3.532417e-001
2.032690e+003,3.504399e-001
2.036547e+003,3.470086e-001
2.040404e+003,3.449429e-001
2.044261e+003,3.455566e-001
2.048118e+003,3.467823e-001
2.051975e+003,3.467859e-001
2.055832e+003,3.458916e-001
2.059689e+003,3.443358e-001
2.063546e+003,3.423147e-001
2.067404e+003,3.389479e-001
2.071261e+003,3.376102e-001
2.075118e+003,3.369316e-001
2.078975e+003,3.350419e-001
2.082832e+003,3.324626e-001
2.086689e+003,3.302477e-001
2.090546e+003,3.300343e-001
2.094403e+003,3.304738e-001
2.098260e+003,3.312756e-001
2.102117e+003,3.304617e-001
2.105975e+003,3.291869e-001
2.109832e+003,3.289043e-001
2.113689e+003,3.281260e-001
2.117546e+003,3.266272e-001
2.121403e+003,3.282157e-001
2.125260e+003,3.306828e-001
2.129117e+003,3.295499e-001
2.132974e+003,3.270337e-001
2.136831e+003,3.275168e-001
2.140688e+003,3.265021e-001
2.144545e+003,3.265869e-001
2.148403e+003,3.261001e-001
2.152260e+003,3.235824e-001
2.156117e+003,3.226168e-001
2.159974e+003,3.238446e-001
2.163831e+003,3.243685e-001
2.167688e+003,3.256889e-001
2.171545e+003,3.267741e-001
2.175402e+003,3.283953e-001
2.179259e+003,3.284624e-001
2.183116e+003,3.280438e-001
2.186974e+003,3.303579e-001
2.190831e+003,3.315941e-001
2.194688e+003,3.325163e-001
2.198545e+003,3.307701e-001
2.202402e+003,3.283136e-001
2.206259e+003,3.281912e-001
2.210116e+003,3.291107e-001
2.213973e+003,3.303472e-001
2.217830e+003,3.315674e-001
2.221688e+003,3.313329e-001
2.225544e+003,3.321078e-001
2.229402e+003,3.326468e-001
2.233259e+003,3.330554e-001
2.237116e+003,3.354624e-001
2.240973e+003,3.381658e-001
2.244830e+003,3.386341e-001
2.248687e+003,3.380304e-001
2.252544e+003,3.386159e-001
2.256401e+003,3.391048e-001
2.260258e+003,3.406668e-001
2.264115e+003,3.410825e-001
2.267973e+003,3.400780e-001
2.271830e+003,3.416078e-001
2.275687e+003,3.434287e-001
2.279544e+003,3.417516e-001
2.283401e+003,3.390268e-001
2.287258e+003,3.372923e-001
2.291115e+003,3.390383e-001
2.294972e+003,3.418095e-001
2.298829e+003,3.423567e-001
2.302687e+003,3.410548e-001
2.306543e+003,3.433129e-001
2.310401e+003,3.428496e-001
2.314258e+003,3.409591e-001
2.318115e+003,3.398876e-001
2.321972e+003,3.379493e-001
2.325829e+003,3.393868e-001
2.329686e+003,3.410161e-001
2.333543e+003,3.389646e-001
2.337400e+003,3.365947e-001
2.341257e+003,3.364059e-001
2.345115e+003,3.387174e-001
2.348972e+003,3.406728e-001
2.352829e+003,3.392194e-001
2.356686e+003,3.353466e-001
2.360543e+003,3.342133e-001
2.364400e+003,3.343956e-001
2.368257e+003,3.358608e-001
2.372114e+003,3.389145e-001
2.375971e+003,3.396252e-001
2.379828e+003,3.406323e-001
2.383686e+003,3.415416e-001
2.387542e+003,3.430977e-001
2.391400e+003,3.435468e-001
2.395257e+003,3.435909e-001
2.399114e+003,3.432333e-001
2.402971e+003,3.423918e-001
2.406828e+003,3.421507e-001
2.410685e+003,3.398550e-001
2.414542e+003,3.386111e-001
2.418399e+003,3.378721e-001
2.422256e+003,3.358465e-001
2.426114e+003,3.347568e-001
2.429971e+003,3.357520e-001
2.433828e+003,3.364133e-001
2.437685e+003,3.365511e-001
2.441542e+003,3.359457e-001
2.445399e+003,3.343129e-001
2.449256e+003,3.325536e-001
2.453113e+003,3.328001e-001
2.456970e+003,3.327509e-001
2.460827e+003,3.311767e-001
2.464684e+003,3.295361e-001
2.468542e+003,3.290927e-001
2.472399e+003,3.294268e-001
2.476256e+003,3.297885e-001
2.480113e+003,3.293117e-001
2.483970e+003,3.285713e-001
2.487827e+003,3.273185e-001
2.491684e+003,3.271629e-001
2.495541e+003,3.272952e-001
2.499398e+003,3.283017e-001
2.503255e+003,3.289652e-001
2.507113e+003,3.285889e-001
2.510969e+003,3.279476e-001
2.514827e+003,3.281380e-001
2.518684e+003,3.298684e-001
2.522541e+003,3.328348e-001
2.526398e+003,3.326081e-001
2.530255e+003,3.323084e-001
2.534112e+003,3.331538e-001
2.537969e+003,3.349189e-001
2.541826e+003,3.370362e-001
2.545683e+003,3.358586e-001
2.549541e+003,3.347421e-001
2.553398e+003,3.358437e-001
2.557255e+003,3.383389e-001
2.561112e+003,3.420073e-001
2.564969e+003,3.454215e-001
2.568826e+003,3.478271e-001
2.572683e+003,3.504830e-001
2.576540e+003,3.522407e-001
2.580397e+003,3.517793e-001
2.584254e+003,3.525097e-001
2.588112e+003,3.571896e-001
2.591969e+003,3.596589e-001
2.595826e+003,3.605804e-001
2.599683e+003,3.641649e-001
2.603540e+003,3.669019e-001
2.607397e+003,3.699181e-001
2.611254e+003,3.739505e-001
2.615111e+003,3.761510e-001
2.618968e+003,3.778088e-001
2.622825e+003,3.805243e-001
2.626682e+003,3.853317e-001
2.630540e+003,3.884791e-001
2.634397e+003,3.918766e-001
2.638254e+003,3.938205e-001
2.642111e+003,3.957209e-001
2.645968e+003,4.013278e-001
2.649825e+003,4.066024e-001
2.653682e+003,4.091687e-001
2.657539e+003,4.119336e-001
2.661396e+003,4.141361e-001
2.665253e+003,4.202163e-001
2.669111e+003,4.257467e-001
2.672968e+003,4.290856e-001
2.676825e+003,4.311132e-001
2.680682e+003,4.344488e-001
2.684539e+003,4.406542e-001
2.688396e+003,4.424070e-001
2.692253e+003,4.440721e-001
2.696110e+003,4.481996e-001
2.699967e+003,4.534889e-001
2.703824e+003,4.609498e-001
2.707681e+003,4.662206e-001
2.711539e+003,4.713814e-001
2.715396e+003,4.766983e-001
2.719253e+003,4.826705e-001
2.723110e+003,4.876703e-001
2.726967e+003,4.903351e-001
2.730824e+003,4.942308e-001
2.734681e+003,4.993924e-001
2.738538e+003,5.048488e-001
2.742395e+003,5.093092e-001
2.746252e+003,5.134572e-001
2.750110e+003,5.171367e-001
2.753967e+003,5.227407e-001
2.757824e+003,5.304618e-001
2.761681e+003,5.349166e-001
2.765538e+003,5.392024e-001
2.769395e+003,5.456666e-001
2.773252e+003,5.535570e-001
2.777109e+003,5.594984e-001
2.780966e+003,5.632409e-001
2.784823e+003,5.681354e-001
2.788680e+003,5.726938e-001
2.792538e+003,5.784768e-001
2.796395e+003,5.850765e-001
2.800252e+003,5.892876e-001
2.804109e+003,5.923018e-001
2.807966e+003,6.024762e-001
2.811823e+003,6.071942e-001
2.815680e+003,6.102372e-001
2.819537e+003,6.179976e-001
2.823394e+003,6.269981e-001
2.827251e+003,6.354526e-001
2.831109e+003,6.401718e-001
2.834966e+003,6.469766e-001
2.838823e+003,6.520443e-001
2.842680e+003,6.570069e-001
2.846537e+003,6.633929e-001
2.850394e+003,6.668843e-001
2.854251e+003,6.753730e-001
2.858108e+003,6.849774e-001
2.861965e+003,6.907268e-001
2.865823e+003,7.011809e-001
2.869679e+003,7.072864e-001
2.873537e+003,7.107891e-001
2.877394e+003,7.165516e-001
2.881251e+003,7.247077e-001
2.885108e+003,7.305623e-001
2.888965e+003,7.349140e-001
2.892822e+003,7.419339e-001
2.896679e+003,7.480704e-001
2.900536e+003,7.527941e-001
2.904393e+003,7.643090e-001
2.908250e+003,7.790698e-001
2.912108e+003,7.866428e-001
2.915965e+003,7.969632e-001
2.919822e+003,8.087061e-001
2.923679e+003,8.095013e-001
2.927536e+003,8.109354e-001
2.931393e+003,8.192967e-001
2.935250e+003,8.337752e-001
2.939107e+003,8.388966e-001
2.942964e+003,8.408411e-001
2.946822e+003,8.494813e-001
2.950678e+003,8.644194e-001
2.954536e+003,8.715890e-001
2.958393e+003,8.786971e-001
2.962250e+003,8.906057e-001
2.966107e+003,8.938267e-001
2.969964e+003,8.999193e-001
2.973821e+003,9.124377e-001
2.977678e+003,9.161722e-001
2.981535e+003,9.147354e-001
2.985392e+003,9.226692e-001
2.989250e+003,9.289550e-001
2.993107e+003,9.374451e-001
2.996964e+003,9.492494e-001
3.000821e+003,9.600812e-001
3.004678e+003,9.658608e-001
3.008535e+003,9.699239e-001
3.012392e+003,9.783515e-001
3.016249e+003,9.886189e-001
3.020106e+003,9.965487e-001
3.023963e+003,1.010286e+000
3.027821e+003,1.022276e+000
3.031677e+003,1.038624e+000
3.035535e+003,1.041857e+000
3.039392e+003,1.045575e+000
3.043249e+003,1.052870e+000
3.047106e+003,1.062896e+000
3.050963e+003,1.076026e+000
3.054820e+003,1.065837e+000
3.058677e+003,1.064983e+000
3.062534e+003,1.084514e+000
3.066391e+003,1.110688e+000
3.070249e+003,1.125326e+000
3.074106e+003,1.133692e+000
3.077963e+003,1.146445e+000
3.081820e+003,1.145539e+000
3.085677e+003,1.146782e+000
3.089534e+003,1.159050e+000
3.093391e+003,1.177128e+000
3.097248e+003,1.186136e+000
3.101105e+003,1.184303e+000
3.104962e+003,1.196883e+000
3.108820e+003,1.212616e+000
3.112677e+003,1.200464e+000
3.116534e+003,1.187825e+000
3.120391e+003,1.198275e+000
3.124248e+003,1.220876e+000
3.128105e+003,1.242809e+000
3.131962e+003,1.269501e+000
3.135819e+003,1.282202e+000
3.139676e+003,1.281872e+000
3.143533e+003,1.290349e+000
3.147390e+003,1.297236e+000
3.151248e+003,1.309583e+000
3.155105e+003,1.321013e+000
3.158962e+003,1.321507e+000
3.162819e+003,1.310606e+000
3.166676e+003,1.320517e+000
3.170533e+003,1.340400e+000
3.174390e+003,1.351746e+000
3.178247e+003,1.363144e+000
3.182104e+003,1.388093e+000
3.185961e+003,1.400710e+000
3.189819e+003,1.407051e+000
3.193676e+003,1.406994e+000
3.197533e+003,1.407975e+000
3.201390e+003,1.405124e+000
3.205247e+003,1.417058e+000
3.209104e+003,1.439177e+000
3.212961e+003,1.420612e+000
3.216818e+003,1.403395e+000
3.220675e+003,1.415419e+000
3.224532e+003,1.430548e+000
3.228389e+003,1.467417e+000
3.232247e+003,1.473485e+000
3.236104e+003,1.455452e+000
3.239961e+003,1.473380e+000
3.243818e+003,1.488201e+000
3.247675e+003,1.500505e+000
3.251532e+003,1.490389e+000
3.255389e+003,1.488468e+000
3.259246e+003,1.492634e+000
3.263103e+003,1.490166e+000
3.266960e+003,1.496246e+000
3.270818e+003,1.551765e+000
3.274675e+003,1.558008e+000
3.278532e+003,1.522264e+000
3.282389e+003,1.544098e+000
3.286246e+003,1.544457e+000
3.290103e+003,1.531414e+000
3.293960e+003,1.521502e+000
3.297817e+003,1.516861e+000
3.301674e+003,1.557707e+000
3.305531e+003,1.601786e+000
3.309388e+003,1.592066e+000
3.313246e+003,1.612637e+000
3.317103e+003,1.613074e+000
3.320960e+003,1.598657e+000
3.324817e+003,1.605780e+000
3.328674e+003,1.607400e+000
3.332531e+003,1.602448e+000
3.336388e+003,1.600842e+000
3.340245e+003,1.627982e+000
3.344102e+003,1.640297e+000
3.347959e+003,1.656613e+000
3.351817e+003,1.646270e+000
3.355674e+003,1.626799e+000
3.359531e+003,1.647465e+000
3.363388e+003,1.681191e+000
3.367245e+003,1.734010e+000
3.371102e+003,1.756709e+000
3.374959e+003,1.715065e+000
3.378816e+003,1.714886e+000
3.382673e+003,1.692439e+000
3.386530e+003,1.677103e+000
3.390387e+003,1.723322e+000
3.394245e+003,1.782496e+000
3.398102e+003,1.786995e+000
3.401959e+003,1.713319e+000
3.405816e+003,1.704240e+000
3.409673e+003,1.712825e+000
3.413530e+003,1.701076e+000
3.417387e+003,1.730057e+000
3.421244e+003,1.757254e+000
3.425101e+003,1.850639e+000
3.428958e+003,1.868316e+000
3.432815e+003,1.826810e+000
3.436673e+003,1.785424e+000
3.440530e+003,1.760103e+000
3.444387e+003,1.777184e+000
3.448244e+003,1.761168e+000
3.452101e+003,1.727496e+000
3.455958e+003,1.727246e+000
3.459815e+003,1.753936e+000
3.463672e+003,1.745071e+000
3.467529e+003,1.737056e+000
3.471386e+003,1.732911e+000
3.475244e+003,1.760831e+000
3.479101e+003,1.759680e+000
3.482958e+003,1.732395e+000
3.486815e+003,1.701690e+000
3.490672e+003,1.694968e+000
3.494529e+003,1.749570e+000
3.498386e+003,1.810863e+000
3.502243e+003,1.804289e+000
3.506100e+003,1.773452e+000
3.509958e+003,1.739209e+000
3.513814e+003,1.761365e+000
3.517672e+003,1.809401e+000
3.521529e+003,1.801981e+000
3.525386e+003,1.726814e+000
3.529243e+003,1.747387e+000
3.533100e+003,1.759655e+000
3.536957e+003,1.750274e+000
3.540814e+003,1.812484e+000
3.544671e+003,1.869688e+000
3.548528e+003,1.839989e+000
3.552385e+003,1.831883e+000
3.556243e+003,1.744604e+000
3.560100e+003,1.712098e+000
3.563957e+003,1.721209e+000
3.567814e+003,1.754887e+000
3.571671e+003,1.785066e+000
3.575528e+003,1.725398e+000
3.579385e+003,1.732285e+000
3.583242e+003,1.735344e+000
3.587099e+003,1.686277e+000
3.590957e+003,1.647163e+000
3.594813e+003,1.659662e+000
3.598671e+003,1.645787e+000
3.602528e+003,1.582951e+000
3.606385e+003,1.512424e+000
3.610242e+003,1.460009e+000
3.614099e+003,1.417611e+000
3.617956e+003,1.363232e+000
3.621813e+003,1.300809e+000
3.625670e+003,1.249591e+000
3.629527e+003,1.187497e+000
3.633385e+003,1.116746e+000
3.637242e+003,1.033266e+000
3.641099e+003,9.522886e-001
3.644956e+003,8.781980e-001
3.648813e+003,8.051555e-001
3.652670e+003,7.428374e-001
3.656527e+003,6.868440e-001
3.660384e+003,6.261446e-001
3.664241e+003,5.662848e-001
3.668098e+003,5.158401e-001
3.671956e+003,4.759653e-001
3.675813e+003,4.433514e-001
3.679670e+003,4.094545e-001
3.683527e+003,3.781301e-001
3.687384e+003,3.552009e-001
3.691241e+003,3.349349e-001
3.695098e+003,3.152601e-001
3.698955e+003,3.012719e-001
3.702812e+003,2.901186e-001
3.706669e+003,2.778897e-001
3.710526e+003,2.672702e-001
3.714384e+003,2.596127e-001
3.718241e+003,2.521940e-001
3.722098e+003,2.443893e-001
3.725955e+003,2.369035e-001
3.729812e+003,2.324945e-001
3.733669e+003,2.300872e-001
3.737526e+003,2.259438e-001
3.741383e+003,2.204202e-001
3.745240e+003,2.169972e-001
3.749097e+003,2.163264e-001
3.752955e+003,2.155795e-001
3.756812e+003,2.142600e-001
3.760669e+003,2.106005e-001
3.764526e+003,2.085649e-001
3.768383e+003,2.075315e-001
3.772240e+003,2.069955e-001
3.776097e+003,2.061913e-001
3.779954e+003,2.029911e-001
3.783811e+003,2.018474e-001
3.787668e+003,2.022362e-001
3.791525e+003,2.012067e-001
3.795383e+003,1.995310e-001
3.799240e+003,2.001642e-001
3.803097e+003,2.008188e-001
3.806954e+003,2.007592e-001
3.810811e+003,1.991855e-001
3.814668e+003,1.984105e-001
3.818525e+003,1.978485e-001
3.822382e+003,1.980628e-001
3.826239e+003,1.992149e-001
3.830096e+003,1.984734e-001
3.833954e+003,1.991950e-001
3.837811e+003,1.974431e-001
3.841668e+003,1.955097e-001
3.845525e+003,1.957023e-001
3.849382e+003,1.947083e-001
3.853239e+003,1.937720e-001
3.857096e+003,1.935679e-001
3.860953e+003,1.946763e-001
3.864810e+003,1.929210e-001
3.868667e+003,1.926945e-001
3.872524e+003,1.947216e-001
3.876382e+003,1.922931e-001
3.880239e+003,1.926212e-001
3.884096e+003,1.960365e-001
3.887953e+003,1.951803e-001
3.891810e+003,1.930469e-001
3.895667e+003,1.903152e-001
3.899524e+003,1.887910e-001
3.903381e+003,1.893584e-001
3.907238e+003,1.898257e-001
3.911095e+003,1.893466e-001
3.914953e+003,1.877673e-001
3.918810e+003,1.895453e-001
3.922667e+003,1.908969e-001
3.926524e+003,1.890017e-001
3.930381e+003,1.888328e-001
3.934238e+003,1.891111e-001
3.938095e+003,1.902533e-001
3.941952e+003,1.904480e-001
3.945809e+003,1.876459e-001
3.949667e+003,1.852817e-001
3.953523e+003,1.869304e-001
3.957381e+003,1.892812e-001
3.961238e+003,1.878047e-001
3.965095e+003,1.836120e-001
3.968952e+003,1.841314e-001
3.972809e+003,1.876260e-001
3.976666e+003,1.885363e-001
3.980523e+003,1.882189e-001
3.984380e+003,1.883332e-001
3.988237e+003,1.874466e-001
3.992094e+003,1.845751e-001
3.995952e+003,1.856297e-001
3.999809e+003,1.849431e-001
4.003666e+003,1.841777e-001
4.007523e+003,1.863478e-001
4.011380e+003,1.870036e-001
4.015237e+003,1.858101e-001
4.019094e+003,1.854515e-001
4.022951e+003,1.834891e-001
4.026808e+003,1.812789e-001
4.030666e+003,1.804355e-001
4.034522e+003,1.800331e-001
4.038380e+003,1.794610e-001
4.042237e+003,1.806740e-001
4.046094e+003,1.814718e-001
4.049951e+003,1.821966e-001
4.053808e+003,1.812003e-001
4.057665e+003,1.761906e-001
4.061522e+003,1.755413e-001
4.065379e+003,1.787055e-001
4.069236e+003,1.782670e-001
4.073094e+003,1.773686e-001
4.076951e+003,1.772688e-001
4.080808e+003,1.792546e-001
4.084665e+003,1.794581e-001
4.088522e+003,1.773897e-001
4.092379e+003,1.762433e-001
4.096236e+003,1.755812e-001
4.100093e+003,1.743193e-001
4.103950e+003,1.748066e-001
4.107808e+003,1.721754e-001
4.111665e+003,1.697177e-001
4.115521e+003,1.699769e-001
4.119379e+003,1.715546e-001
4.123236e+003,1.725591e-001
4.127093e+003,1.733541e-001
4.130950e+003,1.706445e-001
4.134807e+003,1.699832e-001
4.138664e+003,1.723240e-001
4.142521e+003,1.704876e-001
4.146378e+003,1.674171e-001
4.150235e+003,1.690541e-001
4.154093e+003,1.708127e-001
4.157950e+003,1.674539e-001
4.161807e+003,1.656352e-001
4.165664e+003,1.655762e-001
4.169521e+003,1.648202e-001
4.173378e+003,1.647127e-001
4.177235e+003,1.647659e-001
4.181092e+003,1.639123e-001
4.184949e+003,1.653720e-001
4.188807e+003,1.651835e-001
4.192664e+003,1.633592e-001
4.196521e+003,1.638493e-001
4.200378e+003,1.653876e-001
4.204235e+003,1.654862e-001
4.208092e+003,1.650329e-001
4.211949e+003,1.609505e-001
4.215806e+003,1.572767e-001
4.219663e+003,1.568790e-001
4.223521e+003,1.560510e-001
4.227377e+003,1.577341e-001
4.231234e+003,1.601554e-001
4.235092e+003,1.599989e-001
4.238949e+003,1.592429e-001
4.242806e+003,1.576286e-001
4.246663e+003,1.553439e-001
4.250520e+003,1.559703e-001
4.254377e+003,1.579882e-001
4.258234e+003,1.602119e-001
4.262091e+003,1.594105e-001
4.265948e+003,1.600034e-001
4.269806e+003,1.598416e-001
4.273663e+003,1.570540e-001
4.277520e+003,1.546558e-001
4.281377e+003,1.530803e-001
4.285234e+003,1.517355e-001
4.289091e+003,1.526412e-001
4.292948e+003,1.525658e-001
4.296805e+003,1.516552e-001
4.300662e+003,1.538810e-001
4.304520e+003,1.575727e-001
4.308376e+003,1.577986e-001
4.312233e+003,1.522821e-001
4.316091e+003,1.503782e-001
4.319948e+003,1.549540e-001
4.323805e+003,1.578792e-001
4.327662e+003,1.545565e-001
4.331519e+003,1.524256e-001
4.335376e+003,1.531401e-001
4.339233e+003,1.522916e-001
4.343090e+003,1.530798e-001
4.346947e+003,1.550553e-001
4.350805e+003,1.565157e-001
4.354662e+003,1.540217e-001
4.358519e+003,1.512841e-001
4.362376e+003,1.533907e-001
4.366233e+003,1.567490e-001
4.370090e+003,1.581566e-001
4.373947e+003,1.569139e-001
4.377804e+003,1.575905e-001
4.381661e+003,1.573906e-001
4.385519e+003,1.562020e-001
4.389375e+003,1.563710e-001
4.393232e+003,1.567799e-001
4.397090e+003,1.572418e-001
4.400947e+003,1.561686e-001
4.404804e+003,1.544374e-001
4.408661e+003,1.527100e-001
4.412518e+003,1.532051e-001
4.416375e+003,1.532969e-001
4.420232e+003,1.507203e-001
4.424089e+003,1.485949e-001
4.427946e+003,1.493433e-001
4.431804e+003,1.505991e-001
4.435661e+003,1.516705e-001
4.439518e+003,1.557795e-001
4.443375e+003,1.571156e-001
4.447232e+003,1.560407e-001
4.451089e+003,1.532238e-001
4.454946e+003,1.529477e-001
4.458803e+003,1.548207e-001
4.462660e+003,1.551996e-001
4.466518e+003,1.544966e-001
4.470375e+003,1.559711e-001
4.474231e+003,1.543029e-001
4.478089e+003,1.530077e-001
4.481946e+003,1.518372e-001
4.485803e+003,1.506917e-001
4.489660e+003,1.529952e-001
4.493517e+003,1.552741e-001
4.497375e+003,1.553353e-001
4.501231e+003,1.532168e-001
4.505088e+003,1.508352e-001
4.508946e+003,1.482238e-001
4.512803e+003,1.486643e-001
4.516660e+003,1.485862e-001
4.520517e+003,1.463664e-001
4.524374e+003,1.460271e-001
4.528231e+003,1.485091e-001
4.532088e+003,1.485652e-001
4.535945e+003,1.516304e-001
4.539802e+003,1.526568e-001
4.543660e+003,1.493875e-001
4.547517e+003,1.463478e-001
4.551374e+003,1.458888e-001
4.555231e+003,1.441485e-001
4.559088e+003,1.440214e-001
4.562945e+003,1.492723e-001
4.566802e+003,1.499513e-001
4.570659e+003,1.466962e-001
4.574516e+003,1.430561e-001
4.578374e+003,1.410221e-001
4.582230e+003,1.382176e-001
4.586087e+003,1.371600e-001
4.589945e+003,1.387553e-001
4.593802e+003,1.375960e-001
4.597659e+003,1.400897e-001
4.601516e+003,1.454688e-001
4.605373e+003,1.447942e-001
4.609230e+003,1.401597e-001
4.613087e+003,1.394348e-001
4.616944e+003,1.390978e-001
4.620801e+003,1.366188e-001
4.624659e+003,1.343868e-001
4.628516e+003,1.343441e-001
4.632373e+003,1.319257e-001
4.636230e+003,1.287067e-001
4.640087e+003,1.315321e-001
4.643944e+003,1.363183e-001
4.647801e+003,1.394234e-001
4.651658e+003,1.395417e-001
4.655515e+003,1.398636e-001
4.659373e+003,1.348636e-001
4.663229e+003,1.320151e-001
4.667086e+003,1.328388e-001
4.670944e+003,1.303638e-001
4.674801e+003,1.340791e-001
4.678658e+003,1.360468e-001
4.682515e+003,1.374609e-001
4.686372e+003,1.392541e-001
4.690229e+003,1.375348e-001
4.694086e+003,1.356699e-001
4.697943e+003,1.364897e-001
4.701800e+003,1.373353e-001
4.705658e+003,1.365485e-001
4.709515e+003,1.377500e-001
4.713372e+003,1.365611e-001
4.717229e+003,1.358960e-001
4.721086e+003,1.364765e-001
4.724943e+003,1.369397e-001
4.728800e+003,1.336414e-001
4.732657e+003,1.309356e-001
4.736514e+003,1.337205e-001
4.740372e+003,1.344741e-001
4.744229e+003,1.335151e-001
4.748085e+003,1.336877e-001
4.751943e+003,1.348417e-001
4.755800e+003,1.343886e-001
4.759657e+003,1.356055e-001
4.763514e+003,1.404249e-001
4.767371e+003,1.425464e-001
4.771228e+003,1.393683e-001
4.775085e+003,1.352951e-001
4.778942e+003,1.329912e-001
4.782799e+003,1.318532e-001
4.786657e+003,1.320223e-001
4.790514e+003,1.341494e-001
4.794371e+003,1.323897e-001
4.798228e+003,1.332920e-001
4.802085e+003,1.324006e-001
4.805942e+003,1.303124e-001
4.809799e+003,1.300945e-001
4.813656e+003,1.327367e-001
4.817513e+003,1.331106e-001
4.821371e+003,1.336874e-001
4.825228e+003,1.355281e-001
4.829084e+003,1.387911e-001
4.832942e+003,1.383781e-001
4.836799e+003,1.384613e-001
4.840656e+003,1.371634e-001
4.844513e+003,1.356066e-001
4.848370e+003,1.358033e-001
4.852227e+003,1.355780e-001
4.856084e+003,1.347386e-001
4.859941e+003,1.395148e-001
4.863798e+003,1.419938e-001
4.867656e+003,1.399226e-001
4.871513e+003,1.372498e-001
4.875370e+003,1.387334e-001
4.879227e+003,1.408511e-001
4.883084e+003,1.390425e-001
4.886941e+003,1.366100e-001
4.890798e+003,1.376437e-001
4.894655e+003,1.362000e-001
4.898512e+003,1.355522e-001
4.902370e+003,1.390602e-001
4.906227e+003,1.385154e-001
4.910083e+003,1.378069e-001
4.913941e+003,1.388978e-001
4.917798e+003,1.389911e-001
4.921655e+003,1.406287e-001
4.925512e+003,1.417485e-001
4.929369e+003,1.404025e-001
4.933226e+003,1.391114e-001
4.937083e+003,1.400211e-001
4.940940e+003,1.416827e-001
4.944797e+003,1.399530e-001
4.948655e+003,1.369962e-001
4.952512e+003,1.362199e-001
4.956369e+003,1.386682e-001
4.960226e+003,1.404896e-001
4.964083e+003,1.417024e-001
4.967940e+003,1.419046e-001
4.971797e+003,1.391600e-001
4.975654e+003,1.384307e-001
4.979511e+003,1.407063e-001
4.983369e+003,1.426039e-001
4.987226e+003,1.427699e-001
4.991083e+003,1.412431e-001
4.994940e+003,1.393895e-001
4.998797e+003,1.408426e-001
5.002654e+003,1.470074e-001
5.006511e+003,1.500968e-001
5.010368e+003,1.461499e-001
5.014225e+003,1.433420e-001
5.018083e+003,1.416145e-001
5.021939e+003,1.442528e-001
5.025796e+003,1.438455e-001
5.029654e+003,1.424137e-001
5.033511e+003,1.424032e-001
5.037368e+003,1.414784e-001
5.041225e+003,1.430456e-001
5.045082e+003,1.469168e-001
5.048939e+003,1.475437e-001
5.052796e+003,1.477873e-001
5.056653e+003,1.504238e-001
5.060510e+003,1.465585e-001
5.064368e+003,1.429356e-001
5.068225e+003,1.413220e-001
5.072082e+003,1.447535e-001
5.075939e+003,1.492401e-001
5.079796e+003,1.498864e-001
5.083653e+003,1.435167e-001
5.087510e+003,1.420446e-001
5.091367e+003,1.443156e-001
5.095224e+003,1.447595e-001
5.099082e+003,1.485196e-001
5.102938e+003,1.474590e-001
5.106795e+003,1.466043e-001
5.110653e+003,1.463870e-001
5.114510e+003,1.433735e-001
5.118367e+003,1.474735e-001
5.122224e+003,1.542407e-001
5.126081e+003,1.533965e-001
5.129938e+003,1.506612e-001
5.133795e+003,1.478497e-001
5.137652e+003,1.522804e-001
5.141509e+003,1.593378e-001
5.145367e+003,1.576990e-001
5.149224e+003,1.545300e-001
5.153081e+003,1.529931e-001
5.156938e+003,1.515248e-001
5.160795e+003,1.521584e-001
5.164652e+003,1.533117e-001
5.168509e+003,1.532803e-001
5.172366e+003,1.545062e-001
5.176223e+003,1.561327e-001
5.180081e+003,1.581123e-001
5.183938e+003,1.591879e-001
5.187794e+003,1.584630e-001
5.191652e+003,1.581754e-001
5.195509e+003,1.634224e-001
5.199366e+003,1.666561e-001
5.203223e+003,1.626283e-001
5.207080e+003,1.569476e-001
5.210937e+003,1.527133e-001
5.214794e+003,1.517036e-001
5.218651e+003,1.548420e-001
5.222508e+003,1.569578e-001
5.226366e+003,1.567060e-001
5.230223e+003,1.554254e-001
5.234080e+003,1.541985e-001
5.237937e+003,1.519784e-001
5.241794e+003,1.519470e-001
5.245651e+003,1.569544e-001
5.249508e+003,1.548305e-001
5.253365e+003,1.503747e-001
5.257222e+003,1.519277e-001
5.261080e+003,1.551436e-001
5.264937e+003,1.550823e-001
5.268793e+003,1.506739e-001
5.272651e+003,1.515610e-001
5.276508e+003,1.539709e-001
5.280365e+003,1.499372e-001
5.284222e+003,1.468240e-001
5.288079e+003,1.426621e-001
5.291936e+003,1.440416e-001
5.295793e+003,1.476025e-001
5.299650e+003,1.481123e-001
5.303507e+003,1.498813e-001
5.307365e+003,1.476816e-001
5.311222e+003,1.458460e-001
5.315079e+003,1.501965e-001
5.318936e+003,1.508473e-001
5.322793e+003,1.515351e-001
5.326650e+003,1.541146e-001
5.330507e+003,1.541748e-001
5.334364e+003,1.561623e-001
5.338221e+003,1.557651e-001
5.342079e+003,1.529110e-001
5.345936e+003,1.519938e-001
5.349792e+003,1.522574e-001
5.353650e+003,1.540708e-001
5.357507e+003,1.534237e-001
5.361364e+003,1.500540e-001
5.365221e+003,1.498919e-001
5.369078e+003,1.518870e-001
5.372935e+003,1.551542e-001
5.376792e+003,1.570803e-001
5.380649e+003,1.565792e-001
5.384506e+003,1.546359e-001
5.388364e+003,1.557432e-001
5.392221e+003,1.551024e-001
5.396078e+003,1.524700e-001
5.399935e+003,1.534439e-001
5.403792e+003,1.528938e-001
5.407649e+003,1.571772e-001
5.411506e+003,1.590254e-001
5.415363e+003,1.564043e-001
5.419220e+003,1.556853e-001
5.423078e+003,1.552509e-001
5.426935e+003,1.546033e-001
5.430792e+003,1.562423e-001
5.434649e+003,1.551129e-001
5.438506e+003,1.541606e-001
5.442363e+003,1.558755e-001
5.446220e+003,1.593654e-001
5.450077e+003,1.620288e-001
5.453934e+003,1.625745e-001
5.457792e+003,1.623655e-001
5.461648e+003,1.611989e-001
5.465505e+003,1.590274e-001
5.469363e+003,1.574428e-001
5.473220e+003,1.529372e-001
5.477077e+003,1.524151e-001
5.480934e+003,1.540442e-001
5.484791e+003,1.565989e-001
5.488648e+003,1.577379e-001
5.492505e+003,1.607475e-001
5.496362e+003,1.624134e-001
5.500219e+003,1.588856e-001
5.504077e+003,1.604743e-001
5.507934e+003,1.654285e-001
5.511791e+003,1.606003e-001
5.515648e+003,1.564080e-001
5.519505e+003,1.592913e-001
5.523362e+003,1.624689e-001
5.527219e+003,1.651146e-001
5.531076e+003,1.698105e-001
5.534933e+003,1.677194e-001
5.538791e+003,1.643220e-001
5.542647e+003,1.628546e-001
5.546504e+003,1.628799e-001
5.550362e+003,1.594518e-001
5.554219e+003,1.594685e-001
5.558076e+003,1.646404e-001
5.561933e+003,1.704582e-001
5.565790e+003,1.730791e-001
5.569647e+003,1.688993e-001
5.573504e+003,1.675888e-001
5.577361e+003,1.698988e-001
5.581218e+003,1.678041e-001
5.585076e+003,1.638390e-001
5.588933e+003,1.665322e-001
5.592790e+003,1.744879e-001
5.596647e+003,1.727671e-001
5.600504e+003,1.674929e-001
5.604361e+003,1.654239e-001
5.608218e+003,1.639006e-001
5.612075e+003,1.681805e-001
5.615932e+003,1.695762e-001
5.619790e+003,1.631830e-001
5.623646e+003,1.657206e-001
5.627503e+003,1.719595e-001
5.631361e+003,1.725124e-001
5.635218e+003,1.723488e-001
5.639075e+003,1.778286e-001
5.642932e+003,1.768975e-001
5.646789e+003,1.708167e-001
5.650646e+003,1.677292e-001
5.654503e+003,1.638392e-001
5.658360e+003,1.637603e-001
5.662217e+003,1.648890e-001
5.666075e+003,1.635927e-001
5.669932e+003,1.680994e-001
5.673789e+003,1.697024e-001
5.677646e+003,1.689119e-001
5.681503e+003,1.718784e-001
5.685360e+003,1.713625e-001
5.689217e+003,1.717860e-001
5.693074e+003,1.710539e-001
5.696931e+003,1.703852e-001
5.700789e+003,1.700532e-001
5.704646e+003,1.732627e-001
5.708502e+003,1.772476e-001
5.712360e+003,1.741368e-001
5.716217e+003,1.729189e-001
5.720074e+003,1.732865e-001
5.723931e+003,1.751303e-001
5.727788e+003,1.806107e-001
5.731645e+003,1.769404e-001
5.735502e+003,1.725330e-001
5.739359e+003,1.736393e-001
5.743216e+003,1.732455e-001
5.747074e+003,1.715334e-001
5.750931e+003,1.785002e-001
5.754788e+003,1.833200e-001
5.758645e+003,1.786962e-001
5.762502e+003,1.757117e-001
5.766359e+003,1.755255e-001
5.770216e+003,1.726411e-001
5.774073e+003,1.746316e-001
5.777930e+003,1.743704e-001
5.781788e+003,1.779799e-001
5.785645e+003,1.818461e-001
5.789501e+003,1.797867e-001
5.793359e+003,1.716240e-001
5.797216e+003,1.711336e-001
5.801073e+003,1.805334e-001
5.804930e+003,1.806852e-001
5.808787e+003,1.755092e-001
5.812644e+003,1.723941e-001
5.816501e+003,1.745258e-001
5.820358e+003,1.823159e-001
5.824215e+003,1.854473e-001
5.828073e+003,1.793209e-001
5.831930e+003,1.846266e-001
5.835787e+003,1.880852e-001
5.839644e+003,1.790918e-001
5.843501e+003,1.797909e-001
5.847358e+003,1.821948e-001
5.851215e+003,1.862583e-001
5.855072e+003,1.865027e-001
5.858929e+003,1.819382e-001
5.862787e+003,1.818682e-001
5.866644e+003,1.810301e-001
5.870500e+003,1.758841e-001
5.874358e+003,1.792937e-001
5.878215e+003,1.783745e-001
5.882072e+003,1.706281e-001
5.885929e+003,1.758406e-001
5.889786e+003,1.775965e-001
5.893643e+003,1.772356e-001
5.897500e+003,1.746841e-001
5.901357e+003,1.763671e-001
5.905214e+003,1.803959e-001
5.909072e+003,1.795749e-001
5.912929e+003,1.842443e-001
5.916786e+003,1.848287e-001
5.920643e+003,1.792329e-001
5.924500e+003,1.805519e-001
5.928357e+003,1.824451e-001
5.932214e+003,1.840794e-001
5.936071e+003,1.829561e-001
5.939928e+003,1.814739e-001
5.943786e+003,1.819683e-001
5.947643e+003,1.809175e-001
5.951500e+003,1.833665e-001
5.955357e+003,1.837440e-001
5.959214e+003,1.813229e-001
5.963071e+003,1.840928e-001
5.966928e+003,1.849808e-001
5.970785e+003,1.834764e-001
5.974642e+003,1.853337e-001
5.978500e+003,1.797771e-001
5.982356e+003,1.757907e-001
5.986213e+003,1.754704e-001
5.990071e+003,1.764458e-001
5.993928e+003,1.772396e-001
5.997785e+003,1.770247e-001
6.001642e+003,1.809424e-001
6.005499e+003,1.839353e-001
6.009356e+003,1.880725e-001
6.013213e+003,1.875121e-001
6.017070e+003,1.864319e-001
6.020927e+003,1.865972e-001
6.024785e+003,1.881720e-001
6.028642e+003,1.886780e-001
6.032499e+003,1.852834e-001
6.036356e+003,1.848296e-001
6.040213e+003,1.875995e-001
6.044070e+003,1.920651e-001
6.047927e+003,1.904888e-001
6.051784e+003,1.871836e-001
6.055641e+003,1.847506e-001
6.059499e+003,1.855196e-001
6.063355e+003,1.842669e-001
6.067212e+003,1.816993e-001
6.071070e+003,1.839274e-001
6.074927e+003,1.834053e-001
6.078784e+003,1.859228e-001
6.082641e+003,1.922122e-001
6.086498e+003,1.936241e-001
6.090355e+003,1.909706e-001
6.094212e+003,1.863137e-001
6.098069e+003,1.812234e-001
6.101926e+003,1.857743e-001
6.105784e+003,1.826123e-001
6.109641e+003,1.836266e-001
6.113498e+003,1.888086e-001
6.117355e+003,1.966351e-001
6.121212e+003,1.996303e-001
6.125069e+003,1.911226e-001
6.128926e+003,1.791780e-001
6.132783e+003,1.781634e-001
6.136640e+003,1.778000e-001
6.140498e+003,1.802533e-001
6.144354e+003,1.827061e-001
6.148211e+003,1.772068e-001
6.152069e+003,1.806529e-001
6.155926e+003,1.857399e-001
6.159783e+003,1.927047e-001
6.163640e+003,1.916604e-001
6.167497e+003,1.869094e-001
6.171354e+003,1.859471e-001
6.175211e+003,1.866748e-001
6.179068e+003,1.909851e-001
6.182925e+003,1.962416e-001
6.186783e+003,1.928415e-001
6.190640e+003,1.918021e-001
6.194497e+003,1.998714e-001
6.198354e+003,1.969186e-001
6.202211e+003,1.931968e-001
6.206068e+003,1.943969e-001
6.209925e+003,1.915983e-001
6.213782e+003,1.828175e-001
6.217639e+003,1.812024e-001
6.221497e+003,1.958382e-001
6.225354e+003,1.993621e-001
6.229210e+003,1.933502e-001
6.233068e+003,1.877214e-001
6.236925e+003,1.842388e-001
6.240782e+003,1.820805e-001
6.244639e+003,1.807296e-001
6.248496e+003,1.814836e-001
6.252353e+003,1.813075e-001
6.256210e+003,1.759557e-001
6.260067e+003,1.818428e-001
6.263924e+003,1.849966e-001
6.267782e+003,1.866774e-001
6.271639e+003,1.925979e-001
6.275496e+003,1.904309e-001
6.279353e+003,1.877586e-001
6.283210e+003,1.858715e-001
6.287067e+003,1.814013e-001
6.290924e+003,1.848220e-001
6.294781e+003,1.832731e-001
6.298638e+003,1.775948e-001
6.302496e+003,1.833309e-001
6.306353e+003,1.841140e-001
6.310209e+003,1.857942e-001
6.314067e+003,1.884489e-001
6.317924e+003,1.879152e-001
6.321781e+003,1.875039e-001
6.325638e+003,1.852655e-001
6.329495e+003,1.807906e-001
6.333352e+003,1.859220e-001
6.337209e+003,1.946240e-001
6.341066e+003,1.864821e-001
6.344923e+003,1.905165e-001
6.348780e+003,1.859298e-001
6.352638e+003,1.795766e-001
6.356495e+003,1.790888e-001
6.360352e+003,1.881265e-001
6.364209e+003,1.952016e-001
6.368066e+003,1.958927e-001
6.371923e+003,1.829297e-001
6.375780e+003,1.808600e-001
6.379637e+003,1.866612e-001
6.383494e+003,1.866689e-001
6.387352e+003,1.756027e-001
6.391208e+003,1.809742e-001
6.395065e+003,1.939304e-001
6.398923e+003,1.898638e-001
6.402780e+003,1.794545e-001
6.406637e+003,1.840893e-001
6.410494e+003,1.868455e-001
6.414351e+003,1.749923e-001
6.418208e+003,1.673053e-001
6.422065e+003,1.744574e-001
6.425922e+003,1.784642e-001
6.429779e+003,1.785632e-001
6.433637e+003,1.823099e-001
6.437494e+003,1.835562e-001
6.441351e+003,1.799409e-001
6.445208e+003,1.743479e-001
6.449065e+003,1.678718e-001
6.452922e+003,1.752143e-001
6.456779e+003,1.813551e-001
6.460636e+003,1.748377e-001
6.464493e+003,1.750186e-001
6.468351e+003,1.800299e-001
6.472208e+003,1.801400e-001
6.476064e+003,1.819532e-001
6.479922e+003,1.799925e-001
6.483779e+003,1.860331e-001
6.487636e+003,1.863762e-001
6.491493e+003,1.787045e-001
6.495350e+003,1.791604e-001
6.499207e+003,1.763774e-001
6.503064e+003,1.801616e-001
6.506921e+003,1.801533e-001
6.510778e+003,1.735059e-001
6.514636e+003,1.772670e-001
6.518493e+003,1.850691e-001
6.522350e+003,1.836127e-001
6.526207e+003,1.871569e-001
6.530064e+003,1.850811e-001
6.533921e+003,1.742911e-001
6.537778e+003,1.684120e-001
6.541635e+003,1.677680e-001
6.545492e+003,1.683207e-001
6.549350e+003,1.787478e-001
6.553207e+003,1.859055e-001
6.557063e+003,1.825560e-001
6.560921e+003,1.897174e-001
6.564778e+003,1.861833e-001
6.568635e+003,1.819668e-001
6.572492e+003,1.888669e-001
6.576349e+003,2.051739e-001
6.580206e+003,2.028817e-001
6.584063e+003,1.884532e-001
6.587920e+003,1.844209e-001
6.591777e+003,1.753251e-001
6.595635e+003,1.689217e-001
6.599492e+003,1.762560e-001
6.603349e+003,1.861335e-001
6.607206e+003,1.855323e-001
6.611063e+003,1.854198e-001
6.614920e+003,1.753639e-001
6.618777e+003,1.633170e-001
6.622634e+003,1.641056e-001
6.626491e+003,1.760169e-001
6.630349e+003,1.838885e-001
6.634206e+003,1.760822e-001
6.638063e+003,1.778363e-001
6.641920e+003,1.889976e-001
6.645777e+003,1.852441e-001
6.649634e+003,1.795041e-001
6.653491e+003,1.790922e-001
6.657348e+003,1.809829e-001
6.661205e+003,1.836846e-001
6.665063e+003,1.809936e-001
6.668919e+003,1.732350e-001
6.672776e+003,1.789328e-001
6.676634e+003,1.788661e-001
6.680491e+003,1.823158e-001
6.684348e+003,1.866929e-001
6.688205e+003,1.807130e-001
6.692062e+003,1.748857e-001
6.695919e+003,1.728932e-001
6.699776e+003,1.765717e-001
6.703633e+003,1.874243e-001
6.707490e+003,1.831061e-001
6.711348e+003,1.756170e-001
6.715205e+003,1.786458e-001
6.719062e+003,1.827799e-001
6.722919e+003,1.869994e-001
6.726776e+003,1.970848e-001
6.730633e+003,1.911771e-001
6.734490e+003,1.866947e-001
6.738347e+003,1.763884e-001
6.742204e+003,1.675198e-001
6.746062e+003,1.708537e-001
6.749918e+003,1.800270e-001
6.753775e+003,1.906366e-001
6.757633e+003,1.861383e-001
6.761490e+003,1.701758e-001
6.765347e+003,1.667979e-001
6.769204e+003,1.711006e-001
6.773061e+003,1.614663e-001
6.776918e+003,1.595474e-001
6.780775e+003,1.685359e-001
6.784632e+003,1.682600e-001
6.788489e+003,1.653883e-001
6.792347e+003,1.649901e-001
6.796204e+003,1.683236e-001
6.800061e+003,1.745129e-001
6.803918e+003,1.818870e-001
6.807775e+003,1.785395e-001
6.811632e+003,1.611946e-001
6.815489e+003,1.634737e-001
6.819346e+003,1.676525e-001
6.823203e+003,1.720148e-001
6.827061e+003,1.863752e-001
6.830917e+003,1.907319e-001
6.834774e+003,1.845047e-001
6.838632e+003,1.819128e-001
6.842489e+003,1.849246e-001
6.846346e+003,1.873067e-001
6.850203e+003,1.737206e-001
6.854060e+003,1.626316e-001
6.857917e+003,1.579953e-001
6.861774e+003,1.622670e-001
6.865631e+003,1.656672e-001
6.869488e+003,1.703372e-001
6.873346e+003,1.664621e-001
6.877203e+003,1.687529e-001
6.881060e+003,1.773402e-001
6.884917e+003,1.752831e-001
6.888774e+003,1.761418e-001
6.892631e+003,1.748426e-001
6.896488e+003,1.756079e-001
6.900345e+003,1.799866e-001
6.904202e+003,1.645848e-001
6.908060e+003,1.590906e-001
6.911917e+003,1.588661e-001
6.915773e+003,1.694085e-001
6.919631e+003,1.766595e-001
6.923488e+003,1.682384e-001
6.927345e+003,1.646346e-001
6.931202e+003,1.644097e-001
6.935059e+003,1.688317e-001
6.938916e+003,1.767592e-001
6.942773e+003,1.723668e-001
6.946630e+003,1.705972e-001
6.950487e+003,1.724410e-001
6.954345e+003,1.609024e-001
6.958202e+003,1.723659e-001
6.962059e+003,2.005906e-001
6.965916e+003,1.842744e-001
6.969773e+003,1.642345e-001
6.973630e+003,1.624968e-001
6.977487e+003,1.791293e-001
6.981344e+003,1.851632e-001
6.985201e+003,1.890374e-001
6.989059e+003,1.882431e-001
6.992916e+003,1.723830e-001
6.996772e+003,1.744546e-001
7.000630e+003,1.835829e-001
7.004487e+003,1.943641e-001
7.008344e+003,1.898255e-001
7.012201e+003,1.739501e-001
7.016058e+003,1.791280e-001
7.019915e+003,1.859495e-001
7.023772e+003,1.769011e-001
7.027629e+003,1.562148e-001
7.031486e+003,1.501140e-001
7.035344e+003,1.617735e-001
7.039201e+003,1.752970e-001
7.043058e+003,1.761030e-001
7.046915e+003,1.786948e-001
7.050772e+003,2.005164e-001
7.054629e+003,1.856053e-001
7.058486e+003,1.642414e-001
7.062343e+003,1.545348e-001
7.066200e+003,1.575188e-001
7.070058e+003,1.518392e-001
7.073915e+003,1.525953e-001
7.077771e+003,1.654412e-001
7.081629e+003,1.618178e-001
7.085486e+003,1.764995e-001
7.089343e+003,1.753003e-001
7.093200e+003,1.554099e-001
7.097057e+003,1.518146e-001
7.100914e+003,1.566769e-001
7.104771e+003,1.485363e-001
7.108628e+003,1.622756e-001
7.112485e+003,1.707145e-001
7.116343e+003,1.736791e-001
7.120200e+003,1.660125e-001
7.124057e+003,1.719653e-001
7.127914e+003,1.783973e-001
7.131771e+003,1.898719e-001
7.135628e+003,2.042793e-001
7.139485e+003,2.109772e-001
7.143342e+003,2.039401e-001
7.147199e+003,1.703221e-001
7.151057e+003,1.599246e-001
7.154914e+003,1.683860e-001
7.158771e+003,1.851388e-001
7.162628e+003,1.744736e-001
7.166485e+003,1.829315e-001
7.170342e+003,1.860645e-001
7.174199e+003,1.777636e-001
7.178056e+003,1.920269e-001
7.181913e+003,1.972473e-001
7.185771e+003,1.812797e-001
7.189627e+003,1.617280e-001
7.193484e+003,1.547119e-001
7.197342e+003,1.607207e-001
7.201199e+003,1.652157e-001
7.205056e+003,1.691481e-001
7.208913e+003,1.661943e-001
7.212770e+003,1.723610e-001
7.216627e+003,1.645125e-001
7.220484e+003,1.597063e-001
7.224341e+003,1.713681e-001
7.228198e+003,1.649204e-001
7.232056e+003,1.435423e-001
7.235913e+003,1.527951e-001
7.239770e+003,1.705885e-001
7.243627e+003,1.667126e-001
7.247484e+003,1.646223e-001
7.251341e+003,1.649959e-001
7.255198e+003,1.601048e-001
7.259055e+003,1.406339e-001
7.262912e+003,1.505374e-001
7.266770e+003,1.824787e-001
7.270626e+003,1.717981e-001
7.274483e+003,1.501393e-001
7.278341e+003,1.675882e-001
7.282198e+003,1.788511e-001
7.286055e+003,1.758669e-001
7.289912e+003,1.874181e-001
7.293769e+003,2.102885e-001
7.297626e+003,2.106875e-001
7.301483e+003,1.962542e-001
7.305340e+003,1.959638e-001
7.309197e+003,2.118292e-001
7.313055e+003,2.094769e-001
7.316912e+003,1.847113e-001
7.320769e+003,1.700247e-001
7.324626e+003,1.808565e-001
7.328483e+003,1.774773e-001
7.332340e+003,1.418756e-001
7.336197e+003,1.449856e-001
7.340054e+003,1.755304e-001
7.343911e+003,1.893572e-001
7.347769e+003,1.711694e-001
7.351625e+003,1.659010e-001
7.355482e+003,1.670256e-001
7.359340e+003,1.509792e-001
7.363197e+003,1.436887e-001
7.367054e+003,1.579668e-001
7.370911e+003,1.906426e-001
7.374768e+003,1.831141e-001
7.378625e+003,1.640321e-001
7.382482e+003,1.468860e-001
7.386339e+003,1.515711e-001
7.390196e+003,1.765305e-001
7.394054e+003,1.865151e-001
7.397911e+003,1.930563e-001
7.401768e+003,1.650205e-001
7.405625e+003,1.499793e-001
7.409482e+003,1.466351e-001
7.413339e+003,1.331764e-001
7.417196e+003,1.646271e-001
7.421053e+003,1.975976e-001
7.424910e+003,1.736728e-001
7.428768e+003,1.688585e-001
7.432625e+003,1.847585e-001
7.436481e+003,1.817401e-001
7.440339e+003,1.751838e-001
7.444196e+003,1.989650e-001
7.448053e+003,2.085474e-001
7.451910e+003,1.659591e-001
7.455767e+003,1.528483e-001
7.459624e+003,1.509863e-001
7.463481e+003,1.751172e-001
7.467338e+003,1.888784e-001
7.471195e+003,1.593465e-001
7.475053e+003,1.344387e-001
7.478910e+003,1.512247e-001
7.482767e+003,1.802612e-001
7.486624e+003,1.871191e-001
7.490481e+003,1.812919e-001
7.494338e+003,1.606158e-001
7.498195e+003,1.658267e-001
7.502052e+003,1.766809e-001
7.505909e+003,1.797106e-001
7.509767e+003,1.757421e-001
7.513624e+003,1.723634e-001
7.517480e+003,1.944148e-001
7.521338e+003,1.991387e-001
7.525195e+003,1.769455e-001
7.529052e+003,1.650748e-001
7.532909e+003,1.692526e-001
7.536766e+003,1.792896e-001
7.540623e+003,1.799973e-001
7.544480e+003,1.700339e-001
7.548337e+003,1.776613e-001
7.552194e+003,1.975775e-001
7.556052e+003,1.962541e-001
7.559909e+003,1.866798e-001
7.563766e+003,1.610879e-001
7.567623e+003,1.527157e-001
7.571480e+003,1.465178e-001
7.575337e+003,1.552330e-001
7.579194e+003,1.823131e-001
7.583051e+003,1.840305e-001
7.586908e+003,1.626466e-001
7.590766e+003,1.552183e-001
7.594623e+003,1.416254e-001
7.598479e+003,1.587268e-001
7.602337e+003,1.953330e-001
7.606194e+003,2.105502e-001
7.610051e+003,2.146098e-001
7.613908e+003,1.960210e-001
7.617765e+003,1.824425e-001
7.621622e+003,1.967875e-001
7.625479e+003,2.349398e-001
7.629336e+003,2.345155e-001
7.633193e+003,1.840612e-001
7.637051e+003,1.695402e-001
7.640908e+003,1.766602e-001
7.644765e+003,1.891633e-001
7.648622e+003,1.676549e-001
7.652479e+003,1.277725e-001
7.656336e+003,1.230562e-001
7.660193e+003,1.597313e-001
7.664050e+003,2.080991e-001
7.667907e+003,2.085382e-001
7.671765e+003,1.811073e-001
7.675622e+003,1.867176e-001
7.679479e+003,2.270505e-001
7.683336e+003,2.285953e-001
7.687193e+003,2.145542e-001
7.691050e+003,1.823283e-001
7.694907e+003,1.617680e-001
7.698764e+003,1.743499e-001
7.702621e+003,1.732451e-001
7.706479e+003,1.846383e-001
7.710335e+003,1.769428e-001
7.714192e+003,1.735012e-001
7.718050e+003,1.707332e-001
7.721907e+003,1.586549e-001
7.725764e+003,1.539072e-001
7.729621e+003,1.789760e-001
7.733478e+003,2.001049e-001
7.737335e+003,1.637213e-001
7.741192e+003,1.340442e-001
7.745049e+003,1.600213e-001
7.748906e+003,2.226970e-001
7.752764e+003,2.384158e-001
7.756621e+003,2.212152e-001
7.760478e+003,2.702530e-001
7.764335e+003,2.514764e-001
7.768192e+003,1.728844e-001
7.772049e+003,1.383170e-001
7.775906e+003,1.319306e-001
7.779763e+003,1.639662e-001
7.783620e+003,2.243732e-001
7.787478e+003,2.229431e-001
7.791334e+003,1.644697e-001
7.795191e+003,1.391792e-001
7.799049e+003,1.571135e-001
7.802906e+003,1.872970e-001
7.806763e+003,2.077516e-001
7.810620e+003,1.843118e-001
7.814477e+003,1.563224e-001
7.818334e+003,1.883109e-001
7.822191e+003,1.822137e-001
7.826048e+003,1.781916e-001
7.829905e+003,1.979409e-001
7.833763e+003,2.233716e-001
7.837620e+003,2.191674e-001
7.841477e+003,1.872930e-001
7.845334e+003,1.931286e-001
7.849191e+003,2.239382e-001
7.853048e+003,1.630928e-001
7.856905e+003,1.785472e-001
7.860762e+003,2.078048e-001
7.864619e+003,1.853226e-001
7.868477e+003,1.857495e-001
7.872333e+003,1.863408e-001
7.876190e+003,2.173865e-001
7.880048e+003,2.457667e-001
7.883905e+003,2.308004e-001
7.887762e+003,2.087823e-001
7.891619e+003,1.616684e-001
7.895476e+003,2.224148e-001
7.899333e+003,2.751030e-001
7.903190e+003,2.541099e-001
7.907047e+003,2.211730e-001
7.910904e+003,1.767160e-001
7.914762e+003,1.977758e-001
7.918619e+003,2.408625e-001
7.922476e+003,2.283192e-001
7.926333e+003,2.349955e-001
7.930190e+003,2.147073e-001
7.934047e+003,2.040412e-001
7.937904e+003,2.610119e-001
7.941761e+003,2.525337e-001
7.945618e+003,2.214716e-001
7.949476e+003,1.666841e-001
7.953333e+003,1.453730e-001
7.957189e+003,1.067612e-001
7.961047e+003,1.230874e-001
7.964904e+003,2.095761e-001
7.968761e+003,2.702727e-001
7.972618e+003,1.994417e-001
7.976475e+003,1.775065e-001
7.980332e+003,2.327908e-001
7.984189e+003,2.732311e-001
7.988046e+003,2.472700e-001
7.991903e+003,1.981466e-001
7.995761e+003,1.835383e-001
7.999618e+003,1.763295e-001
