4.011380e+002,6.000000e+000
4.049951e+002,6.000000e+000
4.088522e+002,6.000000e+000
4.127093e+002,8.596098e-002
4.165664e+002,6.000000e+000
4.204235e+002,2.952903e-001
4.242806e+002,3.647545e-001
4.281377e+002,6.000000e+000
4.319948e+002,6.000000e+000
4.358519e+002,-7.914982e-001
4.397090e+002,-6.229433e-002
4.435661e+002,-1.270330e-001
4.474232e+002,6.000000e+000
4.512803e+002,6.000000e+000
4.551374e+002,6.000000e+000
4.589945e+002,6.000000e+000
4.628516e+002,3.663313e-001
4.667087e+002,-2.129429e-001
4.705658e+002,-9.810194e-002
4.744229e+002,6.172605e-002
4.782800e+002,-6.310803e-001
4.821371e+002,6.000000e+000
4.859941e+002,-1.517569e-001
4.898513e+002,6.000000e+000
4.937083e+002,6.000000e+000
4.975654e+002,-6.925226e-001
5.014225e+002,6.000000e+000
5.052796e+002,-9.162229e-002
5.091367e+002,-5.641242e-001
5.129938e+002,6.000000e+000
5.168509e+002,6.024691e-001
5.207080e+002,1.219747e+000
5.245651e+002,7.060850e-001
5.284222e+002,2.264775e-001
5.322793e+002,6.000000e+000
5.361364e+002,4.376490e-002
5.399935e+002,6.000000e+000
5.438506e+002,6.000000e+000
5.477077e+002,-1.366849e+000
5.515648e+002,-3.470064e-001
5.554219e+002,-2.366278e-001
5.592790e+002,-5.838060e-001
5.631361e+002,6.000000e+000
5.669932e+002,6.000000e+000
5.708503e+002,-3.038392e-001
5.747074e+002,6.000000e+000
5.785645e+002,6.000000e+000
5.824216e+002,6.000000e+000
5.862787e+002,6.000000e+000
5.901357e+002,3.512765e-001
5.939929e+002,2.034570e-001
5.978499e+002,6.000000e+000
6.017070e+002,6.000000e+000
6.055641e+002,-8.612873e-001
6.094212e+002,4.262944e-001
6.132783e+002,7.535896e-001
6.171354e+002,3.273613e-002
6.209925e+002,3.258080e-001
6.248496e+002,6.810063e-001
6.287067e+002,7.374348e-001
6.325638e+002,-4.953280e-001
6.364209e+002,6.000000e+000
6.402780e+002,6.000000e+000
6.441351e+002,7.103145e-001
6.479922e+002,-1.179531e+000
6.518493e+002,1.773590e-001
6.557064e+002,-6.234002e-002
6.595635e+002,-7.705059e-001
6.634205e+002,6.000000e+000
6.672777e+002,-6.485174e-001
6.711348e+002,3.089613e-001
6.749918e+002,4.337717e-001
6.788490e+002,-3.173677e-001
6.827061e+002,6.000000e+000
6.865631e+002,6.000000e+000
6.904203e+002,1.991014e-002
6.942773e+002,6.000000e+000
6.981344e+002,-2.012810e-001
7.019916e+002,7.823378e-001
7.058486e+002,3.889498e-001
7.097057e+002,6.000000e+000
7.135629e+002,7.589940e-001
7.174199e+002,6.000000e+000
7.212770e+002,6.000000e+000
7.251342e+002,6.000000e+000
7.289912e+002,8.881805e-001
7.328483e+002,2.307883e-001
7.367054e+002,1.675017e+000
7.405625e+002,6.000000e+000
7.444196e+002,6.000000e+000
7.482767e+002,6.000000e+000
7.521338e+002,6.000000e+000
7.559908e+002,6.000000e+000
7.598480e+002,6.000000e+000
7.637051e+002,4.448737e-001
7.675621e+002,9.603214e-002
7.714193e+002,3.386644e-002
7.752764e+002,-1.218280e-002
7.791334e+002,6.000000e+000
7.829905e+002,6.000000e+000
7.868477e+002,6.000000e+000
7.907047e+002,6.000000e+000
7.945618e+002,3.843499e-001
7.984189e+002,6.000000e+000
8.022760e+002,-3.780854e-003
8.061331e+002,6.000000e+000
8.099902e+002,6.000000e+000
8.138473e+002,6.000000e+000
8.177044e+002,6.000000e+000
8.215615e+002,6.000000e+000
8.254186e+002,4.804689e-001
8.292757e+002,4.350714e-001
8.331328e+002,6.000000e+000
8.369899e+002,5.734401e-001
8.408470e+002,3.646827e-001
8.447041e+002,6.000000e+000
8.485612e+002,6.000000e+000
8.524183e+002,9.402515e-001
8.562754e+002,8.322602e-001
8.601324e+002,6.000000e+000
8.639896e+002,6.000000e+000
8.678467e+002,6.000000e+000
8.717037e+002,1.355673e+000
8.755609e+002,9.930648e-001
8.794180e+002,1.539242e+000
8.832750e+002,6.000000e+000
8.871321e+002,6.000000e+000
8.909893e+002,1.305673e+000
8.948463e+002,1.511866e+000
8.987034e+002,1.443464e+000
9.025605e+002,1.270093e+000
9.064176e+002,1.685789e+000
9.102747e+002,2.138782e+000
9.141318e+002,1.565523e+000
9.179889e+002,1.474555e+000
9.218461e+002,6.000000e+000
9.257031e+002,6.000000e+000
9.295602e+002,6.000000e+000
9.334174e+002,6.000000e+000
9.372744e+002,6.000000e+000
9.411315e+002,6.000000e+000
9.449886e+002,2.527571e+000
9.488457e+002,1.714379e+000
9.527028e+002,2.341055e+000
9.565599e+002,6.000000e+000
9.604170e+002,6.000000e+000
9.642740e+002,2.421139e+000
9.681312e+002,6.000000e+000
9.719883e+002,6.000000e+000
9.758453e+002,2.390520e+000
9.797025e+002,2.212736e+000
9.835596e+002,2.244325e+000
9.874166e+002,1.692328e+000
9.912738e+002,1.712315e+000
9.951309e+002,1.717999e+000
9.989879e+002,6.000000e+000
1.002845e+003,6.000000e+000
1.006702e+003,6.000000e+000
1.010559e+003,2.244601e+000
1.014416e+003,1.813502e+000
1.018273e+003,1.909784e+000
1.022130e+003,2.008607e+000
1.025988e+003,1.606019e+000
1.029845e+003,1.676759e+000
1.033702e+003,3.443239e+000
1.037559e+003,6.000000e+000
1.041416e+003,1.827742e+000
1.045273e+003,1.930258e+000
1.049130e+003,2.012733e+000
1.052987e+003,1.784584e+000
1.056844e+003,1.623216e+000
1.060702e+003,1.547214e+000
1.064559e+003,1.582607e+000
1.068416e+003,1.600395e+000
1.072273e+003,1.532212e+000
1.076130e+003,1.982424e+000
1.079987e+003,2.256843e+000
1.083844e+003,1.783175e+000
1.087701e+003,1.554216e+000
1.091558e+003,1.490475e+000
1.095415e+003,1.481061e+000
1.099272e+003,1.328663e+000
1.103130e+003,1.345862e+000
1.106987e+003,1.354909e+000
1.110844e+003,1.266515e+000
1.114701e+003,1.254839e+000
1.118558e+003,1.277967e+000
1.122415e+003,1.259705e+000
1.126272e+003,1.245960e+000
1.130129e+003,1.226403e+000
1.133986e+003,1.199549e+000
1.137843e+003,1.196258e+000
1.141701e+003,1.208831e+000
1.145558e+003,1.170699e+000
1.149415e+003,1.128255e+000
1.153272e+003,1.145592e+000
1.157129e+003,1.167233e+000
1.160986e+003,1.183154e+000
1.164843e+003,1.196228e+000
1.168700e+003,1.173681e+000
1.172557e+003,1.192772e+000
1.176414e+003,1.235367e+000
1.180271e+003,1.167604e+000
1.184129e+003,1.102032e+000
1.187986e+003,1.114728e+000
1.191843e+003,1.132450e+000
1.195700e+003,1.122279e+000
1.199557e+003,1.138194e+000
1.203414e+003,1.126953e+000
1.207271e+003,1.071323e+000
1.211128e+003,1.006497e+000
1.214985e+003,9.657606e-001
1.218842e+003,9.147380e-001
1.222699e+003,9.003336e-001
1.226557e+003,8.833279e-001
1.230414e+003,8.329492e-001
1.234271e+003,7.804046e-001
1.238128e+003,7.415623e-001
1.241985e+003,7.051496e-001
1.245842e+003,6.811013e-001
1.249699e+003,6.599010e-001
1.253556e+003,6.407766e-001
1.257413e+003,6.107523e-001
1.261271e+003,5.665388e-001
1.265128e+003,5.520287e-001
1.268985e+003,5.497302e-001
1.272842e+003,5.343196e-001
1.276699e+003,5.085735e-001
1.280556e+003,4.909585e-001
1.284413e+003,4.874463e-001
1.288270e+003,4.729721e-001
1.292127e+003,4.579972e-001
1.295984e+003,4.575132e-001
1.299841e+003,4.489030e-001
1.303698e+003,4.329534e-001
1.307556e+003,4.317678e-001
1.311413e+003,4.200218e-001
1.315270e+003,4.029114e-001
1.319127e+003,4.001328e-001
1.322984e+003,3.979127e-001
1.326841e+003,3.883850e-001
1.330698e+003,3.808540e-001
1.334555e+003,3.766527e-001
1.338412e+003,3.746605e-001
1.342270e+003,3.722756e-001
1.346127e+003,3.678091e-001
1.349984e+003,3.656606e-001
1.353841e+003,3.635675e-001
1.357698e+003,3.581414e-001
1.361555e+003,3.592559e-001
1.365412e+003,3.636845e-001
1.369269e+003,3.608363e-001
1.373126e+003,3.647964e-001
1.376983e+003,3.713070e-001
1.380840e+003,3.798737e-001
1.384698e+003,3.925897e-001
1.388555e+003,3.986603e-001
1.392412e+003,4.003180e-001
1.396269e+003,4.034306e-001
1.400126e+003,4.124386e-001
1.403983e+003,4.204730e-001
1.407840e+003,4.271812e-001
1.411697e+003,4.363314e-001
1.415554e+003,4.425792e-001
1.419411e+003,4.542053e-001
1.423269e+003,4.634154e-001
1.427126e+003,4.662837e-001
1.430983e+003,4.776389e-001
1.434840e+003,4.753900e-001
1.438697e+003,4.684421e-001
1.442554e+003,4.669465e-001
1.446411e+003,4.641055e-001
1.450268e+003,4.532112e-001
1.454125e+003,4.455102e-001
1.457982e+003,4.413211e-001
1.461839e+003,4.394019e-001
1.465697e+003,4.409584e-001
1.469554e+003,4.367540e-001
1.473411e+003,4.348314e-001
1.477268e+003,4.362041e-001
1.481125e+003,4.340713e-001
1.484982e+003,4.369474e-001
1.488839e+003,4.474750e-001
1.492696e+003,4.592061e-001
1.496553e+003,4.585704e-001
1.500411e+003,4.604624e-001
1.504268e+003,4.662494e-001
1.508125e+003,4.684866e-001
1.511982e+003,4.652468e-001
1.515839e+003,4.662128e-001
1.519696e+003,4.707391e-001
1.523553e+003,4.663329e-001
1.527410e+003,4.528165e-001
1.531267e+003,4.441971e-001
1.535124e+003,4.432634e-001
1.538981e+003,4.369645e-001
1.542839e+003,4.259358e-001
1.546696e+003,4.124925e-001
1.550553e+003,3.972224e-001
1.554410e+003,3.862351e-001
1.558267e+003,3.815972e-001
1.562124e+003,3.775930e-001
1.565981e+003,3.731702e-001
1.569838e+003,3.636104e-001
1.573695e+003,3.579403e-001
1.577552e+003,3.553665e-001
1.581410e+003,3.527976e-001
1.585267e+003,3.563220e-001
1.589124e+003,3.623834e-001
1.592981e+003,3.696045e-001
1.596838e+003,3.767162e-001
1.600695e+003,3.866823e-001
1.604552e+003,4.019182e-001
1.608409e+003,4.180224e-001
1.612266e+003,4.431450e-001
1.616123e+003,4.660700e-001
1.619980e+003,4.838162e-001
1.623838e+003,5.029344e-001
1.627695e+003,5.180711e-001
1.631552e+003,5.283819e-001
1.635409e+003,5.358822e-001
1.639266e+003,5.442188e-001
1.643123e+003,5.432694e-001
1.646980e+003,5.244020e-001
1.650837e+003,5.000806e-001
1.654694e+003,4.842819e-001
1.658551e+003,4.712806e-001
1.662409e+003,4.585749e-001
1.666266e+003,4.487041e-001
1.670123e+003,4.293926e-001
1.673980e+003,4.052284e-001
1.677837e+003,3.858154e-001
1.681694e+003,3.704923e-001
1.685551e+003,3.602146e-001
1.689408e+003,3.492022e-001
1.693265e+003,3.374034e-001
1.697122e+003,3.329870e-001
1.700979e+003,3.270369e-001
1.704837e+003,3.168093e-001
1.708694e+003,3.132232e-001
1.712551e+003,3.157515e-001
1.716408e+003,3.125665e-001
1.720265e+003,3.048909e-001
1.724122e+003,3.014975e-001
1.727979e+003,3.017606e-001
1.731836e+003,2.976222e-001
1.735693e+003,2.913498e-001
1.739550e+003,2.927084e-001
1.743408e+003,2.950608e-001
1.747265e+003,2.953807e-001
1.751122e+003,2.923241e-001
1.754979e+003,2.857028e-001
1.758836e+003,2.870172e-001
1.762693e+003,2.908894e-001
1.766550e+003,2.919644e-001
1.770407e+003,2.920625e-001
1.774264e+003,2.920609e-001
1.778121e+003,2.942540e-001
1.781979e+003,2.937131e-001
1.785836e+003,2.895330e-001
1.789693e+003,2.833876e-001
1.793550e+003,2.782875e-001
1.797407e+003,2.766503e-001
1.801264e+003,2.771948e-001
1.805121e+003,2.776238e-001
1.808978e+003,2.736507e-001
1.812835e+003,2.693941e-001
1.816692e+003,2.691059e-001
1.820549e+003,2.687368e-001
1.824407e+003,2.688890e-001
1.828264e+003,2.680317e-001
1.832121e+003,2.711243e-001
1.835978e+003,2.721928e-001
1.839835e+003,2.667811e-001
1.843692e+003,2.631298e-001
1.847549e+003,2.598573e-001
1.851406e+003,2.550333e-001
1.855263e+003,2.505237e-001
1.859120e+003,2.466092e-001
1.862978e+003,2.420490e-001
1.866835e+003,2.406553e-001
1.870692e+003,2.418252e-001
1.874549e+003,2.410779e-001
1.878406e+003,2.410164e-001
1.882263e+003,2.415870e-001
1.886120e+003,2.396801e-001
1.889977e+003,2.381398e-001
1.893834e+003,2.408848e-001
1.897691e+003,2.450898e-001
1.901548e+003,2.467885e-001
1.905406e+003,2.473930e-001
1.909263e+003,2.467982e-001
1.913120e+003,2.476987e-001
1.916977e+003,2.449557e-001
1.920834e+003,2.431718e-001
1.924691e+003,2.448788e-001
1.928548e+003,2.429911e-001
1.932405e+003,2.375728e-001
1.936262e+003,2.354335e-001
1.940119e+003,2.341285e-001
1.943977e+003,2.321349e-001
1.947834e+003,2.288598e-001
1.951691e+003,2.252549e-001
1.955548e+003,2.231772e-001
1.959405e+003,2.212368e-001
1.963262e+003,2.164036e-001
1.967119e+003,2.169641e-001
1.970976e+003,2.155155e-001
1.974833e+003,2.130684e-001
1.978690e+003,2.139837e-001
1.982547e+003,2.175579e-001
1.986405e+003,2.201890e-001
1.990262e+003,2.223307e-001
1.994119e+003,2.223583e-001
1.997976e+003,2.221321e-001
2.001833e+003,2.226116e-001
2.005690e+003,2.253164e-001
2.009547e+003,2.234729e-001
2.013404e+003,2.202555e-001
2.017261e+003,2.209873e-001
2.021118e+003,2.244389e-001
2.024976e+003,2.245716e-001
2.028833e+003,2.196292e-001
2.032690e+003,2.127715e-001
2.036547e+003,2.087493e-001
2.040404e+003,2.036896e-001
2.044261e+003,1.986054e-001
2.048118e+003,1.936139e-001
2.051975e+003,1.916936e-001
2.055832e+003,1.923179e-001
2.059689e+003,1.923094e-001
2.063546e+003,1.912051e-001
2.067404e+003,1.895806e-001
2.071261e+003,1.893895e-001
2.075118e+003,1.917751e-001
2.078975e+003,1.918625e-001
2.082832e+003,1.938884e-001
2.086689e+003,1.966111e-001
2.090546e+003,1.942080e-001
2.094403e+003,1.963855e-001
2.098260e+003,2.011778e-001
2.102117e+003,2.029789e-001
2.105975e+003,2.010397e-001
2.109832e+003,2.007495e-001
2.113689e+003,2.017819e-001
2.117546e+003,2.032421e-001
2.121403e+003,2.017393e-001
2.125260e+003,2.008506e-001
2.129117e+003,1.990948e-001
2.132974e+003,1.990034e-001
2.136831e+003,1.987877e-001
2.140688e+003,1.960903e-001
2.144545e+003,1.922075e-001
2.148403e+003,1.880452e-001
2.152260e+003,1.865913e-001
2.156117e+003,1.859546e-001
2.159974e+003,1.879520e-001
2.163831e+003,1.878527e-001
2.167688e+003,1.864665e-001
2.171545e+003,1.865387e-001
2.175402e+003,1.881496e-001
2.179259e+003,1.916671e-001
2.183116e+003,1.951778e-001
2.186974e+003,1.951585e-001
2.190831e+003,1.971719e-001
2.194688e+003,2.015030e-001
2.198545e+003,2.041133e-001
2.202402e+003,2.055395e-001
2.206259e+003,2.057437e-001
2.210116e+003,2.055360e-001
2.213973e+003,2.061071e-001
2.217830e+003,2.047830e-001
2.221688e+003,2.021295e-001
2.225544e+003,2.026943e-001
2.229402e+003,2.039755e-001
2.233259e+003,2.037998e-001
2.237116e+003,2.004844e-001
2.240973e+003,1.986669e-001
2.244830e+003,1.973495e-001
2.248687e+003,1.937605e-001
2.252544e+003,1.930086e-001
2.256401e+003,1.919395e-001
2.260258e+003,1.915802e-001
2.264115e+003,1.920120e-001
2.267973e+003,1.930038e-001
2.271830e+003,1.942157e-001
2.275687e+003,1.940434e-001
2.279544e+003,1.958097e-001
2.283401e+003,1.973453e-001
2.287258e+003,1.985607e-001
2.291115e+003,2.005830e-001
2.294972e+003,2.032190e-001
2.298829e+003,2.054141e-001
2.302687e+003,2.070492e-001
2.306543e+003,2.084984e-001
2.310401e+003,2.098591e-001
2.314258e+003,2.123059e-001
2.318115e+003,2.104861e-001
2.321972e+003,2.051247e-001
2.325829e+003,2.032886e-001
2.329686e+003,1.995455e-001
2.333543e+003,1.990987e-001
2.337400e+003,1.999604e-001
2.341257e+003,1.980274e-001
2.345115e+003,1.969600e-001
2.348972e+003,1.926634e-001
2.352829e+003,1.896395e-001
2.356686e+003,1.898772e-001
2.360543e+003,1.902434e-001
2.364400e+003,1.883496e-001
2.368257e+003,1.889788e-001
2.372114e+003,1.948254e-001
2.375971e+003,1.986728e-001
2.379828e+003,2.006283e-001
2.383686e+003,2.044648e-001
2.387542e+003,2.042857e-001
2.391400e+003,2.004711e-001
2.395257e+003,2.005816e-001
2.399114e+003,2.035643e-001
2.402971e+003,2.033414e-001
2.406828e+003,2.082941e-001
2.410685e+003,2.107226e-001
2.414542e+003,2.053337e-001
2.418399e+003,2.037849e-001
2.422256e+003,2.054268e-001
2.426114e+003,2.063005e-001
2.429971e+003,2.055853e-001
2.433828e+003,2.042555e-001
2.437685e+003,2.033851e-001
2.441542e+003,2.004493e-001
2.445399e+003,1.972430e-001
2.449256e+003,1.941895e-001
2.453113e+003,1.905111e-001
2.456970e+003,1.894852e-001
2.460827e+003,1.886703e-001
2.464684e+003,1.880865e-001
2.468542e+003,1.858795e-001
2.472399e+003,1.856306e-001
2.476256e+003,1.863274e-001
2.480113e+003,1.897103e-001
2.483970e+003,1.903209e-001
2.487827e+003,1.907857e-001
2.491684e+003,1.947377e-001
2.495541e+003,1.986067e-001
2.499398e+003,1.987440e-001
2.503255e+003,1.977284e-001
2.507113e+003,1.987430e-001
2.510969e+003,2.043381e-001
2.514827e+003,2.063026e-001
2.518684e+003,2.024422e-001
2.522541e+003,2.009614e-001
2.526398e+003,2.037874e-001
2.530255e+003,2.045296e-001
2.534112e+003,2.006529e-001
2.537969e+003,1.999382e-001
2.541826e+003,1.996931e-001
2.545683e+003,1.964292e-001
2.549541e+003,1.963753e-001
2.553398e+003,1.940977e-001
2.557255e+003,1.951102e-001
2.561112e+003,1.967210e-001
2.564969e+003,1.950999e-001
2.568826e+003,1.959551e-001
2.572683e+003,1.973591e-001
2.576540e+003,1.977509e-001
2.580397e+003,2.024304e-001
2.584254e+003,2.051371e-001
2.588112e+003,2.073247e-001
2.591969e+003,2.107041e-001
2.595826e+003,2.161087e-001
2.599683e+003,2.237959e-001
2.603540e+003,2.251367e-001
2.607397e+003,2.227917e-001
2.611254e+003,2.276480e-001
2.615111e+003,2.307080e-001
2.618968e+003,2.303728e-001
2.622825e+003,2.331639e-001
2.626682e+003,2.312615e-001
2.630540e+003,2.272069e-001
2.634397e+003,2.294711e-001
2.638254e+003,2.333188e-001
2.642111e+003,2.319475e-001
2.645968e+003,2.293562e-001
2.649825e+003,2.302742e-001
2.653682e+003,2.325058e-001
2.657539e+003,2.314123e-001
2.661396e+003,2.323606e-001
2.665253e+003,2.376238e-001
2.669111e+003,2.408435e-001
2.672968e+003,2.420285e-001
2.676825e+003,2.443153e-001
2.680682e+003,2.480477e-001
2.684539e+003,2.499363e-001
2.688396e+003,2.488841e-001
2.692253e+003,2.537199e-001
2.696110e+003,2.606187e-001
2.699967e+003,2.639350e-001
2.703824e+003,2.686650e-001
2.707681e+003,2.725720e-001
2.711539e+003,2.767057e-001
2.715396e+003,2.784026e-001
2.719253e+003,2.784089e-001
2.723110e+003,2.805469e-001
2.726967e+003,2.816201e-001
2.730824e+003,2.819686e-001
2.734681e+003,2.842625e-001
2.738538e+003,2.871228e-001
2.742395e+003,2.864246e-001
2.746252e+003,2.848491e-001
2.750110e+003,2.843757e-001
2.753967e+003,2.836742e-001
2.757824e+003,2.873285e-001
2.761681e+003,2.930493e-001
2.765538e+003,2.922168e-001
2.769395e+003,2.965305e-001
2.773252e+003,2.996171e-001
2.777109e+003,3.001839e-001
2.780966e+003,3.057479e-001
2.784823e+003,3.079308e-001
2.788680e+003,3.089987e-001
2.792538e+003,3.161004e-001
2.796395e+003,3.220409e-001
2.800252e+003,3.257422e-001
2.804109e+003,3.289189e-001
2.807966e+003,3.314306e-001
2.811823e+003,3.375373e-001
2.815680e+003,3.394780e-001
2.819537e+003,3.394376e-001
2.823394e+003,3.456236e-001
2.827251e+003,3.511298e-001
2.831109e+003,3.519555e-001
2.834966e+003,3.532836e-001
2.838823e+003,3.536544e-001
2.842680e+003,3.523418e-001
2.846537e+003,3.547540e-001
2.850394e+003,3.600918e-001
2.854251e+003,3.654062e-001
2.858108e+003,3.667273e-001
2.861965e+003,3.681131e-001
2.865823e+003,3.701732e-001
2.869679e+003,3.732435e-001
2.873537e+003,3.776455e-001
2.877394e+003,3.829046e-001
2.881251e+003,3.856681e-001
2.885108e+003,3.890847e-001
2.888965e+003,3.933210e-001
2.892822e+003,3.962012e-001
2.896679e+003,4.004727e-001
2.900536e+003,4.049809e-001
2.904393e+003,4.096955e-001
2.908250e+003,4.152398e-001
2.912108e+003,4.193010e-001
2.915965e+003,4.235097e-001
2.919822e+003,4.254782e-001
2.923679e+003,4.287418e-001
2.927536e+003,4.359464e-001
2.931393e+003,4.423725e-001
2.935250e+003,4.417085e-001
2.939107e+003,4.448884e-001
2.942964e+003,4.509013e-001
2.946822e+003,4.536555e-001
2.950678e+003,4.554855e-001
2.954536e+003,4.545250e-001
2.958393e+003,4.547507e-001
2.962250e+003,4.561827e-001
2.966107e+003,4.569385e-001
2.969964e+003,4.599345e-001
2.973821e+003,4.658503e-001
2.977678e+003,4.686219e-001
2.981535e+003,4.691259e-001
2.985392e+003,4.790159e-001
2.989250e+003,4.897294e-001
2.993107e+003,4.936583e-001
2.996964e+003,5.009071e-001
3.000821e+003,5.056909e-001
3.004678e+003,5.097016e-001
3.008535e+003,5.148938e-001
3.012392e+003,5.158818e-001
3.016249e+003,5.219429e-001
3.020106e+003,5.241916e-001
3.023963e+003,5.293494e-001
3.027821e+003,5.343046e-001
3.031677e+003,5.332088e-001
3.035535e+003,5.394993e-001
3.039392e+003,5.466025e-001
3.043249e+003,5.478802e-001
3.047106e+003,5.490365e-001
3.050963e+003,5.547696e-001
3.054820e+003,5.578737e-001
3.058677e+003,5.584103e-001
3.062534e+003,5.607445e-001
3.066391e+003,5.606126e-001
3.070249e+003,5.643017e-001
3.074106e+003,5.668326e-001
3.077963e+003,5.698293e-001
3.081820e+003,5.853092e-001
3.085677e+003,5.901530e-001
3.089534e+003,5.876601e-001
3.093391e+003,5.968814e-001
3.097248e+003,5.987773e-001
3.101105e+003,5.974467e-001
3.104962e+003,6.042362e-001
3.108820e+003,6.130943e-001
3.112677e+003,6.207319e-001
3.116534e+003,6.292084e-001
3.120391e+003,6.425602e-001
3.124248e+003,6.456466e-001
3.128105e+003,6.435217e-001
3.131962e+003,6.437173e-001
3.135819e+003,6.496098e-001
3.139676e+003,6.585417e-001
3.143533e+003,6.599050e-001
3.147390e+003,6.652141e-001
3.151248e+003,6.678210e-001
3.155105e+003,6.629259e-001
3.158962e+003,6.663960e-001
3.162819e+003,6.768106e-001
3.166676e+003,6.852345e-001
3.170533e+003,6.898004e-001
3.174390e+003,6.975246e-001
3.178247e+003,7.054093e-001
3.182104e+003,6.982797e-001
3.185961e+003,6.973272e-001
3.189819e+003,7.052898e-001
3.193676e+003,7.206863e-001
3.197533e+003,7.369428e-001
3.201390e+003,7.372290e-001
3.205247e+003,7.266310e-001
3.209104e+003,7.253369e-001
3.212961e+003,7.348796e-001
3.216818e+003,7.399729e-001
3.220675e+003,7.352154e-001
3.224532e+003,7.378700e-001
3.228389e+003,7.517405e-001
3.232247e+003,7.589280e-001
3.236104e+003,7.593603e-001
3.239961e+003,7.599132e-001
3.243818e+003,7.653828e-001
3.247675e+003,7.773473e-001
3.251532e+003,7.932031e-001
3.255389e+003,7.910957e-001
3.259246e+003,7.830751e-001
3.263103e+003,7.920930e-001
3.266960e+003,7.886369e-001
3.270818e+003,7.863230e-001
3.274675e+003,7.877031e-001
3.278532e+003,7.887007e-001
3.282389e+003,7.883657e-001
3.286246e+003,7.919621e-001
3.290103e+003,7.901495e-001
3.293960e+003,7.974087e-001
3.297817e+003,8.114748e-001
3.301674e+003,8.098059e-001
3.305531e+003,8.044512e-001
3.309388e+003,8.078967e-001
3.313246e+003,8.195680e-001
3.317103e+003,8.259274e-001
3.320960e+003,8.364335e-001
3.324817e+003,8.539732e-001
3.328674e+003,8.521464e-001
3.332531e+003,8.471152e-001
3.336388e+003,8.513156e-001
3.340245e+003,8.502470e-001
3.344102e+003,8.551825e-001
3.347959e+003,8.535596e-001
3.351817e+003,8.471434e-001
3.355674e+003,8.707938e-001
3.359531e+003,8.864086e-001
3.363388e+003,8.872073e-001
3.367245e+003,8.888387e-001
3.371102e+003,8.795493e-001
3.374959e+003,8.776430e-001
3.378816e+003,8.725281e-001
3.382673e+003,8.586901e-001
3.386530e+003,8.646049e-001
3.390387e+003,8.726817e-001
3.394245e+003,8.606593e-001
3.398102e+003,8.743227e-001
3.401959e+003,8.968579e-001
3.405816e+003,8.999758e-001
3.409673e+003,8.846903e-001
3.413530e+003,8.866127e-001
3.417387e+003,9.040797e-001
3.421244e+003,8.975497e-001
3.425101e+003,9.053657e-001
3.428958e+003,9.231419e-001
3.432815e+003,9.301366e-001
3.436673e+003,9.187439e-001
3.440530e+003,9.070745e-001
3.444387e+003,9.194615e-001
3.448244e+003,9.059719e-001
3.452101e+003,9.035266e-001
3.455958e+003,9.185401e-001
3.459815e+003,8.957703e-001
3.463672e+003,8.944468e-001
3.467529e+003,9.177017e-001
3.471386e+003,9.183239e-001
3.475244e+003,9.085025e-001
3.479101e+003,9.282874e-001
3.482958e+003,9.383157e-001
3.486815e+003,9.354787e-001
3.490672e+003,9.298087e-001
3.494529e+003,9.160224e-001
3.498386e+003,9.045850e-001
3.502243e+003,9.119580e-001
3.506100e+003,9.317747e-001
3.509958e+003,9.463133e-001
3.513814e+003,9.442787e-001
3.517672e+003,9.293802e-001
3.521529e+003,9.264288e-001
3.525386e+003,9.276878e-001
3.529243e+003,9.435133e-001
3.533100e+003,9.530089e-001
3.536957e+003,9.316660e-001
3.540814e+003,9.383097e-001
3.544671e+003,9.515062e-001
3.548528e+003,9.387997e-001
3.552385e+003,9.414572e-001
3.556243e+003,9.495738e-001
3.560100e+003,9.496306e-001
3.563957e+003,9.270483e-001
3.567814e+003,9.016853e-001
3.571671e+003,9.073441e-001
3.575528e+003,9.170935e-001
3.579385e+003,9.046953e-001
3.583242e+003,8.974469e-001
3.587099e+003,8.858531e-001
3.590957e+003,8.572859e-001
3.594813e+003,8.404099e-001
3.598671e+003,8.299384e-001
3.602528e+003,8.132492e-001
3.606385e+003,7.952902e-001
3.610242e+003,7.730188e-001
3.614099e+003,7.444693e-001
3.617956e+003,7.182500e-001
3.621813e+003,6.882455e-001
3.625670e+003,6.562696e-001
3.629527e+003,6.179663e-001
3.633385e+003,5.846222e-001
3.637242e+003,5.612429e-001
3.641099e+003,5.266857e-001
3.644956e+003,4.877600e-001
3.648813e+003,4.535785e-001
3.652670e+003,4.142914e-001
3.656527e+003,3.800746e-001
3.660384e+003,3.483194e-001
3.664241e+003,3.176825e-001
3.668098e+003,2.938805e-001
3.671956e+003,2.711840e-001
3.675813e+003,2.493424e-001
3.679670e+003,2.337638e-001
3.683527e+003,2.215696e-001
3.687384e+003,2.064009e-001
3.691241e+003,1.913877e-001
3.695098e+003,1.829923e-001
3.698955e+003,1.778745e-001
3.702812e+003,1.733403e-001
3.706669e+003,1.700909e-001
3.710526e+003,1.615984e-001
3.714384e+003,1.565984e-001
3.718241e+003,1.552797e-001
3.722098e+003,1.516078e-001
3.725955e+003,1.454449e-001
3.729812e+003,1.411380e-001
3.733669e+003,1.410963e-001
3.737526e+003,1.382850e-001
3.741383e+003,1.366398e-001
3.745240e+003,1.350570e-001
3.749097e+003,1.347844e-001
3.752955e+003,1.355544e-001
3.756812e+003,1.305421e-001
3.760669e+003,1.292010e-001
3.764526e+003,1.301952e-001
3.768383e+003,1.268924e-001
3.772240e+003,1.247704e-001
3.776097e+003,1.255350e-001
3.779954e+003,1.274012e-001
3.783811e+003,1.254186e-001
3.787668e+003,1.231185e-001
3.791525e+003,1.223966e-001
3.795383e+003,1.220411e-001
3.799240e+003,1.226257e-001
3.803097e+003,1.248180e-001
3.806954e+003,1.261115e-001
3.810811e+003,1.232080e-001
3.814668e+003,1.245720e-001
3.818525e+003,1.254961e-001
3.822382e+003,1.236859e-001
3.826239e+003,1.220031e-001
3.830096e+003,1.190893e-001
3.833954e+003,1.177204e-001
3.837811e+003,1.175642e-001
3.841668e+003,1.208333e-001
3.845525e+003,1.213152e-001
3.849382e+003,1.194050e-001
3.853239e+003,1.193354e-001
3.857096e+003,1.168783e-001
3.860953e+003,1.177142e-001
3.864810e+003,1.184435e-001
3.868667e+003,1.179697e-001
3.872524e+003,1.171266e-001
3.876382e+003,1.188046e-001
3.880239e+003,1.206801e-001
3.884096e+003,1.222572e-001
3.887953e+003,1.217359e-001
3.891810e+003,1.213185e-001
3.895667e+003,1.246280e-001
3.899524e+003,1.266734e-001
3.903381e+003,1.250475e-001
3.907238e+003,1.247499e-001
3.911095e+003,1.263744e-001
3.914953e+003,1.213366e-001
3.918810e+003,1.184255e-001
3.922667e+003,1.205433e-001
3.926524e+003,1.198048e-001
3.930381e+003,1.158265e-001
3.934238e+003,1.176422e-001
3.938095e+003,1.229528e-001
3.941952e+003,1.253292e-001
3.945809e+003,1.200151e-001
3.949667e+003,1.142315e-001
3.953523e+003,1.152382e-001
3.957381e+003,1.174575e-001
3.961238e+003,1.187571e-001
3.965095e+003,1.151161e-001
3.968952e+003,1.189041e-001
3.972809e+003,1.233563e-001
3.976666e+003,1.196041e-001
3.980523e+003,1.171715e-001
3.984380e+003,1.183929e-001
3.988237e+003,1.192410e-001
3.992094e+003,1.235417e-001
3.995952e+003,1.238224e-001
3.999809e+003,1.180165e-001
4.003666e+003,1.174966e-001
4.007523e+003,1.197893e-001
4.011380e+003,1.153354e-001
4.015237e+003,1.162323e-001
4.019094e+003,1.226728e-001
4.022951e+003,1.204477e-001
4.026808e+003,1.152323e-001
4.030666e+003,1.176648e-001
4.034522e+003,1.163766e-001
4.038380e+003,1.120551e-001
4.042237e+003,1.093546e-001
4.046094e+003,1.115528e-001
4.049951e+003,1.127470e-001
4.053808e+003,1.135387e-001
4.057665e+003,1.163808e-001
4.061522e+003,1.170460e-001
4.065379e+003,1.151780e-001
4.069236e+003,1.133047e-001
4.073094e+003,1.114109e-001
4.076951e+003,1.126615e-001
4.080808e+003,1.180519e-001
4.084665e+003,1.157069e-001
4.088522e+003,1.115312e-001
4.092379e+003,1.146845e-001
4.096236e+003,1.202178e-001
4.100093e+003,1.197573e-001
4.103950e+003,1.147789e-001
4.107808e+003,1.115525e-001
4.111665e+003,1.153914e-001
4.115521e+003,1.169677e-001
4.119379e+003,1.163763e-001
4.123236e+003,1.151904e-001
4.127093e+003,1.140096e-001
4.130950e+003,1.117715e-001
4.134807e+003,1.092411e-001
4.138664e+003,1.117113e-001
4.142521e+003,1.119652e-001
4.146378e+003,1.074847e-001
4.150235e+003,1.079853e-001
4.154093e+003,1.127471e-001
4.157950e+003,1.136006e-001
4.161807e+003,1.122835e-001
4.165664e+003,1.126250e-001
4.169521e+003,1.159127e-001
4.173378e+003,1.188127e-001
4.177235e+003,1.161592e-001
4.181092e+003,1.119296e-001
4.184949e+003,1.084931e-001
4.188807e+003,1.091552e-001
4.192664e+003,1.133531e-001
4.196521e+003,1.145976e-001
4.200378e+003,1.093348e-001
4.204235e+003,1.047766e-001
4.208092e+003,1.087969e-001
4.211949e+003,1.117644e-001
4.215806e+003,1.089129e-001
4.219663e+003,1.088034e-001
4.223521e+003,1.104171e-001
4.227377e+003,1.143547e-001
4.231234e+003,1.168931e-001
4.235092e+003,1.183712e-001
4.238949e+003,1.166378e-001
4.242806e+003,1.149692e-001
4.246663e+003,1.136433e-001
4.250520e+003,1.095316e-001
4.254377e+003,1.086553e-001
4.258234e+003,1.126796e-001
4.262091e+003,1.112777e-001
4.265948e+003,1.070596e-001
4.269806e+003,1.103189e-001
4.273663e+003,1.121831e-001
4.277520e+003,1.121979e-001
4.281377e+003,1.121041e-001
4.285234e+003,1.149060e-001
4.289091e+003,1.101561e-001
4.292948e+003,1.052572e-001
4.296805e+003,1.134287e-001
4.300662e+003,1.158578e-001
4.304520e+003,1.110377e-001
4.308376e+003,1.123724e-001
4.312233e+003,1.135246e-001
4.316091e+003,1.094958e-001
4.319948e+003,1.084676e-001
4.323805e+003,1.098530e-001
4.327662e+003,1.080106e-001
4.331519e+003,1.103170e-001
4.335376e+003,1.161427e-001
4.339233e+003,1.156830e-001
4.343090e+003,1.117802e-001
4.346947e+003,1.140706e-001
4.350805e+003,1.110536e-001
4.354662e+003,1.067051e-001
4.358519e+003,1.055422e-001
4.362376e+003,1.065418e-001
4.366233e+003,1.070617e-001
4.370090e+003,1.112631e-001
4.373947e+003,1.159122e-001
4.377804e+003,1.169497e-001
4.381661e+003,1.173204e-001
4.385519e+003,1.147829e-001
4.389375e+003,1.093937e-001
4.393232e+003,1.090816e-001
4.397090e+003,1.117032e-001
4.400947e+003,1.177211e-001
4.404804e+003,1.163928e-001
4.408661e+003,1.148383e-001
4.412518e+003,1.172398e-001
4.416375e+003,1.131570e-001
4.420232e+003,1.185971e-001
4.424089e+003,1.237716e-001
4.427946e+003,1.177471e-001
4.431804e+003,1.166835e-001
4.435661e+003,1.179736e-001
4.439518e+003,1.211131e-001
4.443375e+003,1.199938e-001
4.447232e+003,1.140274e-001
4.451089e+003,1.127697e-001
4.454946e+003,1.155290e-001
4.458803e+003,1.193832e-001
4.462660e+003,1.193588e-001
4.466518e+003,1.170414e-001
4.470375e+003,1.178758e-001
4.474231e+003,1.160728e-001
4.478089e+003,1.100801e-001
4.481946e+003,1.082765e-001
4.485803e+003,1.148320e-001
4.489660e+003,1.177064e-001
4.493517e+003,1.175117e-001
4.497375e+003,1.115456e-001
4.501231e+003,1.091867e-001
4.505088e+003,1.151260e-001
4.508946e+003,1.254483e-001
4.512803e+003,1.259348e-001
4.516660e+003,1.223058e-001
4.520517e+003,1.181786e-001
4.524374e+003,1.143620e-001
4.528231e+003,1.082947e-001
4.532088e+003,1.029727e-001
4.535945e+003,1.083195e-001
4.539802e+003,1.169900e-001
4.543660e+003,1.187678e-001
4.547517e+003,1.157795e-001
4.551374e+003,1.096517e-001
4.555231e+003,1.067947e-001
4.559088e+003,1.087608e-001
4.562945e+003,1.155065e-001
4.566802e+003,1.180014e-001
4.570659e+003,1.162439e-001
4.574516e+003,1.147973e-001
4.578374e+003,1.169875e-001
4.582230e+003,1.139963e-001
4.586087e+003,1.073147e-001
4.589945e+003,1.074339e-001
4.593802e+003,1.090995e-001
4.597659e+003,1.067176e-001
4.601516e+003,1.112671e-001
4.605373e+003,1.205054e-001
4.609230e+003,1.189754e-001
4.613087e+003,1.094177e-001
4.616944e+003,1.082037e-001
4.620801e+003,1.167045e-001
4.624659e+003,1.191415e-001
4.628516e+003,1.113698e-001
4.632373e+003,1.079147e-001
4.636230e+003,1.098308e-001
4.640087e+003,1.092391e-001
4.643944e+003,1.156475e-001
4.647801e+003,1.129295e-001
4.651658e+003,1.101084e-001
4.655515e+003,1.162677e-001
4.659373e+003,1.181247e-001
4.663229e+003,1.146378e-001
4.667086e+003,1.115430e-001
4.670944e+003,1.081279e-001
4.674801e+003,1.118532e-001
4.678658e+003,1.132083e-001
4.682515e+003,1.098915e-001
4.686372e+003,1.090443e-001
4.690229e+003,1.064042e-001
4.694086e+003,1.108764e-001
4.697943e+003,1.179487e-001
4.701800e+003,1.161419e-001
4.705658e+003,1.094561e-001
4.709515e+003,1.125315e-001
4.713372e+003,1.141875e-001
4.717229e+003,1.189759e-001
4.721086e+003,1.220097e-001
4.724943e+003,1.161653e-001
4.728800e+003,1.117594e-001
4.732657e+003,1.102325e-001
4.736514e+003,1.111881e-001
4.740372e+003,1.248104e-001
4.744229e+003,1.311831e-001
4.748085e+003,1.238668e-001
4.751943e+003,1.169687e-001
4.755800e+003,1.126393e-001
4.759657e+003,1.106484e-001
4.763514e+003,1.136506e-001
4.767371e+003,1.099002e-001
4.771228e+003,1.121629e-001
4.775085e+003,1.116621e-001
4.778942e+003,9.988268e-002
4.782799e+003,1.024143e-001
4.786657e+003,1.115882e-001
4.790514e+003,1.118985e-001
4.794371e+003,1.116172e-001
4.798228e+003,1.192321e-001
4.802085e+003,1.201646e-001
4.805942e+003,1.170669e-001
4.809799e+003,1.143795e-001
4.813656e+003,1.160772e-001
4.817513e+003,1.138531e-001
4.821371e+003,1.128128e-001
4.825228e+003,1.151845e-001
4.829084e+003,1.126249e-001
4.832942e+003,1.146947e-001
4.836799e+003,1.153178e-001
4.840656e+003,1.144714e-001
4.844513e+003,1.202399e-001
4.848370e+003,1.135588e-001
4.852227e+003,1.149003e-001
4.856084e+003,1.161651e-001
4.859941e+003,1.123113e-001
4.863798e+003,1.099120e-001
4.867656e+003,1.089081e-001
4.871513e+003,1.129692e-001
4.875370e+003,1.191675e-001
4.879227e+003,1.224571e-001
4.883084e+003,1.199275e-001
4.886941e+003,1.156660e-001
4.890798e+003,1.112243e-001
4.894655e+003,1.201353e-001
4.898512e+003,1.239881e-001
4.902370e+003,1.217859e-001
4.906227e+003,1.173691e-001
4.910083e+003,1.118616e-001
4.913941e+003,1.142031e-001
4.917798e+003,1.168677e-001
4.921655e+003,1.162394e-001
4.925512e+003,1.086479e-001
4.929369e+003,1.097592e-001
4.933226e+003,1.175629e-001
4.937083e+003,1.207234e-001
4.940940e+003,1.227616e-001
4.944797e+003,1.204732e-001
4.948655e+003,1.203445e-001
4.952512e+003,1.218299e-001
4.956369e+003,1.166372e-001
4.960226e+003,1.159495e-001
4.964083e+003,1.189330e-001
4.967940e+003,1.226879e-001
4.971797e+003,1.205612e-001
4.975654e+003,1.130927e-001
4.979511e+003,1.109374e-001
4.983369e+003,1.222966e-001
4.987226e+003,1.302051e-001
4.991083e+003,1.243007e-001
4.994940e+003,1.188901e-001
4.998797e+003,1.207552e-001
5.002654e+003,1.236726e-001
5.006511e+003,1.192535e-001
5.010368e+003,1.189227e-001
5.014225e+003,1.217188e-001
5.018083e+003,1.209125e-001
5.021939e+003,1.192318e-001
5.025796e+003,1.192940e-001
5.029654e+003,1.209585e-001
5.033511e+003,1.243854e-001
5.037368e+003,1.270926e-001
5.041225e+003,1.216736e-001
5.045082e+003,1.229298e-001
5.048939e+003,1.265148e-001
5.052796e+003,1.307476e-001
5.056653e+003,1.339434e-001
5.060510e+003,1.327502e-001
5.064368e+003,1.235131e-001
5.068225e+003,1.197675e-001
5.072082e+003,1.215038e-001
5.075939e+003,1.243121e-001
5.079796e+003,1.242606e-001
5.083653e+003,1.232476e-001
5.087510e+003,1.256020e-001
5.091367e+003,1.258613e-001
5.095224e+003,1.167959e-001
5.099082e+003,1.064336e-001
5.102938e+003,1.138890e-001
5.106795e+003,1.245995e-001
5.110653e+003,1.305926e-001
5.114510e+003,1.257874e-001
5.118367e+003,1.176381e-001
5.122224e+003,1.142622e-001
5.126081e+003,1.165580e-001
5.129938e+003,1.300585e-001
5.133795e+003,1.399440e-001
5.137652e+003,1.384728e-001
5.141509e+003,1.278266e-001
5.145367e+003,1.242750e-001
5.149224e+003,1.262037e-001
5.153081e+003,1.313927e-001
5.156938e+003,1.347309e-001
5.160795e+003,1.347066e-001
5.164652e+003,1.382043e-001
5.168509e+003,1.330705e-001
5.172366e+003,1.314154e-001
5.176223e+003,1.294680e-001
5.180081e+003,1.246290e-001
5.183938e+003,1.256545e-001
5.187794e+003,1.297166e-001
5.191652e+003,1.342299e-001
5.195509e+003,1.304621e-001
5.199366e+003,1.287332e-001
5.203223e+003,1.312912e-001
5.207080e+003,1.267294e-001
5.210937e+003,1.220692e-001
5.214794e+003,1.259087e-001
5.218651e+003,1.282263e-001
5.222508e+003,1.276887e-001
5.226366e+003,1.267680e-001
5.230223e+003,1.244091e-001
5.234080e+003,1.301868e-001
5.237937e+003,1.318095e-001
5.241794e+003,1.349232e-001
5.245651e+003,1.337443e-001
5.249508e+003,1.293708e-001
5.253365e+003,1.294997e-001
5.257222e+003,1.211761e-001
5.261080e+003,1.194507e-001
5.264937e+003,1.243095e-001
5.268793e+003,1.271686e-001
5.272651e+003,1.207325e-001
5.276508e+003,1.197628e-001
5.280365e+003,1.263629e-001
5.284222e+003,1.269635e-001
5.288079e+003,1.234190e-001
5.291936e+003,1.287360e-001
5.295793e+003,1.273578e-001
5.299650e+003,1.188948e-001
5.303507e+003,1.091285e-001
5.307365e+003,1.091753e-001
5.311222e+003,1.155163e-001
5.315079e+003,1.195300e-001
5.318936e+003,1.205916e-001
5.322793e+003,1.261697e-001
5.326650e+003,1.320607e-001
5.330507e+003,1.263365e-001
5.334364e+003,1.212803e-001
5.338221e+003,1.240812e-001
5.342079e+003,1.302608e-001
5.345936e+003,1.244878e-001
5.349792e+003,1.297357e-001
5.353650e+003,1.263376e-001
5.357507e+003,1.149995e-001
5.361364e+003,1.216205e-001
5.365221e+003,1.348763e-001
5.369078e+003,1.463103e-001
5.372935e+003,1.406634e-001
5.376792e+003,1.291582e-001
5.380649e+003,1.234540e-001
5.384506e+003,1.190869e-001
5.388364e+003,1.238912e-001
5.392221e+003,1.277858e-001
5.396078e+003,1.289791e-001
5.399935e+003,1.277604e-001
5.403792e+003,1.227119e-001
5.407649e+003,1.170706e-001
5.411506e+003,1.156700e-001
5.415363e+003,1.283179e-001
5.419220e+003,1.375842e-001
5.423078e+003,1.329873e-001
5.426935e+003,1.258110e-001
5.430792e+003,1.268930e-001
5.434649e+003,1.246541e-001
5.438506e+003,1.281253e-001
5.442363e+003,1.299589e-001
5.446220e+003,1.336510e-001
5.450077e+003,1.346181e-001
5.453934e+003,1.262796e-001
5.457792e+003,1.200515e-001
5.461648e+003,1.248927e-001
5.465505e+003,1.287043e-001
5.469363e+003,1.327552e-001
5.473220e+003,1.353375e-001
5.477077e+003,1.394985e-001
5.480934e+003,1.414955e-001
5.484791e+003,1.378616e-001
5.488648e+003,1.338188e-001
5.492505e+003,1.273154e-001
5.496362e+003,1.238169e-001
5.500219e+003,1.192952e-001
5.504077e+003,1.131784e-001
5.507934e+003,1.146218e-001
5.511791e+003,1.134861e-001
5.515648e+003,1.090476e-001
5.519505e+003,1.185021e-001
5.523362e+003,1.272829e-001
5.527219e+003,1.297376e-001
5.531076e+003,1.309497e-001
5.534933e+003,1.318286e-001
5.538791e+003,1.287264e-001
5.542647e+003,1.324013e-001
5.546504e+003,1.296448e-001
5.550362e+003,1.282276e-001
5.554219e+003,1.334741e-001
5.558076e+003,1.370093e-001
5.561933e+003,1.412125e-001
5.565790e+003,1.391105e-001
5.569647e+003,1.328526e-001
5.573504e+003,1.311775e-001
5.577361e+003,1.345868e-001
5.581218e+003,1.400929e-001
5.585076e+003,1.331495e-001
5.588933e+003,1.214975e-001
5.592790e+003,1.353134e-001
5.596647e+003,1.450406e-001
5.600504e+003,1.386544e-001
5.604361e+003,1.361865e-001
5.608218e+003,1.327862e-001
5.612075e+003,1.271233e-001
5.615932e+003,1.320140e-001
5.619790e+003,1.316069e-001
5.623646e+003,1.318439e-001
5.627503e+003,1.325018e-001
5.631361e+003,1.334658e-001
5.635218e+003,1.290334e-001
5.639075e+003,1.333017e-001
5.642932e+003,1.409139e-001
5.646789e+003,1.448864e-001
5.650646e+003,1.440832e-001
5.654503e+003,1.347158e-001
5.658360e+003,1.260788e-001
5.662217e+003,1.281953e-001
5.666075e+003,1.311385e-001
5.669932e+003,1.337882e-001
5.673789e+003,1.319039e-001
5.677646e+003,1.293540e-001
5.681503e+003,1.279137e-001
5.685360e+003,1.255971e-001
5.689217e+003,1.271651e-001
5.693074e+003,1.311011e-001
5.696931e+003,1.332708e-001
5.700789e+003,1.301315e-001
5.704646e+003,1.250291e-001
5.708502e+003,1.262670e-001
5.712360e+003,1.257668e-001
5.716217e+003,1.289847e-001
5.720074e+003,1.370812e-001
5.723931e+003,1.348349e-001
5.727788e+003,1.317638e-001
5.731645e+003,1.325892e-001
5.735502e+003,1.311462e-001
5.739359e+003,1.216361e-001
5.743216e+003,1.180076e-001
5.747074e+003,1.197664e-001
5.750931e+003,1.304778e-001
5.754788e+003,1.319587e-001
5.758645e+003,1.338858e-001
5.762502e+003,1.353761e-001
5.766359e+003,1.278827e-001
5.770216e+003,1.246873e-001
5.774073e+003,1.277884e-001
5.777930e+003,1.303729e-001
5.781788e+003,1.332428e-001
5.785645e+003,1.358591e-001
5.789501e+003,1.314118e-001
5.793359e+003,1.309536e-001
5.797216e+003,1.337948e-001
5.801073e+003,1.384342e-001
5.804930e+003,1.468479e-001
5.808787e+003,1.437109e-001
5.812644e+003,1.364156e-001
5.816501e+003,1.285590e-001
5.820358e+003,1.320460e-001
5.824215e+003,1.265079e-001
5.828073e+003,1.197663e-001
5.831930e+003,1.224627e-001
5.835787e+003,1.296136e-001
5.839644e+003,1.383833e-001
5.843501e+003,1.264303e-001
5.847358e+003,1.168535e-001
5.851215e+003,1.260580e-001
5.855072e+003,1.378771e-001
5.858929e+003,1.309557e-001
5.862787e+003,1.272818e-001
5.866644e+003,1.299214e-001
5.870500e+003,1.331071e-001
5.874358e+003,1.391441e-001
5.878215e+003,1.307436e-001
5.882072e+003,1.223038e-001
5.885929e+003,1.320637e-001
5.889786e+003,1.412612e-001
5.893643e+003,1.390996e-001
5.897500e+003,1.414003e-001
5.901357e+003,1.372278e-001
5.905214e+003,1.320473e-001
5.909072e+003,1.335252e-001
5.912929e+003,1.271652e-001
5.916786e+003,1.383782e-001
5.920643e+003,1.521432e-001
5.924500e+003,1.404105e-001
5.928357e+003,1.299396e-001
5.932214e+003,1.393208e-001
5.936071e+003,1.364631e-001
5.939928e+003,1.334970e-001
5.943786e+003,1.315166e-001
5.947643e+003,1.242525e-001
5.951500e+003,1.331420e-001
5.955357e+003,1.410749e-001
5.959214e+003,1.424260e-001
5.963071e+003,1.359213e-001
5.966928e+003,1.343237e-001
5.970785e+003,1.364174e-001
5.974642e+003,1.415141e-001
5.978500e+003,1.473015e-001
5.982356e+003,1.371930e-001
5.986213e+003,1.340697e-001
5.990071e+003,1.361308e-001
5.993928e+003,1.357383e-001
5.997785e+003,1.344637e-001
6.001642e+003,1.325309e-001
6.005499e+003,1.272657e-001
6.009356e+003,1.169232e-001
6.013213e+003,1.148113e-001
6.017070e+003,1.251964e-001
6.020927e+003,1.346274e-001
6.024785e+003,1.292522e-001
6.028642e+003,1.216482e-001
6.032499e+003,1.156701e-001
6.036356e+003,1.222386e-001
6.040213e+003,1.295188e-001
6.044070e+003,1.317767e-001
6.047927e+003,1.300235e-001
6.051784e+003,1.306976e-001
6.055641e+003,1.403855e-001
6.059499e+003,1.292545e-001
6.063355e+003,1.106962e-001
6.067212e+003,1.142027e-001
6.071070e+003,1.297223e-001
6.074927e+003,1.359705e-001
6.078784e+003,1.466155e-001
6.082641e+003,1.477928e-001
6.086498e+003,1.400760e-001
6.090355e+003,1.468613e-001
6.094212e+003,1.407054e-001
6.098069e+003,1.421556e-001
6.101926e+003,1.446698e-001
6.105784e+003,1.354937e-001
6.109641e+003,1.300762e-001
6.113498e+003,1.348227e-001
6.117355e+003,1.309692e-001
6.121212e+003,1.303823e-001
6.125069e+003,1.417837e-001
6.128926e+003,1.446910e-001
6.132783e+003,1.319950e-001
6.136640e+003,1.247406e-001
6.140498e+003,1.216917e-001
6.144354e+003,1.183377e-001
6.148211e+003,1.328558e-001
6.152069e+003,1.417226e-001
6.155926e+003,1.354878e-001
6.159783e+003,1.319067e-001
6.163640e+003,1.361381e-001
6.167497e+003,1.325947e-001
6.171354e+003,1.201307e-001
6.175211e+003,1.087314e-001
6.179068e+003,1.183100e-001
6.182925e+003,1.248998e-001
6.186783e+003,1.279728e-001
6.190640e+003,1.249889e-001
6.194497e+003,1.467233e-001
6.198354e+003,1.552678e-001
6.202211e+003,1.384379e-001
6.206068e+003,1.305737e-001
6.209925e+003,1.277794e-001
6.213782e+003,1.241295e-001
6.217639e+003,1.121813e-001
6.221497e+003,1.151898e-001
6.225354e+003,1.257849e-001
6.229210e+003,1.205216e-001
6.233068e+003,1.235427e-001
6.236925e+003,1.332571e-001
6.240782e+003,1.209244e-001
6.244639e+003,1.022058e-001
6.248496e+003,1.108415e-001
6.252353e+003,1.267804e-001
6.256210e+003,1.381537e-001
6.260067e+003,1.408170e-001
6.263924e+003,1.324416e-001
6.267782e+003,1.297906e-001
6.271639e+003,1.424005e-001
6.275496e+003,1.480846e-001
6.279353e+003,1.388754e-001
6.283210e+003,1.398730e-001
6.287067e+003,1.488406e-001
6.290924e+003,1.601136e-001
6.294781e+003,1.600317e-001
6.298638e+003,1.528760e-001
6.302496e+003,1.410882e-001
6.306353e+003,1.397645e-001
6.310209e+003,1.437528e-001
6.314067e+003,1.401497e-001
6.317924e+003,1.426358e-001
6.321781e+003,1.359217e-001
6.325638e+003,1.447351e-001
6.329495e+003,1.462215e-001
6.333352e+003,1.353690e-001
6.337209e+003,1.229819e-001
6.341066e+003,1.343375e-001
6.344923e+003,1.497710e-001
6.348780e+003,1.414716e-001
6.352638e+003,1.309569e-001
6.356495e+003,1.235148e-001
6.360352e+003,1.157143e-001
6.364209e+003,1.364101e-001
6.368066e+003,1.585688e-001
6.371923e+003,1.550774e-001
6.375780e+003,1.423706e-001
6.379637e+003,1.423726e-001
6.383494e+003,1.457810e-001
6.387352e+003,1.451569e-001
6.391208e+003,1.382532e-001
6.395065e+003,1.367663e-001
6.398923e+003,1.320579e-001
6.402780e+003,1.280437e-001
6.406637e+003,1.366978e-001
6.410494e+003,1.487430e-001
6.414351e+003,1.547085e-001
6.418208e+003,1.556431e-001
6.422065e+003,1.402033e-001
6.425922e+003,1.289536e-001
6.429779e+003,1.241543e-001
6.433637e+003,1.260094e-001
6.437494e+003,1.398203e-001
6.441351e+003,1.402456e-001
6.445208e+003,1.282120e-001
6.449065e+003,1.223009e-001
6.452922e+003,1.272837e-001
6.456779e+003,1.201737e-001
6.460636e+003,1.207551e-001
6.464493e+003,1.385565e-001
6.468351e+003,1.452116e-001
6.472208e+003,1.381572e-001
6.476064e+003,1.241350e-001
6.479922e+003,1.326063e-001
6.483779e+003,1.473842e-001
6.487636e+003,1.508945e-001
6.491493e+003,1.386876e-001
6.495350e+003,1.259990e-001
6.499207e+003,1.349900e-001
6.503064e+003,1.495347e-001
6.506921e+003,1.415830e-001
6.510778e+003,1.383298e-001
6.514636e+003,1.447510e-001
6.518493e+003,1.251909e-001
6.522350e+003,1.227917e-001
6.526207e+003,1.319376e-001
6.530064e+003,1.273366e-001
6.533921e+003,1.350997e-001
6.537778e+003,1.414338e-001
6.541635e+003,1.558124e-001
6.545492e+003,1.552080e-001
6.549350e+003,1.268567e-001
6.553207e+003,1.145443e-001
6.557063e+003,1.199407e-001
6.560921e+003,1.373129e-001
6.564778e+003,1.481989e-001
6.568635e+003,1.299122e-001
6.572492e+003,1.188498e-001
6.576349e+003,1.179549e-001
6.580206e+003,1.116171e-001
6.584063e+003,1.204670e-001
6.587920e+003,1.330280e-001
6.591777e+003,1.460610e-001
6.595635e+003,1.606667e-001
6.599492e+003,1.481074e-001
6.603349e+003,1.538124e-001
6.607206e+003,1.704661e-001
6.611063e+003,1.540084e-001
6.614920e+003,1.421229e-001
6.618777e+003,1.345891e-001
6.622634e+003,1.154732e-001
6.626491e+003,1.301183e-001
6.630349e+003,1.614663e-001
6.634206e+003,1.623802e-001
6.638063e+003,1.464912e-001
6.641920e+003,1.381965e-001
6.645777e+003,1.329555e-001
6.649634e+003,1.313390e-001
6.653491e+003,1.522747e-001
6.657348e+003,1.439312e-001
6.661205e+003,1.219381e-001
6.665063e+003,1.426829e-001
6.668919e+003,1.710112e-001
6.672776e+003,1.607979e-001
6.676634e+003,1.425116e-001
6.680491e+003,1.446166e-001
6.684348e+003,1.465483e-001
6.688205e+003,1.468334e-001
6.692062e+003,1.447786e-001
6.695919e+003,1.197102e-001
6.699776e+003,1.045469e-001
6.703633e+003,1.106984e-001
6.707490e+003,1.250302e-001
6.711348e+003,1.343712e-001
6.715205e+003,1.479464e-001
6.719062e+003,1.439878e-001
6.722919e+003,1.319054e-001
6.726776e+003,1.406817e-001
6.730633e+003,1.484978e-001
6.734490e+003,1.504312e-001
6.738347e+003,1.426565e-001
6.742204e+003,1.529189e-001
6.746062e+003,1.521210e-001
6.749918e+003,1.442806e-001
6.753775e+003,1.414257e-001
6.757633e+003,1.559225e-001
6.761490e+003,1.537746e-001
6.765347e+003,1.209649e-001
6.769204e+003,1.096849e-001
6.773061e+003,1.372283e-001
6.776918e+003,1.493204e-001
6.780775e+003,1.056714e-001
6.784632e+003,1.037463e-001
6.788489e+003,1.585455e-001
6.792347e+003,1.709556e-001
6.796204e+003,1.363694e-001
6.800061e+003,1.267172e-001
6.803918e+003,1.631060e-001
6.807775e+003,1.896003e-001
6.811632e+003,2.010080e-001
6.815489e+003,2.087286e-001
6.819346e+003,1.854380e-001
6.823203e+003,1.526828e-001
6.827061e+003,1.275399e-001
6.830917e+003,1.382556e-001
6.834774e+003,1.311769e-001
6.838632e+003,1.316445e-001
6.842489e+003,1.405915e-001
6.846346e+003,1.456749e-001
6.850203e+003,1.418568e-001
6.854060e+003,1.354985e-001
6.857917e+003,1.067555e-001
6.861774e+003,8.904791e-002
6.865631e+003,1.144228e-001
6.869488e+003,1.338959e-001
6.873346e+003,1.416028e-001
6.877203e+003,1.505805e-001
6.881060e+003,1.513448e-001
6.884917e+003,1.529566e-001
6.888774e+003,1.448917e-001
6.892631e+003,1.199747e-001
6.896488e+003,1.257866e-001
6.900345e+003,1.481549e-001
6.904202e+003,1.633915e-001
6.908060e+003,1.773383e-001
6.911917e+003,1.726491e-001
6.915773e+003,1.660333e-001
6.919631e+003,1.597258e-001
6.923488e+003,1.541263e-001
6.927345e+003,1.482881e-001
6.931202e+003,1.667840e-001
6.935059e+003,1.919471e-001
6.938916e+003,1.774188e-001
6.942773e+003,1.528661e-001
6.946630e+003,1.296280e-001
6.950487e+003,1.190308e-001
6.954345e+003,1.183287e-001
6.958202e+003,1.300891e-001
6.962059e+003,1.366161e-001
6.965916e+003,1.383255e-001
6.969773e+003,1.204795e-001
6.973630e+003,1.077618e-001
6.977487e+003,1.300836e-001
6.981344e+003,1.680960e-001
6.985201e+003,1.548029e-001
6.989059e+003,1.282726e-001
6.992916e+003,1.437258e-001
6.996772e+003,1.787503e-001
7.000630e+003,1.803789e-001
7.004487e+003,1.596882e-001
7.008344e+003,1.709044e-001
7.012201e+003,1.887614e-001
7.016058e+003,1.766746e-001
7.019915e+003,1.533368e-001
7.023772e+003,1.308211e-001
7.027629e+003,1.107571e-001
7.031486e+003,1.153602e-001
7.035344e+003,1.176768e-001
7.039201e+003,1.317718e-001
7.043058e+003,1.827067e-001
7.046915e+003,1.986977e-001
7.050772e+003,1.788492e-001
7.054629e+003,1.524812e-001
7.058486e+003,1.495656e-001
7.062343e+003,1.511970e-001
7.066200e+003,1.392820e-001
7.070058e+003,1.557051e-001
7.073915e+003,1.527214e-001
7.077771e+003,1.738424e-001
7.081629e+003,1.740236e-001
7.085486e+003,1.675430e-001
7.089343e+003,1.703110e-001
7.093200e+003,1.972025e-001
7.097057e+003,1.952213e-001
7.100914e+003,1.376615e-001
7.104771e+003,1.250215e-001
7.108628e+003,1.302729e-001
7.112485e+003,1.520181e-001
7.116343e+003,1.815733e-001
7.120200e+003,1.699051e-001
7.124057e+003,1.552218e-001
7.127914e+003,1.541861e-001
7.131771e+003,1.526446e-001
7.135628e+003,1.463750e-001
7.139485e+003,1.540850e-001
7.143342e+003,1.464892e-001
7.147199e+003,1.250004e-001
7.151057e+003,1.199321e-001
7.154914e+003,1.575123e-001
7.158771e+003,1.955082e-001
7.162628e+003,1.961710e-001
7.166485e+003,1.909213e-001
7.170342e+003,2.042003e-001
7.174199e+003,1.952760e-001
7.178056e+003,1.856043e-001
7.181913e+003,1.791903e-001
7.185771e+003,1.598385e-001
7.189627e+003,1.809018e-001
7.193484e+003,1.650588e-001
7.197342e+003,1.362975e-001
7.201199e+003,1.245855e-001
7.205056e+003,1.375833e-001
7.208913e+003,1.594939e-001
7.212770e+003,1.671182e-001
7.216627e+003,1.642493e-001
7.220484e+003,1.651389e-001
7.224341e+003,1.400711e-001
7.228198e+003,1.398864e-001
7.232056e+003,1.712406e-001
7.235913e+003,1.762569e-001
7.239770e+003,1.557068e-001
7.243627e+003,1.545837e-001
7.247484e+003,1.408820e-001
7.251341e+003,1.051747e-001
7.255198e+003,1.430233e-001
7.259055e+003,2.227274e-001
7.262912e+003,2.502502e-001
7.266770e+003,2.206229e-001
7.270626e+003,1.948612e-001
7.274483e+003,1.785010e-001
7.278341e+003,1.726058e-001
7.282198e+003,1.555483e-001
7.286055e+003,1.454028e-001
7.289912e+003,1.483713e-001
7.293769e+003,1.762480e-001
7.297626e+003,1.680226e-001
7.301483e+003,1.122366e-001
7.305340e+003,1.357736e-001
7.309197e+003,1.912852e-001
7.313055e+003,1.985423e-001
7.316912e+003,1.889235e-001
7.320769e+003,1.734236e-001
7.324626e+003,1.307205e-001
7.328483e+003,9.812953e-002
7.332340e+003,1.041802e-001
7.336197e+003,9.522568e-002
7.340054e+003,1.039790e-001
7.343911e+003,1.165725e-001
7.347769e+003,1.422142e-001
7.351625e+003,1.762582e-001
7.355482e+003,1.460428e-001
7.359340e+003,1.148324e-001
7.363197e+003,1.125397e-001
7.367054e+003,1.151701e-001
7.370911e+003,1.484028e-001
7.374768e+003,1.614599e-001
7.378625e+003,1.173858e-001
7.382482e+003,1.123616e-001
7.386339e+003,1.474903e-001
7.390196e+003,1.393624e-001
7.394054e+003,1.296341e-001
7.397911e+003,1.326952e-001
7.401768e+003,1.232941e-001
7.405625e+003,1.011987e-001
7.409482e+003,1.099071e-001
7.413339e+003,1.268689e-001
7.417196e+003,1.448154e-001
7.421053e+003,1.619432e-001
7.424910e+003,1.514499e-001
7.428768e+003,1.526187e-001
7.432625e+003,1.623483e-001
7.436481e+003,1.453480e-001
7.440339e+003,1.381452e-001
7.444196e+003,1.286015e-001
7.448053e+003,1.301191e-001
7.451910e+003,1.303747e-001
7.455767e+003,1.662016e-001
7.459624e+003,1.966495e-001
7.463481e+003,1.750903e-001
7.467338e+003,1.180025e-001
7.471195e+003,7.932555e-002
7.475053e+003,1.240649e-001
7.478910e+003,1.364816e-001
7.482767e+003,1.131435e-001
7.486624e+003,1.161440e-001
7.490481e+003,1.179409e-001
7.494338e+003,1.206447e-001
7.498195e+003,1.103300e-001
7.502052e+003,1.210321e-001
7.505909e+003,1.484207e-001
7.509767e+003,1.239635e-001
7.513624e+003,9.601768e-002
7.517480e+003,1.394332e-001
7.521338e+003,2.106894e-001
7.525195e+003,1.994422e-001
7.529052e+003,1.738069e-001
7.532909e+003,1.202870e-001
7.536766e+003,1.078739e-001
7.540623e+003,1.163271e-001
7.544480e+003,1.077096e-001
7.548337e+003,7.801642e-002
7.552194e+003,4.856586e-002
7.556052e+003,1.096583e-001
7.559909e+003,1.781683e-001
7.563766e+003,1.946145e-001
7.567623e+003,2.045383e-001
7.571480e+003,1.356556e-001
7.575337e+003,7.852548e-002
7.579194e+003,9.432066e-002
7.583051e+003,1.228598e-001
7.586908e+003,1.282368e-001
7.590766e+003,1.496821e-001
7.594623e+003,1.051462e-001
7.598479e+003,4.555719e-002
7.602337e+003,6.331950e-002
7.606194e+003,1.255236e-001
7.610051e+003,1.747930e-001
7.613908e+003,2.039109e-001
7.617765e+003,1.812405e-001
7.621622e+003,1.484493e-001
7.625479e+003,7.976341e-002
7.629336e+003,9.305505e-002
7.633193e+003,2.511039e-001
7.637051e+003,2.301396e-001
7.640908e+003,7.551935e-002
7.644765e+003,6.168094e-002
7.648622e+003,1.336736e-001
7.652479e+003,1.668981e-001
7.656336e+003,1.404034e-001
7.660193e+003,1.801301e-001
7.664050e+003,1.878334e-001
7.667907e+003,1.397495e-001
7.671765e+003,1.003983e-001
7.675622e+003,8.707707e-002
7.679479e+003,9.926830e-002
7.683336e+003,1.291263e-001
7.687193e+003,1.534492e-001
7.691050e+003,1.212199e-001
7.694907e+003,1.533115e-001
7.698764e+003,1.639777e-001
7.702621e+003,9.534485e-002
7.706479e+003,1.404877e-001
7.710335e+003,1.786564e-001
7.714192e+003,1.804617e-001
7.718050e+003,1.699243e-001
7.721907e+003,1.131853e-001
7.725764e+003,9.330598e-002
7.729621e+003,8.067902e-002
7.733478e+003,1.066578e-001
7.737335e+003,1.452744e-001
7.741192e+003,1.493597e-001
7.745049e+003,1.463265e-001
7.748906e+003,1.818678e-001
7.752764e+003,1.148030e-001
7.756621e+003,5.052687e-002
7.760478e+003,9.069240e-002
7.764335e+003,1.392325e-001
7.768192e+003,1.532156e-001
7.772049e+003,2.222737e-001
7.775906e+003,1.738950e-001
7.779763e+003,1.003182e-001
7.783620e+003,1.145739e-001
7.787478e+003,1.303641e-001
7.791334e+003,1.623658e-001
7.795191e+003,1.501253e-001
7.799049e+003,1.224378e-001
7.802906e+003,1.227469e-001
7.806763e+003,1.538636e-001
7.810620e+003,1.888099e-001
7.814477e+003,1.618719e-001
7.818334e+003,7.946792e-002
7.822191e+003,8.151853e-002
7.826048e+003,1.677812e-001
7.829905e+003,2.588345e-001
7.833763e+003,2.074117e-001
7.837620e+003,1.750180e-001
7.841477e+003,1.097227e-001
7.845334e+003,5.682447e-002
7.849191e+003,9.309983e-002
7.853048e+003,1.539625e-001
7.856905e+003,1.260268e-001
7.860762e+003,1.952635e-002
7.864619e+003,-1.841042e-002
7.868477e+003,6.135957e-002
7.872333e+003,1.019653e-001
7.876190e+003,1.622459e-001
7.880048e+003,1.825070e-001
7.883905e+003,1.556053e-001
7.887762e+003,1.136999e-001
7.891619e+003,9.934960e-002
7.895476e+003,2.051864e-001
7.899333e+003,2.079214e-001
7.903190e+003,1.220638e-001
7.907047e+003,1.888500e-001
7.910904e+003,2.013275e-001
7.914762e+003,1.690490e-001
7.918619e+003,1.906750e-001
7.922476e+003,1.348331e-001
7.926333e+003,9.578500e-002
7.930190e+003,3.301597e-002
7.934047e+003,8.018161e-002
7.937904e+003,1.576987e-001
7.941761e+003,1.436465e-001
7.945618e+003,1.653510e-001
7.949476e+003,1.887073e-001
7.953333e+003,1.258369e-001
7.957189e+003,9.694638e-002
7.961047e+003,4.044370e-002
7.964904e+003,9.739412e-002
7.968761e+003,2.500834e-001
7.972618e+003,3.098682e-001
7.976475e+003,1.506546e-001
7.980332e+003,9.232003e-004
7.984189e+003,1.046264e-001
7.988046e+003,2.044721e-001
7.991903e+003,1.287802e-001
7.995761e+003,8.670739e-002
7.999618e+003,8.993560e-002
