4.011380e+002,2.034844e-001
4.049951e+002,3.422382e-001
4.088522e+002,-4.607450e-001
4.127093e+002,5.509447e-002
4.165664e+002,1.387326e-001
4.204235e+002,-6.137635e-001
4.242806e+002,-5.089166e-001
4.281377e+002,-3.260305e-001
4.319948e+002,4.623157e-001
4.358519e+002,6.000000e+000
4.397090e+002,6.000000e+000
4.435661e+002,6.000000e+000
4.474232e+002,6.000000e+000
4.512803e+002,6.000000e+000
4.551374e+002,-1.841692e-001
4.589945e+002,6.000000e+000
4.628516e+002,-1.033754e+000
4.667087e+002,6.000000e+000
4.705658e+002,6.000000e+000
4.744229e+002,6.000000e+000
4.782800e+002,-1.126263e+000
4.821371e+002,-5.424375e-002
4.859941e+002,-8.270591e-003
4.898513e+002,-8.956458e-002
4.937083e+002,6.000000e+000
4.975654e+002,-1.248456e+000
5.014225e+002,6.000000e+000
5.052796e+002,-1.659284e+000
5.091367e+002,6.000000e+000
5.129938e+002,6.000000e+000
5.168509e+002,-5.710445e-002
5.207080e+002,6.000000e+000
5.245651e+002,6.000000e+000
5.284222e+002,6.000000e+000
5.322793e+002,1.035829e+000
5.361364e+002,7.277812e-001
5.399935e+002,5.720768e-001
5.438506e+002,-1.513991e+000
5.477077e+002,-1.024107e+000
5.515648e+002,6.000000e+000
5.554219e+002,6.000000e+000
5.592790e+002,-1.100398e-002
5.631361e+002,6.000000e+000
5.669932e+002,6.000000e+000
5.708503e+002,6.072141e-001
5.747074e+002,6.000000e+000
5.785645e+002,2.426741e-001
5.824216e+002,-5.626029e-001
5.862787e+002,-2.173012e-001
5.901357e+002,6.000000e+000
5.939929e+002,-9.416138e-002
5.978499e+002,6.000000e+000
6.017070e+002,6.000000e+000
6.055641e+002,-9.291250e-001
6.094212e+002,-7.406738e-001
6.132783e+002,6.000000e+000
6.171354e+002,6.000000e+000
6.209925e+002,4.721413e-001
6.248496e+002,6.000000e+000
6.287067e+002,6.000000e+000
6.325638e+002,-2.022395e-001
6.364209e+002,8.104532e-001
6.402780e+002,6.530520e-001
6.441351e+002,-2.913911e-002
6.479922e+002,3.183104e-001
6.518493e+002,3.323698e-001
6.557064e+002,8.318132e-001
6.595635e+002,6.000000e+000
6.634205e+002,6.000000e+000
6.672777e+002,6.000000e+000
6.711348e+002,6.000000e+000
6.749918e+002,6.000000e+000
6.788490e+002,6.000000e+000
6.827061e+002,1.912581e+000
6.865631e+002,6.000000e+000
6.904203e+002,6.000000e+000
6.942773e+002,-8.968643e-001
6.981344e+002,-3.448533e-002
7.019916e+002,1.515342e-001
7.058486e+002,-1.364724e-001
7.097057e+002,1.153007e-001
7.135629e+002,1.708835e-001
7.174199e+002,-6.538634e-001
7.212770e+002,-1.313092e+000
7.251342e+002,6.000000e+000
7.289912e+002,6.000000e+000
7.328483e+002,2.416717e-001
7.367054e+002,-1.682629e-001
7.405625e+002,-8.792098e-001
7.444196e+002,6.000000e+000
7.482767e+002,4.527440e-001
7.521338e+002,6.000000e+000
7.559908e+002,-1.129632e+000
7.598480e+002,8.121054e-001
7.637051e+002,6.000000e+000
7.675621e+002,6.000000e+000
7.714193e+002,6.000000e+000
7.752764e+002,6.000000e+000
7.791334e+002,6.000000e+000
7.829905e+002,6.000000e+000
7.868477e+002,-4.197408e-001
7.907047e+002,-6.212243e-002
7.945618e+002,-1.425965e-001
7.984189e+002,-1.331176e-001
8.022760e+002,-2.098112e+000
8.061331e+002,6.000000e+000
8.099902e+002,6.000000e+000
8.138473e+002,6.000000e+000
8.177044e+002,6.000000e+000
8.215615e+002,6.000000e+000
8.254186e+002,6.000000e+000
8.292757e+002,6.000000e+000
8.331328e+002,1.849896e+000
8.369899e+002,6.266459e-001
8.408470e+002,5.980107e-001
8.447041e+002,6.549407e-001
8.485612e+002,8.265825e-001
8.524183e+002,1.516233e+000
8.562754e+002,6.000000e+000
8.601324e+002,1.556170e+000
8.639896e+002,1.396173e+000
8.678467e+002,1.449216e+000
8.717037e+002,1.096524e+000
8.755609e+002,1.292726e+000
8.794180e+002,6.000000e+000
8.832750e+002,2.340112e+000
8.871321e+002,6.000000e+000
8.909893e+002,6.000000e+000
8.948463e+002,1.870892e+000
8.987034e+002,2.364758e+000
9.025605e+002,1.949283e+000
9.064176e+002,2.115007e+000
9.102747e+002,6.000000e+000
9.141318e+002,6.000000e+000
9.179889e+002,6.000000e+000
9.218461e+002,2.292971e+000
9.257031e+002,1.496181e+000
9.295602e+002,1.724126e+000
9.334174e+002,2.481981e+000
9.372744e+002,1.627420e+000
9.411315e+002,1.865722e+000
9.449886e+002,2.113896e+000
9.488457e+002,2.097880e+000
9.527028e+002,1.792945e+000
9.565599e+002,1.839281e+000
9.604170e+002,2.007470e+000
9.642740e+002,1.578474e+000
9.681312e+002,1.528953e+000
9.719883e+002,6.000000e+000
9.758453e+002,6.000000e+000
9.797025e+002,2.743658e+000
9.835596e+002,2.349876e+000
9.874166e+002,3.091362e+000
9.912738e+002,6.000000e+000
9.951309e+002,2.258769e+000
9.989879e+002,2.203943e+000
1.002845e+003,6.000000e+000
1.006702e+003,6.000000e+000
1.010559e+003,2.086978e+000
1.014416e+003,2.109351e+000
1.018273e+003,1.910101e+000
1.022130e+003,1.691470e+000
1.025988e+003,1.851367e+000
1.029845e+003,1.860623e+000
1.033702e+003,1.748131e+000
1.037559e+003,1.735689e+000
1.041416e+003,1.741412e+000
1.045273e+003,1.802248e+000
1.049130e+003,1.892258e+000
1.052987e+003,1.883326e+000
1.056844e+003,1.733914e+000
1.060702e+003,1.791063e+000
1.064559e+003,1.793550e+000
1.068416e+003,1.653529e+000
1.072273e+003,1.611686e+000
1.076130e+003,1.595534e+000
1.079987e+003,1.687404e+000
1.083844e+003,1.757966e+000
1.087701e+003,1.713700e+000
1.091558e+003,1.595165e+000
1.095415e+003,1.516240e+000
1.099272e+003,1.480560e+000
1.103130e+003,1.454005e+000
1.106987e+003,1.488549e+000
1.110844e+003,1.522923e+000
1.114701e+003,1.502547e+000
1.118558e+003,1.461656e+000
1.122415e+003,1.396866e+000
1.126272e+003,1.361373e+000
1.130129e+003,1.341358e+000
1.133986e+003,1.353048e+000
1.137843e+003,1.371541e+000
1.141701e+003,1.359341e+000
1.145558e+003,1.392800e+000
1.149415e+003,1.487046e+000
1.153272e+003,1.490134e+000
1.157129e+003,1.408725e+000
1.160986e+003,1.359234e+000
1.164843e+003,1.357486e+000
1.168700e+003,1.389801e+000
1.172557e+003,1.372833e+000
1.176414e+003,1.358710e+000
1.180271e+003,1.358931e+000
1.184129e+003,1.353210e+000
1.187986e+003,1.348788e+000
1.191843e+003,1.341162e+000
1.195700e+003,1.360246e+000
1.199557e+003,1.414518e+000
1.203414e+003,1.366458e+000
1.207271e+003,1.283567e+000
1.211128e+003,1.265833e+000
1.214985e+003,1.222788e+000
1.218842e+003,1.142188e+000
1.222699e+003,1.072501e+000
1.226557e+003,1.003186e+000
1.230414e+003,9.351547e-001
1.234271e+003,8.821471e-001
1.238128e+003,8.472401e-001
1.241985e+003,7.978740e-001
1.245842e+003,7.480801e-001
1.249699e+003,7.106875e-001
1.253556e+003,6.796522e-001
1.257413e+003,6.624081e-001
1.261271e+003,6.402395e-001
1.265128e+003,6.156302e-001
1.268985e+003,5.977188e-001
1.272842e+003,5.828984e-001
1.276699e+003,5.658906e-001
1.280556e+003,5.512043e-001
1.284413e+003,5.395603e-001
1.288270e+003,5.296939e-001
1.292127e+003,5.190943e-001
1.295984e+003,5.061339e-001
1.299841e+003,4.892119e-001
1.303698e+003,4.771290e-001
1.307556e+003,4.686041e-001
1.311413e+003,4.639416e-001
1.315270e+003,4.575120e-001
1.319127e+003,4.494658e-001
1.322984e+003,4.434345e-001
1.326841e+003,4.397235e-001
1.330698e+003,4.366745e-001
1.334555e+003,4.327103e-001
1.338412e+003,4.309235e-001
1.342270e+003,4.290271e-001
1.346127e+003,4.285784e-001
1.349984e+003,4.288384e-001
1.353841e+003,4.250278e-001
1.357698e+003,4.212459e-001
1.361555e+003,4.254047e-001
1.365412e+003,4.260750e-001
1.369269e+003,4.276302e-001
1.373126e+003,4.343345e-001
1.376983e+003,4.398454e-001
1.380840e+003,4.517728e-001
1.384698e+003,4.666933e-001
1.388555e+003,4.797225e-001
1.392412e+003,4.901502e-001
1.396269e+003,4.988446e-001
1.400126e+003,5.122826e-001
1.403983e+003,5.269665e-001
1.407840e+003,5.429757e-001
1.411697e+003,5.561876e-001
1.415554e+003,5.629842e-001
1.419411e+003,5.698829e-001
1.423269e+003,5.775028e-001
1.427126e+003,5.818284e-001
1.430983e+003,5.844995e-001
1.434840e+003,5.819583e-001
1.438697e+003,5.823798e-001
1.442554e+003,5.812433e-001
1.446411e+003,5.698096e-001
1.450268e+003,5.602836e-001
1.454125e+003,5.562314e-001
1.457982e+003,5.531485e-001
1.461839e+003,5.459651e-001
1.465697e+003,5.390512e-001
1.469554e+003,5.393375e-001
1.473411e+003,5.386879e-001
1.477268e+003,5.392889e-001
1.481125e+003,5.430290e-001
1.484982e+003,5.494483e-001
1.488839e+003,5.593925e-001
1.492696e+003,5.655608e-001
1.496553e+003,5.678139e-001
1.500411e+003,5.705137e-001
1.504268e+003,5.750320e-001
1.508125e+003,5.821411e-001
1.511982e+003,5.795107e-001
1.515839e+003,5.723881e-001
1.519696e+003,5.740743e-001
1.523553e+003,5.726416e-001
1.527410e+003,5.649793e-001
1.531267e+003,5.541279e-001
1.535124e+003,5.406234e-001
1.538981e+003,5.296917e-001
1.542839e+003,5.224968e-001
1.546696e+003,5.096659e-001
1.550553e+003,4.962172e-001
1.554410e+003,4.839398e-001
1.558267e+003,4.774333e-001
1.562124e+003,4.660398e-001
1.565981e+003,4.527513e-001
1.569838e+003,4.440712e-001
1.573695e+003,4.381094e-001
1.577552e+003,4.344988e-001
1.581410e+003,4.340391e-001
1.585267e+003,4.366007e-001
1.589124e+003,4.403669e-001
1.592981e+003,4.490345e-001
1.596838e+003,4.639205e-001
1.600695e+003,4.807262e-001
1.604552e+003,4.986404e-001
1.608409e+003,5.190229e-001
1.612266e+003,5.470036e-001
1.616123e+003,5.773439e-001
1.619980e+003,6.037428e-001
1.623838e+003,6.224930e-001
1.627695e+003,6.384717e-001
1.631552e+003,6.548576e-001
1.635409e+003,6.589006e-001
1.639266e+003,6.540933e-001
1.643123e+003,6.455047e-001
1.646980e+003,6.328539e-001
1.650837e+003,6.201238e-001
1.654694e+003,6.018135e-001
1.658551e+003,5.798613e-001
1.662409e+003,5.597134e-001
1.666266e+003,5.410909e-001
1.670123e+003,5.172188e-001
1.673980e+003,4.934558e-001
1.677837e+003,4.745500e-001
1.681694e+003,4.611210e-001
1.685551e+003,4.461024e-001
1.689408e+003,4.296402e-001
1.693265e+003,4.159718e-001
1.697122e+003,4.065820e-001
1.700979e+003,3.973352e-001
1.704837e+003,3.878683e-001
1.708694e+003,3.805948e-001
1.712551e+003,3.717327e-001
1.716408e+003,3.621065e-001
1.720265e+003,3.543184e-001
1.724122e+003,3.484536e-001
1.727979e+003,3.444823e-001
1.731836e+003,3.400976e-001
1.735693e+003,3.362827e-001
1.739550e+003,3.319413e-001
1.743408e+003,3.314364e-001
1.747265e+003,3.333663e-001
1.751122e+003,3.334843e-001
1.754979e+003,3.333538e-001
1.758836e+003,3.365192e-001
1.762693e+003,3.429080e-001
1.766550e+003,3.447327e-001
1.770407e+003,3.468164e-001
1.774264e+003,3.484341e-001
1.778121e+003,3.446237e-001
1.781979e+003,3.400001e-001
1.785836e+003,3.373133e-001
1.789693e+003,3.343478e-001
1.793550e+003,3.271903e-001
1.797407e+003,3.205749e-001
1.801264e+003,3.176891e-001
1.805121e+003,3.162993e-001
1.808978e+003,3.119514e-001
1.812835e+003,3.095908e-001
1.816692e+003,3.103772e-001
1.820549e+003,3.072367e-001
1.824407e+003,3.026694e-001
1.828264e+003,3.024045e-001
1.832121e+003,3.038836e-001
1.835978e+003,3.056410e-001
1.839835e+003,3.071938e-001
1.843692e+003,3.065577e-001
1.847549e+003,3.056258e-001
1.851406e+003,3.060084e-001
1.855263e+003,3.072945e-001
1.859120e+003,3.070468e-001
1.862978e+003,3.074310e-001
1.866835e+003,3.090235e-001
1.870692e+003,3.053932e-001
1.874549e+003,2.995567e-001
1.878406e+003,2.957042e-001
1.882263e+003,2.915900e-001
1.886120e+003,2.892713e-001
1.889977e+003,2.867807e-001
1.893834e+003,2.802307e-001
1.897691e+003,2.762409e-001
1.901548e+003,2.759208e-001
1.905406e+003,2.749434e-001
1.909263e+003,2.740297e-001
1.913120e+003,2.747864e-001
1.916977e+003,2.753458e-001
1.920834e+003,2.743512e-001
1.924691e+003,2.751706e-001
1.928548e+003,2.763173e-001
1.932405e+003,2.765000e-001
1.936262e+003,2.753331e-001
1.940119e+003,2.738956e-001
1.943977e+003,2.729818e-001
1.947834e+003,2.722070e-001
1.951691e+003,2.696788e-001
1.955548e+003,2.649948e-001
1.959405e+003,2.616613e-001
1.963262e+003,2.587996e-001
1.967119e+003,2.550159e-001
1.970976e+003,2.506852e-001
1.974833e+003,2.465748e-001
1.978690e+003,2.434046e-001
1.982547e+003,2.394745e-001
1.986405e+003,2.376215e-001
1.990262e+003,2.387874e-001
1.994119e+003,2.389202e-001
1.997976e+003,2.365211e-001
2.001833e+003,2.358558e-001
2.005690e+003,2.375994e-001
2.009547e+003,2.408519e-001
2.013404e+003,2.433358e-001
2.017261e+003,2.454613e-001
2.021118e+003,2.475236e-001
2.024976e+003,2.476207e-001
2.028833e+003,2.473687e-001
2.032690e+003,2.448634e-001
2.036547e+003,2.413774e-001
2.040404e+003,2.395028e-001
2.044261e+003,2.385636e-001
2.048118e+003,2.368253e-001
2.051975e+003,2.317824e-001
2.055832e+003,2.259026e-001
2.059689e+003,2.233213e-001
2.063546e+003,2.223171e-001
2.067404e+003,2.201820e-001
2.071261e+003,2.179259e-001
2.075118e+003,2.183308e-001
2.078975e+003,2.187986e-001
2.082832e+003,2.201739e-001
2.086689e+003,2.208250e-001
2.090546e+003,2.227314e-001
2.094403e+003,2.250487e-001
2.098260e+003,2.270420e-001
2.102117e+003,2.280263e-001
2.105975e+003,2.290972e-001
2.109832e+003,2.304694e-001
2.113689e+003,2.312985e-001
2.117546e+003,2.317574e-001
2.121403e+003,2.308979e-001
2.125260e+003,2.289058e-001
2.129117e+003,2.266747e-001
2.132974e+003,2.253450e-001
2.136831e+003,2.266107e-001
2.140688e+003,2.231820e-001
2.144545e+003,2.187202e-001
2.148403e+003,2.161952e-001
2.152260e+003,2.140307e-001
2.156117e+003,2.135430e-001
2.159974e+003,2.151096e-001
2.163831e+003,2.178128e-001
2.167688e+003,2.185754e-001
2.171545e+003,2.159285e-001
2.175402e+003,2.167919e-001
2.179259e+003,2.195871e-001
2.183116e+003,2.223498e-001
2.186974e+003,2.263158e-001
2.190831e+003,2.267117e-001
2.194688e+003,2.257772e-001
2.198545e+003,2.261216e-001
2.202402e+003,2.253531e-001
2.206259e+003,2.257205e-001
2.210116e+003,2.271131e-001
2.213973e+003,2.272807e-001
2.217830e+003,2.255468e-001
2.221688e+003,2.227847e-001
2.225544e+003,2.199005e-001
2.229402e+003,2.199790e-001
2.233259e+003,2.200421e-001
2.237116e+003,2.200423e-001
2.240973e+003,2.223373e-001
2.244830e+003,2.234042e-001
2.248687e+003,2.226733e-001
2.252544e+003,2.241939e-001
2.256401e+003,2.244605e-001
2.260258e+003,2.258801e-001
2.264115e+003,2.277291e-001
2.267973e+003,2.286874e-001
2.271830e+003,2.311651e-001
2.275687e+003,2.337219e-001
2.279544e+003,2.343717e-001
2.283401e+003,2.359203e-001
2.287258e+003,2.341806e-001
2.291115e+003,2.329196e-001
2.294972e+003,2.358011e-001
2.298829e+003,2.362542e-001
2.302687e+003,2.355013e-001
2.306543e+003,2.343244e-001
2.310401e+003,2.333446e-001
2.314258e+003,2.329691e-001
2.318115e+003,2.326720e-001
2.321972e+003,2.341945e-001
2.325829e+003,2.331972e-001
2.329686e+003,2.326518e-001
2.333543e+003,2.341039e-001
2.337400e+003,2.331672e-001
2.341257e+003,2.330713e-001
2.345115e+003,2.342155e-001
2.348972e+003,2.357902e-001
2.352829e+003,2.360408e-001
2.356686e+003,2.349237e-001
2.360543e+003,2.338231e-001
2.364400e+003,2.352228e-001
2.368257e+003,2.378335e-001
2.372114e+003,2.387753e-001
2.375971e+003,2.366606e-001
2.379828e+003,2.350070e-001
2.383686e+003,2.349745e-001
2.387542e+003,2.353739e-001
2.391400e+003,2.354123e-001
2.395257e+003,2.328649e-001
2.399114e+003,2.329317e-001
2.402971e+003,2.330388e-001
2.406828e+003,2.319011e-001
2.410685e+003,2.315837e-001
2.414542e+003,2.317306e-001
2.418399e+003,2.283018e-001
2.422256e+003,2.276687e-001
2.426114e+003,2.290021e-001
2.429971e+003,2.281132e-001
2.433828e+003,2.291760e-001
2.437685e+003,2.304694e-001
2.441542e+003,2.291695e-001
2.445399e+003,2.271696e-001
2.449256e+003,2.264888e-001
2.453113e+003,2.279807e-001
2.456970e+003,2.283133e-001
2.460827e+003,2.274329e-001
2.464684e+003,2.263007e-001
2.468542e+003,2.264157e-001
2.472399e+003,2.268584e-001
2.476256e+003,2.274660e-001
2.480113e+003,2.267596e-001
2.483970e+003,2.258764e-001
2.487827e+003,2.264805e-001
2.491684e+003,2.270753e-001
2.495541e+003,2.271561e-001
2.499398e+003,2.275975e-001
2.503255e+003,2.281528e-001
2.507113e+003,2.281119e-001
2.510969e+003,2.268074e-001
2.514827e+003,2.264847e-001
2.518684e+003,2.297817e-001
2.522541e+003,2.309612e-001
2.526398e+003,2.326988e-001
2.530255e+003,2.345320e-001
2.534112e+003,2.336665e-001
2.537969e+003,2.319789e-001
2.541826e+003,2.329937e-001
2.545683e+003,2.346243e-001
2.549541e+003,2.362132e-001
2.553398e+003,2.371574e-001
2.557255e+003,2.390787e-001
2.561112e+003,2.403934e-001
2.564969e+003,2.402248e-001
2.568826e+003,2.404577e-001
2.572683e+003,2.416022e-001
2.576540e+003,2.445908e-001
2.580397e+003,2.466327e-001
2.584254e+003,2.469113e-001
2.588112e+003,2.484921e-001
2.591969e+003,2.504321e-001
2.595826e+003,2.515137e-001
2.599683e+003,2.531448e-001
2.603540e+003,2.562820e-001
2.607397e+003,2.599304e-001
2.611254e+003,2.626187e-001
2.615111e+003,2.635975e-001
2.618968e+003,2.653735e-001
2.622825e+003,2.669422e-001
2.626682e+003,2.676206e-001
2.630540e+003,2.692152e-001
2.634397e+003,2.710181e-001
2.638254e+003,2.747516e-001
2.642111e+003,2.774538e-001
2.645968e+003,2.787768e-001
2.649825e+003,2.810934e-001
2.653682e+003,2.842554e-001
2.657539e+003,2.870752e-001
2.661396e+003,2.883323e-001
2.665253e+003,2.915105e-001
2.669111e+003,2.954650e-001
2.672968e+003,2.973406e-001
2.676825e+003,3.007558e-001
2.680682e+003,3.051315e-001
2.684539e+003,3.071263e-001
2.688396e+003,3.076725e-001
2.692253e+003,3.095077e-001
2.696110e+003,3.141832e-001
2.699967e+003,3.180591e-001
2.703824e+003,3.193895e-001
2.707681e+003,3.213536e-001
2.711539e+003,3.259866e-001
2.715396e+003,3.298244e-001
2.719253e+003,3.317969e-001
2.723110e+003,3.349592e-001
2.726967e+003,3.399352e-001
2.730824e+003,3.450585e-001
2.734681e+003,3.473680e-001
2.738538e+003,3.479196e-001
2.742395e+003,3.527693e-001
2.746252e+003,3.585907e-001
2.750110e+003,3.604559e-001
2.753967e+003,3.637128e-001
2.757824e+003,3.699682e-001
2.761681e+003,3.735321e-001
2.765538e+003,3.780224e-001
2.769395e+003,3.811680e-001
2.773252e+003,3.851857e-001
2.777109e+003,3.895746e-001
2.780966e+003,3.932794e-001
2.784823e+003,3.948565e-001
2.788680e+003,3.970917e-001
2.792538e+003,4.010570e-001
2.796395e+003,4.045456e-001
2.800252e+003,4.057191e-001
2.804109e+003,4.113056e-001
2.807966e+003,4.161822e-001
2.811823e+003,4.218217e-001
2.815680e+003,4.283966e-001
2.819537e+003,4.299481e-001
2.823394e+003,4.297622e-001
2.827251e+003,4.351139e-001
2.831109e+003,4.419948e-001
2.834966e+003,4.465902e-001
2.838823e+003,4.511887e-001
2.842680e+003,4.565563e-001
2.846537e+003,4.610544e-001
2.850394e+003,4.675045e-001
2.854251e+003,4.737522e-001
2.858108e+003,4.783391e-001
2.861965e+003,4.818352e-001
2.865823e+003,4.849998e-001
2.869679e+003,4.882067e-001
2.873537e+003,4.893988e-001
2.877394e+003,4.927070e-001
2.881251e+003,4.978378e-001
2.885108e+003,5.029028e-001
2.888965e+003,5.073515e-001
2.892822e+003,5.113978e-001
2.896679e+003,5.185849e-001
2.900536e+003,5.263870e-001
2.904393e+003,5.311091e-001
2.908250e+003,5.357517e-001
2.912108e+003,5.404664e-001
2.915965e+003,5.431483e-001
2.919822e+003,5.500889e-001
2.923679e+003,5.578190e-001
2.927536e+003,5.590835e-001
2.931393e+003,5.613759e-001
2.935250e+003,5.666659e-001
2.939107e+003,5.740809e-001
2.942964e+003,5.803471e-001
2.946822e+003,5.835428e-001
2.950678e+003,5.873883e-001
2.954536e+003,5.926725e-001
2.958393e+003,5.971987e-001
2.962250e+003,6.050292e-001
2.966107e+003,6.102276e-001
2.969964e+003,6.119032e-001
2.973821e+003,6.202026e-001
2.977678e+003,6.233893e-001
2.981535e+003,6.252961e-001
2.985392e+003,6.297553e-001
2.989250e+003,6.374578e-001
2.993107e+003,6.401204e-001
2.996964e+003,6.438066e-001
3.000821e+003,6.518707e-001
3.004678e+003,6.603942e-001
3.008535e+003,6.691252e-001
3.012392e+003,6.721693e-001
3.016249e+003,6.747836e-001
3.020106e+003,6.773711e-001
3.023963e+003,6.835114e-001
3.027821e+003,6.901956e-001
3.031677e+003,6.964825e-001
3.035535e+003,6.984699e-001
3.039392e+003,7.023188e-001
3.043249e+003,7.130281e-001
3.047106e+003,7.230414e-001
3.050963e+003,7.243873e-001
3.054820e+003,7.308848e-001
3.058677e+003,7.384764e-001
3.062534e+003,7.448450e-001
3.066391e+003,7.522047e-001
3.070249e+003,7.501548e-001
3.074106e+003,7.502407e-001
3.077963e+003,7.604013e-001
3.081820e+003,7.686670e-001
3.085677e+003,7.739919e-001
3.089534e+003,7.798531e-001
3.093391e+003,7.891618e-001
3.097248e+003,7.990779e-001
3.101105e+003,8.069082e-001
3.104962e+003,8.100805e-001
3.108820e+003,8.232990e-001
3.112677e+003,8.385472e-001
3.116534e+003,8.409939e-001
3.120391e+003,8.459123e-001
3.124248e+003,8.479753e-001
3.128105e+003,8.516212e-001
3.131962e+003,8.553349e-001
3.135819e+003,8.634725e-001
3.139676e+003,8.750690e-001
3.143533e+003,8.872156e-001
3.147390e+003,8.906205e-001
3.151248e+003,8.922012e-001
3.155105e+003,8.969421e-001
3.158962e+003,9.005880e-001
3.162819e+003,9.092078e-001
3.166676e+003,9.185767e-001
3.170533e+003,9.274347e-001
3.174390e+003,9.320287e-001
3.178247e+003,9.409078e-001
3.182104e+003,9.504859e-001
3.185961e+003,9.549025e-001
3.189819e+003,9.651673e-001
3.193676e+003,9.683401e-001
3.197533e+003,9.737796e-001
3.201390e+003,9.801551e-001
3.205247e+003,9.807848e-001
3.209104e+003,9.866599e-001
3.212961e+003,9.896839e-001
3.216818e+003,9.875077e-001
3.220675e+003,9.863948e-001
3.224532e+003,9.944237e-001
3.228389e+003,1.005710e+000
3.232247e+003,1.011564e+000
3.236104e+003,1.019222e+000
3.239961e+003,1.025550e+000
3.243818e+003,1.025760e+000
3.247675e+003,1.033035e+000
3.251532e+003,1.040959e+000
3.255389e+003,1.045913e+000
3.259246e+003,1.050504e+000
3.263103e+003,1.047235e+000
3.266960e+003,1.046788e+000
3.270818e+003,1.054773e+000
3.274675e+003,1.069322e+000
3.278532e+003,1.078067e+000
3.282389e+003,1.076294e+000
3.286246e+003,1.071085e+000
3.290103e+003,1.072589e+000
3.293960e+003,1.084619e+000
3.297817e+003,1.098035e+000
3.301674e+003,1.096460e+000
3.305531e+003,1.087573e+000
3.309388e+003,1.097180e+000
3.313246e+003,1.101253e+000
3.317103e+003,1.091637e+000
3.320960e+003,1.090341e+000
3.324817e+003,1.110373e+000
3.328674e+003,1.137316e+000
3.332531e+003,1.158412e+000
3.336388e+003,1.170003e+000
3.340245e+003,1.168294e+000
3.344102e+003,1.142004e+000
3.347959e+003,1.140895e+000
3.351817e+003,1.166590e+000
3.355674e+003,1.184277e+000
3.359531e+003,1.183051e+000
3.363388e+003,1.178407e+000
3.367245e+003,1.175666e+000
3.371102e+003,1.187054e+000
3.374959e+003,1.193787e+000
3.378816e+003,1.195090e+000
3.382673e+003,1.215747e+000
3.386530e+003,1.233271e+000
3.390387e+003,1.217980e+000
3.394245e+003,1.201300e+000
3.398102e+003,1.216344e+000
3.401959e+003,1.222224e+000
3.405816e+003,1.210394e+000
3.409673e+003,1.217171e+000
3.413530e+003,1.236123e+000
3.417387e+003,1.244861e+000
3.421244e+003,1.231772e+000
3.425101e+003,1.217438e+000
3.428958e+003,1.211768e+000
3.432815e+003,1.216981e+000
3.436673e+003,1.231280e+000
3.440530e+003,1.230910e+000
3.444387e+003,1.240315e+000
3.448244e+003,1.266924e+000
3.452101e+003,1.277575e+000
3.455958e+003,1.274846e+000
3.459815e+003,1.264229e+000
3.463672e+003,1.257791e+000
3.467529e+003,1.265303e+000
3.471386e+003,1.281730e+000
3.475244e+003,1.286266e+000
3.479101e+003,1.262998e+000
3.482958e+003,1.271050e+000
3.486815e+003,1.289285e+000
3.490672e+003,1.287103e+000
3.494529e+003,1.312318e+000
3.498386e+003,1.287359e+000
3.502243e+003,1.249455e+000
3.506100e+003,1.280495e+000
3.509958e+003,1.305013e+000
3.513814e+003,1.290130e+000
3.517672e+003,1.273935e+000
3.521529e+003,1.284720e+000
3.525386e+003,1.285211e+000
3.529243e+003,1.287828e+000
3.533100e+003,1.294504e+000
3.536957e+003,1.280439e+000
3.540814e+003,1.313894e+000
3.544671e+003,1.302102e+000
3.548528e+003,1.271207e+000
3.552385e+003,1.262716e+000
3.556243e+003,1.283704e+000
3.560100e+003,1.258600e+000
3.563957e+003,1.245999e+000
3.567814e+003,1.291104e+000
3.571671e+003,1.290460e+000
3.575528e+003,1.252448e+000
3.579385e+003,1.234574e+000
3.583242e+003,1.221865e+000
3.587099e+003,1.210864e+000
3.590957e+003,1.195084e+000
3.594813e+003,1.162681e+000
3.598671e+003,1.121652e+000
3.602528e+003,1.098577e+000
3.606385e+003,1.088780e+000
3.610242e+003,1.053128e+000
3.614099e+003,1.010375e+000
3.617956e+003,9.744307e-001
3.621813e+003,9.191355e-001
3.625670e+003,8.678908e-001
3.629527e+003,8.249420e-001
3.633385e+003,7.830789e-001
3.637242e+003,7.392102e-001
3.641099e+003,6.895275e-001
3.644956e+003,6.366245e-001
3.648813e+003,5.852159e-001
3.652670e+003,5.384347e-001
3.656527e+003,4.995886e-001
3.660384e+003,4.615381e-001
3.664241e+003,4.256920e-001
3.668098e+003,3.910891e-001
3.671956e+003,3.576030e-001
3.675813e+003,3.318465e-001
3.679670e+003,3.112915e-001
3.683527e+003,2.919454e-001
3.687384e+003,2.747105e-001
3.691241e+003,2.619230e-001
3.695098e+003,2.509204e-001
3.698955e+003,2.389105e-001
3.702812e+003,2.282164e-001
3.706669e+003,2.224104e-001
3.710526e+003,2.158985e-001
3.714384e+003,2.074944e-001
3.718241e+003,2.033921e-001
3.722098e+003,2.016718e-001
3.725955e+003,1.982459e-001
3.729812e+003,1.936285e-001
3.733669e+003,1.883967e-001
3.737526e+003,1.854684e-001
3.741383e+003,1.842100e-001
3.745240e+003,1.813907e-001
3.749097e+003,1.795076e-001
3.752955e+003,1.800701e-001
3.756812e+003,1.767382e-001
3.760669e+003,1.757495e-001
3.764526e+003,1.761651e-001
3.768383e+003,1.765307e-001
3.772240e+003,1.735172e-001
3.776097e+003,1.706906e-001
3.779954e+003,1.700131e-001
3.783811e+003,1.687159e-001
3.787668e+003,1.675117e-001
3.791525e+003,1.687957e-001
3.795383e+003,1.685314e-001
3.799240e+003,1.673820e-001
3.803097e+003,1.660223e-001
3.806954e+003,1.631820e-001
3.810811e+003,1.619025e-001
3.814668e+003,1.631038e-001
3.818525e+003,1.634009e-001
3.822382e+003,1.615227e-001
3.826239e+003,1.634234e-001
3.830096e+003,1.643572e-001
3.833954e+003,1.647072e-001
3.837811e+003,1.637049e-001
3.841668e+003,1.643291e-001
3.845525e+003,1.616307e-001
3.849382e+003,1.586626e-001
3.853239e+003,1.577233e-001
3.857096e+003,1.597190e-001
3.860953e+003,1.613795e-001
3.864810e+003,1.604683e-001
3.868667e+003,1.609729e-001
3.872524e+003,1.599964e-001
3.876382e+003,1.586716e-001
3.880239e+003,1.575157e-001
3.884096e+003,1.578190e-001
3.887953e+003,1.613151e-001
3.891810e+003,1.617449e-001
3.895667e+003,1.611091e-001
3.899524e+003,1.601208e-001
3.903381e+003,1.581894e-001
3.907238e+003,1.566477e-001
3.911095e+003,1.555134e-001
3.914953e+003,1.565655e-001
3.918810e+003,1.554249e-001
3.922667e+003,1.534270e-001
3.926524e+003,1.528677e-001
3.930381e+003,1.544959e-001
3.934238e+003,1.543679e-001
3.938095e+003,1.518638e-001
3.941952e+003,1.513310e-001
3.945809e+003,1.532581e-001
3.949667e+003,1.519496e-001
3.953523e+003,1.496700e-001
3.957381e+003,1.480004e-001
3.961238e+003,1.458523e-001
3.965095e+003,1.483555e-001
3.968952e+003,1.528454e-001
3.972809e+003,1.524770e-001
3.976666e+003,1.504840e-001
3.980523e+003,1.503543e-001
3.984380e+003,1.494784e-001
3.988237e+003,1.475488e-001
3.992094e+003,1.470327e-001
3.995952e+003,1.464182e-001
3.999809e+003,1.469266e-001
4.003666e+003,1.473008e-001
4.007523e+003,1.455330e-001
4.011380e+003,1.469624e-001
4.015237e+003,1.475641e-001
4.019094e+003,1.476501e-001
4.022951e+003,1.464922e-001
4.026808e+003,1.442924e-001
4.030666e+003,1.419318e-001
4.034522e+003,1.394986e-001
4.038380e+003,1.395666e-001
4.042237e+003,1.408411e-001
4.046094e+003,1.411539e-001
4.049951e+003,1.419539e-001
4.053808e+003,1.399143e-001
4.057665e+003,1.389987e-001
4.061522e+003,1.377244e-001
4.065379e+003,1.386877e-001
4.069236e+003,1.377256e-001
4.073094e+003,1.362748e-001
4.076951e+003,1.372187e-001
4.080808e+003,1.382299e-001
4.084665e+003,1.356827e-001
4.088522e+003,1.330125e-001
4.092379e+003,1.369647e-001
4.096236e+003,1.370197e-001
4.100093e+003,1.360895e-001
4.103950e+003,1.377854e-001
4.107808e+003,1.364715e-001
4.111665e+003,1.336895e-001
4.115521e+003,1.332079e-001
4.119379e+003,1.327905e-001
4.123236e+003,1.310005e-001
4.127093e+003,1.305257e-001
4.130950e+003,1.312201e-001
4.134807e+003,1.332843e-001
4.138664e+003,1.301949e-001
4.142521e+003,1.276277e-001
4.146378e+003,1.282068e-001
4.150235e+003,1.287287e-001
4.154093e+003,1.278326e-001
4.157950e+003,1.267651e-001
4.161807e+003,1.271028e-001
4.165664e+003,1.294185e-001
4.169521e+003,1.313979e-001
4.173378e+003,1.276880e-001
4.177235e+003,1.239357e-001
4.181092e+003,1.239239e-001
4.184949e+003,1.233366e-001
4.188807e+003,1.229166e-001
4.192664e+003,1.211141e-001
4.196521e+003,1.243191e-001
4.200378e+003,1.250841e-001
4.204235e+003,1.193612e-001
4.208092e+003,1.193851e-001
4.211949e+003,1.235478e-001
4.215806e+003,1.240312e-001
4.219663e+003,1.245759e-001
4.223521e+003,1.240050e-001
4.227377e+003,1.207571e-001
4.231234e+003,1.185343e-001
4.235092e+003,1.192765e-001
4.238949e+003,1.184191e-001
4.242806e+003,1.179660e-001
4.246663e+003,1.194753e-001
4.250520e+003,1.208153e-001
4.254377e+003,1.198262e-001
4.258234e+003,1.184082e-001
4.262091e+003,1.176573e-001
4.265948e+003,1.187209e-001
4.269806e+003,1.160184e-001
4.273663e+003,1.134109e-001
4.277520e+003,1.146664e-001
4.281377e+003,1.132989e-001
4.285234e+003,1.119117e-001
4.289091e+003,1.143101e-001
4.292948e+003,1.135854e-001
4.296805e+003,1.130039e-001
4.300662e+003,1.157232e-001
4.304520e+003,1.137054e-001
4.308376e+003,1.113228e-001
4.312233e+003,1.117623e-001
4.316091e+003,1.121510e-001
4.319948e+003,1.105357e-001
4.323805e+003,1.117954e-001
4.327662e+003,1.139964e-001
4.331519e+003,1.128788e-001
4.335376e+003,1.123288e-001
4.339233e+003,1.134389e-001
4.343090e+003,1.130299e-001
4.346947e+003,1.127492e-001
4.350805e+003,1.108938e-001
4.354662e+003,1.108577e-001
4.358519e+003,1.125510e-001
4.362376e+003,1.102253e-001
4.366233e+003,1.080526e-001
4.370090e+003,1.090990e-001
4.373947e+003,1.117807e-001
4.377804e+003,1.121814e-001
4.381661e+003,1.112703e-001
4.385519e+003,1.120365e-001
4.389375e+003,1.111654e-001
4.393232e+003,1.125685e-001
4.397090e+003,1.134078e-001
4.400947e+003,1.117983e-001
4.404804e+003,1.117376e-001
4.408661e+003,1.149511e-001
4.412518e+003,1.127819e-001
4.416375e+003,1.126567e-001
4.420232e+003,1.145696e-001
4.424089e+003,1.142700e-001
4.427946e+003,1.137322e-001
4.431804e+003,1.102487e-001
4.435661e+003,1.087627e-001
4.439518e+003,1.084738e-001
4.443375e+003,1.096886e-001
4.447232e+003,1.092065e-001
4.451089e+003,1.076877e-001
4.454946e+003,1.100053e-001
4.458803e+003,1.102437e-001
4.462660e+003,1.070656e-001
4.466518e+003,1.086547e-001
4.470375e+003,1.081981e-001
4.474231e+003,1.078874e-001
4.478089e+003,1.105387e-001
4.481946e+003,1.109949e-001
4.485803e+003,1.108838e-001
4.489660e+003,1.107157e-001
4.493517e+003,1.129088e-001
4.497375e+003,1.124730e-001
4.501231e+003,1.105341e-001
4.505088e+003,1.084498e-001
4.508946e+003,1.098403e-001
4.512803e+003,1.107892e-001
4.516660e+003,1.079660e-001
4.520517e+003,1.063069e-001
4.524374e+003,1.040993e-001
4.528231e+003,1.024944e-001
4.532088e+003,1.032742e-001
4.535945e+003,1.028992e-001
4.539802e+003,1.035788e-001
4.543660e+003,1.028158e-001
4.547517e+003,1.008250e-001
4.551374e+003,1.010006e-001
4.555231e+003,9.941058e-002
4.559088e+003,1.034614e-001
4.562945e+003,1.063717e-001
4.566802e+003,1.030973e-001
4.570659e+003,9.769446e-002
4.574516e+003,9.870557e-002
4.578374e+003,1.040968e-001
4.582230e+003,1.060261e-001
4.586087e+003,1.041060e-001
4.589945e+003,1.012659e-001
4.593802e+003,9.853318e-002
4.597659e+003,1.002070e-001
4.601516e+003,1.024218e-001
4.605373e+003,9.975208e-002
4.609230e+003,9.651168e-002
4.613087e+003,9.697086e-002
4.616944e+003,9.665864e-002
4.620801e+003,9.606683e-002
4.624659e+003,9.686396e-002
4.628516e+003,9.650601e-002
4.632373e+003,9.378622e-002
4.636230e+003,9.227020e-002
4.640087e+003,9.528724e-002
4.643944e+003,9.722726e-002
4.647801e+003,1.002541e-001
4.651658e+003,1.028767e-001
4.655515e+003,1.048135e-001
4.659373e+003,1.046490e-001
4.663229e+003,1.054728e-001
4.667086e+003,1.043330e-001
4.670944e+003,1.028037e-001
4.674801e+003,9.929737e-002
4.678658e+003,9.821999e-002
4.682515e+003,1.012968e-001
4.686372e+003,1.067705e-001
4.690229e+003,1.076787e-001
4.694086e+003,1.022791e-001
4.697943e+003,9.581148e-002
4.701800e+003,9.375907e-002
4.705658e+003,9.869305e-002
4.709515e+003,1.002658e-001
4.713372e+003,9.866931e-002
4.717229e+003,9.513126e-002
4.721086e+003,9.454457e-002
4.724943e+003,9.740474e-002
4.728800e+003,1.011503e-001
4.732657e+003,1.002969e-001
4.736514e+003,9.710990e-002
4.740372e+003,9.799381e-002
4.744229e+003,1.000088e-001
4.748085e+003,1.012935e-001
4.751943e+003,1.005678e-001
4.755800e+003,1.015583e-001
4.759657e+003,1.025974e-001
4.763514e+003,1.011316e-001
4.767371e+003,9.718424e-002
4.771228e+003,9.833916e-002
4.775085e+003,9.824692e-002
4.778942e+003,9.639215e-002
4.782799e+003,9.928525e-002
4.786657e+003,1.021278e-001
4.790514e+003,1.030532e-001
4.794371e+003,1.007957e-001
4.798228e+003,9.922183e-002
4.802085e+003,9.839742e-002
4.805942e+003,9.994711e-002
4.809799e+003,1.045813e-001
4.813656e+003,1.027754e-001
4.817513e+003,9.673406e-002
4.821371e+003,9.806532e-002
4.825228e+003,9.833425e-002
4.829084e+003,9.977010e-002
4.832942e+003,1.025751e-001
4.836799e+003,1.013101e-001
4.840656e+003,9.720028e-002
4.844513e+003,1.000431e-001
4.848370e+003,1.024514e-001
4.852227e+003,1.014676e-001
4.856084e+003,9.788167e-002
4.859941e+003,1.012139e-001
4.863798e+003,1.064797e-001
4.867656e+003,1.072823e-001
4.871513e+003,1.064953e-001
4.875370e+003,1.054535e-001
4.879227e+003,1.044455e-001
4.883084e+003,1.047873e-001
4.886941e+003,1.050514e-001
4.890798e+003,1.044891e-001
4.894655e+003,1.046842e-001
4.898512e+003,1.070927e-001
4.902370e+003,1.063715e-001
4.906227e+003,1.004604e-001
4.910083e+003,9.740204e-002
4.913941e+003,1.022566e-001
4.917798e+003,1.046956e-001
4.921655e+003,1.017722e-001
4.925512e+003,1.041077e-001
4.929369e+003,1.079701e-001
4.933226e+003,1.115040e-001
4.937083e+003,1.131315e-001
4.940940e+003,1.100938e-001
4.944797e+003,1.107455e-001
4.948655e+003,1.120041e-001
4.952512e+003,1.113712e-001
4.956369e+003,1.136810e-001
4.960226e+003,1.139038e-001
4.964083e+003,1.135063e-001
4.967940e+003,1.122728e-001
4.971797e+003,1.099398e-001
4.975654e+003,1.073835e-001
4.979511e+003,1.063416e-001
4.983369e+003,1.064712e-001
4.987226e+003,1.120941e-001
4.991083e+003,1.137991e-001
4.994940e+003,1.119000e-001
4.998797e+003,1.143599e-001
5.002654e+003,1.133747e-001
5.006511e+003,1.135547e-001
5.010368e+003,1.134191e-001
5.014225e+003,1.131473e-001
5.018083e+003,1.178515e-001
5.021939e+003,1.220273e-001
5.025796e+003,1.165684e-001
5.029654e+003,1.103474e-001
5.033511e+003,1.146895e-001
5.037368e+003,1.194903e-001
5.041225e+003,1.200010e-001
5.045082e+003,1.222044e-001
5.048939e+003,1.234080e-001
5.052796e+003,1.240853e-001
5.056653e+003,1.259892e-001
5.060510e+003,1.223546e-001
5.064368e+003,1.191837e-001
5.068225e+003,1.192693e-001
5.072082e+003,1.170176e-001
5.075939e+003,1.126829e-001
5.079796e+003,1.155756e-001
5.083653e+003,1.189498e-001
5.087510e+003,1.181626e-001
5.091367e+003,1.223622e-001
5.095224e+003,1.264516e-001
5.099082e+003,1.244729e-001
5.102938e+003,1.238520e-001
5.106795e+003,1.193201e-001
5.110653e+003,1.151480e-001
5.114510e+003,1.161257e-001
5.118367e+003,1.246315e-001
5.122224e+003,1.283646e-001
5.126081e+003,1.287497e-001
5.129938e+003,1.276810e-001
5.133795e+003,1.331930e-001
5.137652e+003,1.379509e-001
5.141509e+003,1.341242e-001
5.145367e+003,1.316453e-001
5.149224e+003,1.317030e-001
5.153081e+003,1.332514e-001
5.156938e+003,1.277663e-001
5.160795e+003,1.244203e-001
5.164652e+003,1.285043e-001
5.168509e+003,1.315216e-001
5.172366e+003,1.335707e-001
5.176223e+003,1.336994e-001
5.180081e+003,1.333183e-001
5.183938e+003,1.307386e-001
5.187794e+003,1.300870e-001
5.191652e+003,1.339513e-001
5.195509e+003,1.372194e-001
5.199366e+003,1.346659e-001
5.203223e+003,1.310268e-001
5.207080e+003,1.294824e-001
5.210937e+003,1.334683e-001
5.214794e+003,1.405708e-001
5.218651e+003,1.388958e-001
5.222508e+003,1.315350e-001
5.226366e+003,1.309926e-001
5.230223e+003,1.349280e-001
5.234080e+003,1.309828e-001
5.237937e+003,1.298766e-001
5.241794e+003,1.314887e-001
5.245651e+003,1.279256e-001
5.249508e+003,1.273562e-001
5.253365e+003,1.345773e-001
5.257222e+003,1.345480e-001
5.261080e+003,1.283416e-001
5.264937e+003,1.301076e-001
5.268793e+003,1.352788e-001
5.272651e+003,1.334397e-001
5.276508e+003,1.323420e-001
5.280365e+003,1.335901e-001
5.284222e+003,1.315438e-001
5.288079e+003,1.327677e-001
5.291936e+003,1.323578e-001
5.295793e+003,1.275366e-001
5.299650e+003,1.289627e-001
5.303507e+003,1.329534e-001
5.307365e+003,1.291927e-001
5.311222e+003,1.258987e-001
5.315079e+003,1.334398e-001
5.318936e+003,1.374152e-001
5.322793e+003,1.411615e-001
5.326650e+003,1.411505e-001
5.330507e+003,1.368281e-001
5.334364e+003,1.351966e-001
5.338221e+003,1.332179e-001
5.342079e+003,1.357500e-001
5.345936e+003,1.398948e-001
5.349792e+003,1.358518e-001
5.353650e+003,1.370686e-001
5.357507e+003,1.422210e-001
5.361364e+003,1.415849e-001
5.365221e+003,1.356828e-001
5.369078e+003,1.335366e-001
5.372935e+003,1.347390e-001
5.376792e+003,1.391938e-001
5.380649e+003,1.430109e-001
5.384506e+003,1.461367e-001
5.388364e+003,1.540605e-001
5.392221e+003,1.545039e-001
5.396078e+003,1.501829e-001
5.399935e+003,1.407629e-001
5.403792e+003,1.383991e-001
5.407649e+003,1.435825e-001
5.411506e+003,1.441412e-001
5.415363e+003,1.449570e-001
5.419220e+003,1.436210e-001
5.423078e+003,1.428016e-001
5.426935e+003,1.461202e-001
5.430792e+003,1.504531e-001
5.434649e+003,1.501853e-001
5.438506e+003,1.481457e-001
5.442363e+003,1.433356e-001
5.446220e+003,1.403451e-001
5.450077e+003,1.385180e-001
5.453934e+003,1.421660e-001
5.457792e+003,1.427449e-001
5.461648e+003,1.448713e-001
5.465505e+003,1.414316e-001
5.469363e+003,1.368910e-001
5.473220e+003,1.416635e-001
5.477077e+003,1.480312e-001
5.480934e+003,1.467248e-001
5.484791e+003,1.448995e-001
5.488648e+003,1.512722e-001
5.492505e+003,1.498421e-001
5.496362e+003,1.475424e-001
5.500219e+003,1.509154e-001
5.504077e+003,1.509897e-001
5.507934e+003,1.526237e-001
5.511791e+003,1.489721e-001
5.515648e+003,1.472771e-001
5.519505e+003,1.516604e-001
5.523362e+003,1.484227e-001
5.527219e+003,1.440470e-001
5.531076e+003,1.425977e-001
5.534933e+003,1.436099e-001
5.538791e+003,1.476230e-001
5.542647e+003,1.469131e-001
5.546504e+003,1.460047e-001
5.550362e+003,1.490423e-001
5.554219e+003,1.563285e-001
5.558076e+003,1.632517e-001
5.561933e+003,1.593149e-001
5.565790e+003,1.506734e-001
5.569647e+003,1.480234e-001
5.573504e+003,1.517020e-001
5.577361e+003,1.564009e-001
5.581218e+003,1.565722e-001
5.585076e+003,1.519606e-001
5.588933e+003,1.531841e-001
5.592790e+003,1.502106e-001
5.596647e+003,1.553918e-001
5.600504e+003,1.564087e-001
5.604361e+003,1.532614e-001
5.608218e+003,1.494555e-001
5.612075e+003,1.495140e-001
5.615932e+003,1.564417e-001
5.619790e+003,1.572683e-001
5.623646e+003,1.507517e-001
5.627503e+003,1.462420e-001
5.631361e+003,1.507220e-001
5.635218e+003,1.492974e-001
5.639075e+003,1.487271e-001
5.642932e+003,1.521774e-001
5.646789e+003,1.526357e-001
5.650646e+003,1.505676e-001
5.654503e+003,1.531114e-001
5.658360e+003,1.553462e-001
5.662217e+003,1.510230e-001
5.666075e+003,1.538535e-001
5.669932e+003,1.563552e-001
5.673789e+003,1.514374e-001
5.677646e+003,1.500046e-001
5.681503e+003,1.562103e-001
5.685360e+003,1.587478e-001
5.689217e+003,1.579640e-001
5.693074e+003,1.579819e-001
5.696931e+003,1.540074e-001
5.700789e+003,1.518533e-001
5.704646e+003,1.512907e-001
5.708502e+003,1.522199e-001
5.712360e+003,1.539162e-001
5.716217e+003,1.546385e-001
5.720074e+003,1.596877e-001
5.723931e+003,1.616723e-001
5.727788e+003,1.593170e-001
5.731645e+003,1.526717e-001
5.735502e+003,1.496667e-001
5.739359e+003,1.565297e-001
5.743216e+003,1.567425e-001
5.747074e+003,1.533317e-001
5.750931e+003,1.561523e-001
5.754788e+003,1.610737e-001
5.758645e+003,1.597924e-001
5.762502e+003,1.594411e-001
5.766359e+003,1.606034e-001
5.770216e+003,1.550118e-001
5.774073e+003,1.532365e-001
5.777930e+003,1.528829e-001
5.781788e+003,1.532394e-001
5.785645e+003,1.607198e-001
5.789501e+003,1.612238e-001
5.793359e+003,1.546798e-001
5.797216e+003,1.531815e-001
5.801073e+003,1.552107e-001
5.804930e+003,1.608961e-001
5.808787e+003,1.657213e-001
5.812644e+003,1.629048e-001
5.816501e+003,1.561770e-001
5.820358e+003,1.488632e-001
5.824215e+003,1.490670e-001
5.828073e+003,1.609331e-001
5.831930e+003,1.633506e-001
5.835787e+003,1.583892e-001
5.839644e+003,1.591073e-001
5.843501e+003,1.597097e-001
5.847358e+003,1.584536e-001
5.851215e+003,1.609869e-001
5.855072e+003,1.614277e-001
5.858929e+003,1.546953e-001
5.862787e+003,1.556830e-001
5.866644e+003,1.597974e-001
5.870500e+003,1.584071e-001
5.874358e+003,1.583314e-001
5.878215e+003,1.636793e-001
5.882072e+003,1.687533e-001
5.885929e+003,1.633995e-001
5.889786e+003,1.580267e-001
5.893643e+003,1.558800e-001
5.897500e+003,1.592045e-001
5.901357e+003,1.594345e-001
5.905214e+003,1.532623e-001
5.909072e+003,1.517155e-001
5.912929e+003,1.590352e-001
5.916786e+003,1.571571e-001
5.920643e+003,1.553320e-001
5.924500e+003,1.554425e-001
5.928357e+003,1.532041e-001
5.932214e+003,1.536546e-001
5.936071e+003,1.576352e-001
5.939928e+003,1.642603e-001
5.943786e+003,1.689982e-001
5.947643e+003,1.696459e-001
5.951500e+003,1.626297e-001
5.955357e+003,1.618382e-001
5.959214e+003,1.623318e-001
5.963071e+003,1.522673e-001
5.966928e+003,1.504841e-001
5.970785e+003,1.592375e-001
5.974642e+003,1.613285e-001
5.978500e+003,1.598262e-001
5.982356e+003,1.574577e-001
5.986213e+003,1.585699e-001
5.990071e+003,1.613537e-001
5.993928e+003,1.551867e-001
5.997785e+003,1.523643e-001
6.001642e+003,1.504382e-001
6.005499e+003,1.476518e-001
6.009356e+003,1.554461e-001
6.013213e+003,1.622815e-001
6.017070e+003,1.693110e-001
6.020927e+003,1.711676e-001
6.024785e+003,1.626539e-001
6.028642e+003,1.614550e-001
6.032499e+003,1.620064e-001
6.036356e+003,1.643599e-001
6.040213e+003,1.655832e-001
6.044070e+003,1.542076e-001
6.047927e+003,1.484711e-001
6.051784e+003,1.614828e-001
6.055641e+003,1.654897e-001
6.059499e+003,1.597922e-001
6.063355e+003,1.586677e-001
6.067212e+003,1.576415e-001
6.071070e+003,1.540444e-001
6.074927e+003,1.466983e-001
6.078784e+003,1.484232e-001
6.082641e+003,1.561427e-001
6.086498e+003,1.594512e-001
6.090355e+003,1.670919e-001
6.094212e+003,1.675691e-001
6.098069e+003,1.603919e-001
6.101926e+003,1.565925e-001
6.105784e+003,1.458790e-001
6.109641e+003,1.420923e-001
6.113498e+003,1.481349e-001
6.117355e+003,1.606715e-001
6.121212e+003,1.604492e-001
6.125069e+003,1.511901e-001
6.128926e+003,1.521353e-001
6.132783e+003,1.586870e-001
6.136640e+003,1.601266e-001
6.140498e+003,1.637718e-001
6.144354e+003,1.618698e-001
6.148211e+003,1.533811e-001
6.152069e+003,1.505365e-001
6.155926e+003,1.485944e-001
6.159783e+003,1.505247e-001
6.163640e+003,1.600368e-001
6.167497e+003,1.573258e-001
6.171354e+003,1.455776e-001
6.175211e+003,1.479583e-001
6.179068e+003,1.521168e-001
6.182925e+003,1.495766e-001
6.186783e+003,1.479657e-001
6.190640e+003,1.458312e-001
6.194497e+003,1.405126e-001
6.198354e+003,1.401513e-001
6.202211e+003,1.473060e-001
6.206068e+003,1.526221e-001
6.209925e+003,1.561401e-001
6.213782e+003,1.551440e-001
6.217639e+003,1.545354e-001
6.221497e+003,1.489614e-001
6.225354e+003,1.453314e-001
6.229210e+003,1.425927e-001
6.233068e+003,1.453277e-001
6.236925e+003,1.492919e-001
6.240782e+003,1.553757e-001
6.244639e+003,1.477201e-001
6.248496e+003,1.434819e-001
6.252353e+003,1.406842e-001
6.256210e+003,1.475187e-001
6.260067e+003,1.553026e-001
6.263924e+003,1.534443e-001
6.267782e+003,1.487313e-001
6.271639e+003,1.465697e-001
6.275496e+003,1.537153e-001
6.279353e+003,1.592000e-001
6.283210e+003,1.623084e-001
6.287067e+003,1.602788e-001
6.290924e+003,1.575846e-001
6.294781e+003,1.555065e-001
6.298638e+003,1.460250e-001
6.302496e+003,1.366127e-001
6.306353e+003,1.343634e-001
6.310209e+003,1.481093e-001
6.314067e+003,1.523813e-001
6.317924e+003,1.438324e-001
6.321781e+003,1.387801e-001
6.325638e+003,1.315973e-001
6.329495e+003,1.270175e-001
6.333352e+003,1.328320e-001
6.337209e+003,1.405927e-001
6.341066e+003,1.521576e-001
6.344923e+003,1.556593e-001
6.348780e+003,1.547846e-001
6.352638e+003,1.551344e-001
6.356495e+003,1.453458e-001
6.360352e+003,1.416086e-001
6.364209e+003,1.500439e-001
6.368066e+003,1.466065e-001
6.371923e+003,1.428738e-001
6.375780e+003,1.541410e-001
6.379637e+003,1.545223e-001
6.383494e+003,1.413370e-001
6.387352e+003,1.314960e-001
6.391208e+003,1.356799e-001
6.395065e+003,1.486764e-001
6.398923e+003,1.506931e-001
6.402780e+003,1.364593e-001
6.406637e+003,1.269975e-001
6.410494e+003,1.339044e-001
6.414351e+003,1.469379e-001
6.418208e+003,1.460856e-001
6.422065e+003,1.365583e-001
6.425922e+003,1.265024e-001
6.429779e+003,1.311722e-001
6.433637e+003,1.361550e-001
6.437494e+003,1.351219e-001
6.441351e+003,1.375690e-001
6.445208e+003,1.441692e-001
6.449065e+003,1.442259e-001
6.452922e+003,1.342105e-001
6.456779e+003,1.326137e-001
6.460636e+003,1.397349e-001
6.464493e+003,1.412146e-001
6.468351e+003,1.312596e-001
6.472208e+003,1.292807e-001
6.476064e+003,1.317702e-001
6.479922e+003,1.298676e-001
6.483779e+003,1.362407e-001
6.487636e+003,1.451645e-001
6.491493e+003,1.329048e-001
6.495350e+003,1.282965e-001
6.499207e+003,1.320392e-001
6.503064e+003,1.354134e-001
6.506921e+003,1.484178e-001
6.510778e+003,1.504222e-001
6.514636e+003,1.406232e-001
6.518493e+003,1.339436e-001
6.522350e+003,1.402833e-001
6.526207e+003,1.466196e-001
6.530064e+003,1.397174e-001
6.533921e+003,1.259408e-001
6.537778e+003,1.148836e-001
6.541635e+003,1.151409e-001
6.545492e+003,1.237985e-001
6.549350e+003,1.213966e-001
6.553207e+003,1.233892e-001
6.557063e+003,1.334147e-001
6.560921e+003,1.365681e-001
6.564778e+003,1.396582e-001
6.568635e+003,1.404531e-001
6.572492e+003,1.284470e-001
6.576349e+003,1.275117e-001
6.580206e+003,1.352706e-001
6.584063e+003,1.323967e-001
6.587920e+003,1.237717e-001
6.591777e+003,1.196961e-001
6.595635e+003,1.225242e-001
6.599492e+003,1.268831e-001
6.603349e+003,1.278263e-001
6.607206e+003,1.293672e-001
6.611063e+003,1.292761e-001
6.614920e+003,1.257744e-001
6.618777e+003,1.294739e-001
6.622634e+003,1.310398e-001
6.626491e+003,1.283563e-001
6.630349e+003,1.172481e-001
6.634206e+003,1.061918e-001
6.638063e+003,1.080996e-001
6.641920e+003,1.225496e-001
6.645777e+003,1.307821e-001
6.649634e+003,1.330426e-001
6.653491e+003,1.324190e-001
6.657348e+003,1.253651e-001
6.661205e+003,1.201195e-001
6.665063e+003,1.233148e-001
6.668919e+003,1.273682e-001
6.672776e+003,1.351086e-001
6.676634e+003,1.380760e-001
6.680491e+003,1.346715e-001
6.684348e+003,1.435063e-001
6.688205e+003,1.482077e-001
6.692062e+003,1.326197e-001
6.695919e+003,1.156012e-001
6.699776e+003,1.065148e-001
6.703633e+003,1.147902e-001
6.707490e+003,1.208449e-001
6.711348e+003,1.269919e-001
6.715205e+003,1.262045e-001
6.719062e+003,1.223078e-001
6.722919e+003,1.152661e-001
6.726776e+003,1.143086e-001
6.730633e+003,1.238808e-001
6.734490e+003,1.279529e-001
6.738347e+003,1.199645e-001
6.742204e+003,1.103495e-001
6.746062e+003,1.106490e-001
6.749918e+003,1.226994e-001
6.753775e+003,1.418754e-001
6.757633e+003,1.529185e-001
6.761490e+003,1.580855e-001
6.765347e+003,1.430278e-001
6.769204e+003,1.361149e-001
6.773061e+003,1.308506e-001
6.776918e+003,1.255720e-001
6.780775e+003,1.363983e-001
6.784632e+003,1.395718e-001
6.788489e+003,1.244208e-001
6.792347e+003,1.100919e-001
6.796204e+003,1.171787e-001
6.800061e+003,1.226842e-001
6.803918e+003,1.196932e-001
6.807775e+003,1.075173e-001
6.811632e+003,1.123663e-001
6.815489e+003,1.283946e-001
6.819346e+003,1.285713e-001
6.823203e+003,1.304216e-001
6.827061e+003,1.302711e-001
6.830917e+003,1.191758e-001
6.834774e+003,1.145354e-001
6.838632e+003,1.179392e-001
6.842489e+003,1.126564e-001
6.846346e+003,1.145579e-001
6.850203e+003,1.233006e-001
6.854060e+003,1.353295e-001
6.857917e+003,1.342745e-001
6.861774e+003,1.201281e-001
6.865631e+003,1.202077e-001
6.869488e+003,1.065824e-001
6.873346e+003,1.092546e-001
6.877203e+003,1.265223e-001
6.881060e+003,1.339506e-001
6.884917e+003,1.366775e-001
6.888774e+003,1.304092e-001
6.892631e+003,1.273275e-001
6.896488e+003,1.271448e-001
6.900345e+003,1.326157e-001
6.904202e+003,1.376728e-001
6.908060e+003,1.285006e-001
6.911917e+003,1.278233e-001
6.915773e+003,1.414564e-001
6.919631e+003,1.432476e-001
6.923488e+003,1.346009e-001
6.927345e+003,1.314660e-001
6.931202e+003,1.364489e-001
6.935059e+003,1.334140e-001
6.938916e+003,1.375898e-001
6.942773e+003,1.262602e-001
6.946630e+003,1.171562e-001
6.950487e+003,1.201323e-001
6.954345e+003,1.128280e-001
6.958202e+003,9.920784e-002
6.962059e+003,1.058589e-001
6.965916e+003,1.054030e-001
6.969773e+003,1.027859e-001
6.973630e+003,1.088415e-001
6.977487e+003,1.145850e-001
6.981344e+003,1.127376e-001
6.985201e+003,1.235754e-001
6.989059e+003,1.403236e-001
6.992916e+003,1.419218e-001
6.996772e+003,1.359552e-001
7.000630e+003,1.372906e-001
7.004487e+003,1.160855e-001
7.008344e+003,1.228684e-001
7.012201e+003,1.376833e-001
7.016058e+003,1.254379e-001
7.019915e+003,1.218703e-001
7.023772e+003,1.355146e-001
7.027629e+003,1.425186e-001
7.031486e+003,1.355879e-001
7.035344e+003,1.261445e-001
7.039201e+003,1.192427e-001
7.043058e+003,1.196185e-001
7.046915e+003,1.140420e-001
7.050772e+003,1.164216e-001
7.054629e+003,1.313499e-001
7.058486e+003,1.332873e-001
7.062343e+003,1.186187e-001
7.066200e+003,9.018058e-002
7.070058e+003,9.850461e-002
7.073915e+003,1.281300e-001
7.077771e+003,1.514852e-001
7.081629e+003,1.354350e-001
7.085486e+003,1.210959e-001
7.089343e+003,1.218666e-001
7.093200e+003,1.263574e-001
7.097057e+003,1.313221e-001
7.100914e+003,1.251958e-001
7.104771e+003,1.199972e-001
7.108628e+003,1.014008e-001
7.112485e+003,1.022972e-001
7.116343e+003,1.360139e-001
7.120200e+003,1.367365e-001
7.124057e+003,1.284184e-001
7.127914e+003,1.277843e-001
7.131771e+003,1.213765e-001
7.135628e+003,1.178583e-001
7.139485e+003,1.004864e-001
7.143342e+003,1.092617e-001
7.147199e+003,1.360623e-001
7.151057e+003,1.372157e-001
7.154914e+003,1.198411e-001
7.158771e+003,1.064560e-001
7.162628e+003,1.290114e-001
7.166485e+003,1.391795e-001
7.170342e+003,1.308381e-001
7.174199e+003,1.483836e-001
7.178056e+003,1.466878e-001
7.181913e+003,1.367838e-001
7.185771e+003,1.430574e-001
7.189627e+003,1.291847e-001
7.193484e+003,1.296440e-001
7.197342e+003,1.301395e-001
7.201199e+003,1.181559e-001
7.205056e+003,1.205329e-001
7.208913e+003,1.424358e-001
7.212770e+003,1.424101e-001
7.216627e+003,1.262719e-001
7.220484e+003,1.086993e-001
7.224341e+003,1.144328e-001
7.228198e+003,1.313768e-001
7.232056e+003,1.411690e-001
7.235913e+003,1.358711e-001
7.239770e+003,1.116258e-001
7.243627e+003,9.962137e-002
7.247484e+003,1.039557e-001
7.251341e+003,1.554914e-001
7.255198e+003,1.767675e-001
7.259055e+003,1.448981e-001
7.262912e+003,1.350430e-001
7.266770e+003,1.432975e-001
7.270626e+003,1.249420e-001
7.274483e+003,1.234239e-001
7.278341e+003,1.291606e-001
7.282198e+003,1.133302e-001
7.286055e+003,1.274050e-001
7.289912e+003,1.265027e-001
7.293769e+003,1.083009e-001
7.297626e+003,1.306304e-001
7.301483e+003,1.344276e-001
7.305340e+003,1.118803e-001
7.309197e+003,1.216471e-001
7.313055e+003,1.142985e-001
7.316912e+003,1.137977e-001
7.320769e+003,1.159244e-001
7.324626e+003,8.983111e-002
7.328483e+003,8.576620e-002
7.332340e+003,9.588440e-002
7.336197e+003,1.178763e-001
7.340054e+003,1.406916e-001
7.343911e+003,1.174731e-001
7.347769e+003,6.894896e-002
7.351625e+003,7.583556e-002
7.355482e+003,1.030715e-001
7.359340e+003,1.004608e-001
7.363197e+003,1.010632e-001
7.367054e+003,1.188695e-001
7.370911e+003,1.160399e-001
7.374768e+003,9.193365e-002
7.378625e+003,9.516401e-002
7.382482e+003,1.236365e-001
7.386339e+003,1.262676e-001
7.390196e+003,8.322768e-002
7.394054e+003,7.739254e-002
7.397911e+003,1.166209e-001
7.401768e+003,1.330208e-001
7.405625e+003,1.174234e-001
7.409482e+003,1.268066e-001
7.413339e+003,1.460584e-001
7.417196e+003,1.623666e-001
7.421053e+003,1.709713e-001
7.424910e+003,1.568141e-001
7.428768e+003,1.499816e-001
7.432625e+003,1.433892e-001
7.436481e+003,1.366098e-001
7.440339e+003,1.199494e-001
7.444196e+003,1.087902e-001
7.448053e+003,1.158344e-001
7.451910e+003,1.093061e-001
7.455767e+003,9.612615e-002
7.459624e+003,1.136965e-001
7.463481e+003,1.087619e-001
7.467338e+003,1.044446e-001
7.471195e+003,1.070147e-001
7.475053e+003,1.127324e-001
7.478910e+003,1.067642e-001
7.482767e+003,1.030304e-001
7.486624e+003,1.199173e-001
7.490481e+003,1.337254e-001
7.494338e+003,1.349787e-001
7.498195e+003,1.336217e-001
7.502052e+003,1.672524e-001
7.505909e+003,1.524534e-001
7.509767e+003,1.396890e-001
7.513624e+003,1.793237e-001
7.517480e+003,1.692382e-001
7.521338e+003,1.312053e-001
7.525195e+003,1.260638e-001
7.529052e+003,1.322409e-001
7.532909e+003,1.254502e-001
7.536766e+003,1.275664e-001
7.540623e+003,1.287577e-001
7.544480e+003,1.086965e-001
7.548337e+003,1.241220e-001
7.552194e+003,1.493140e-001
7.556052e+003,1.574077e-001
7.559909e+003,1.492213e-001
7.563766e+003,1.025852e-001
7.567623e+003,6.426656e-002
7.571480e+003,9.260658e-002
7.575337e+003,1.132462e-001
7.579194e+003,1.085229e-001
7.583051e+003,1.127081e-001
7.586908e+003,1.477456e-001
7.590766e+003,1.803521e-001
7.594623e+003,1.783154e-001
7.598479e+003,1.559634e-001
7.602337e+003,1.298559e-001
7.606194e+003,1.262291e-001
7.610051e+003,1.309209e-001
7.613908e+003,1.299847e-001
7.617765e+003,1.331169e-001
7.621622e+003,1.516344e-001
7.625479e+003,1.560827e-001
7.629336e+003,1.217545e-001
7.633193e+003,1.127616e-001
7.637051e+003,1.270100e-001
7.640908e+003,1.175180e-001
7.644765e+003,9.280597e-002
7.648622e+003,8.440702e-002
7.652479e+003,1.105350e-001
7.656336e+003,1.622694e-001
7.660193e+003,1.710436e-001
7.664050e+003,1.422399e-001
7.667907e+003,1.203272e-001
7.671765e+003,1.172196e-001
7.675622e+003,1.389893e-001
7.679479e+003,1.262408e-001
7.683336e+003,1.398368e-001
7.687193e+003,1.484367e-001
7.691050e+003,1.218828e-001
7.694907e+003,1.348780e-001
7.698764e+003,1.647068e-001
7.702621e+003,1.513066e-001
7.706479e+003,1.141020e-001
7.710335e+003,8.893517e-002
7.714192e+003,8.316175e-002
7.718050e+003,9.909335e-002
7.721907e+003,1.450278e-001
7.725764e+003,1.482581e-001
7.729621e+003,1.212149e-001
7.733478e+003,8.891135e-002
7.737335e+003,1.534611e-001
7.741192e+003,1.780971e-001
7.745049e+003,1.116072e-001
7.748906e+003,1.030876e-001
7.752764e+003,1.295187e-001
7.756621e+003,1.094065e-001
7.760478e+003,1.138865e-001
7.764335e+003,1.344996e-001
7.768192e+003,1.248406e-001
7.772049e+003,9.834269e-002
7.775906e+003,7.485422e-002
7.779763e+003,9.363134e-002
7.783620e+003,1.351870e-001
7.787478e+003,1.412987e-001
7.791334e+003,1.210294e-001
7.795191e+003,1.138842e-001
7.799049e+003,1.628380e-001
7.802906e+003,1.780850e-001
7.806763e+003,1.412537e-001
7.810620e+003,1.554222e-001
7.814477e+003,1.966077e-001
7.818334e+003,1.729738e-001
7.822191e+003,1.271546e-001
7.826048e+003,1.411511e-001
7.829905e+003,1.679794e-001
7.833763e+003,2.040724e-001
7.837620e+003,1.882817e-001
7.841477e+003,1.246766e-001
7.845334e+003,1.315078e-001
7.849191e+003,1.555982e-001
7.853048e+003,9.122857e-002
7.856905e+003,9.226573e-002
7.860762e+003,1.130813e-001
7.864619e+003,8.981042e-002
7.868477e+003,6.882408e-002
7.872333e+003,1.005638e-001
7.876190e+003,1.588757e-001
7.880048e+003,1.614653e-001
7.883905e+003,1.438127e-001
7.887762e+003,1.215575e-001
7.891619e+003,8.654127e-002
7.895476e+003,7.940646e-002
7.899333e+003,1.604515e-001
7.903190e+003,1.285924e-001
7.907047e+003,3.889733e-002
7.910904e+003,9.572266e-002
7.914762e+003,1.051004e-001
7.918619e+003,1.197365e-001
7.922476e+003,1.687203e-001
7.926333e+003,1.455038e-001
7.930190e+003,6.782474e-002
7.934047e+003,6.998344e-002
7.937904e+003,1.129394e-001
7.941761e+003,7.401361e-002
7.945618e+003,8.307287e-002
7.949476e+003,1.201034e-001
7.953333e+003,1.108798e-001
7.957189e+003,1.171277e-001
7.961047e+003,1.507064e-001
7.964904e+003,1.212948e-001
7.968761e+003,9.553803e-002
7.972618e+003,1.462793e-001
7.976475e+003,1.756628e-001
7.980332e+003,1.381506e-001
7.984189e+003,1.209930e-001
7.988046e+003,1.648284e-001
7.991903e+003,1.652826e-001
7.995761e+003,2.229964e-001
7.999618e+003,2.380326e-001
