4.011380e+002,-1.745390e-001
4.049951e+002,1.995906e-001
4.088522e+002,6.000000e+000
4.127093e+002,-1.422562e+000
4.165664e+002,2.052461e-001
4.204235e+002,2.325778e-001
4.242806e+002,3.168008e-001
4.281377e+002,6.000000e+000
4.319948e+002,6.000000e+000
4.358519e+002,6.000000e+000
4.397090e+002,6.000000e+000
4.435661e+002,2.019636e-001
4.474232e+002,2.329860e-001
4.512803e+002,3.508127e-001
4.551374e+002,6.000000e+000
4.589945e+002,6.000000e+000
4.628516e+002,6.000000e+000
4.667087e+002,6.000000e+000
4.705658e+002,6.000000e+000
4.744229e+002,6.000000e+000
4.782800e+002,6.000000e+000
4.821371e+002,6.000000e+000
4.859941e+002,6.000000e+000
4.898513e+002,6.000000e+000
4.937083e+002,4.937463e-001
4.975654e+002,2.614031e-001
5.014225e+002,-4.902497e-001
5.052796e+002,4.870128e-002
5.091367e+002,6.000000e+000
5.129938e+002,6.000000e+000
5.168509e+002,6.000000e+000
5.207080e+002,6.000000e+000
5.245651e+002,6.000000e+000
5.284222e+002,3.993796e-001
5.322793e+002,5.156261e-001
5.361364e+002,5.150343e-001
5.399935e+002,-3.303474e-001
5.438506e+002,6.000000e+000
5.477077e+002,-9.442226e-001
5.515648e+002,2.359549e-002
5.554219e+002,-2.246571e-001
5.592790e+002,6.000000e+000
5.631361e+002,6.000000e+000
5.669932e+002,-1.454589e+000
5.708503e+002,-1.173887e-002
5.747074e+002,1.936073e+000
5.785645e+002,6.000000e+000
5.824216e+002,6.000000e+000
5.862787e+002,1.106483e-001
5.901357e+002,6.000000e+000
5.939929e+002,6.000000e+000
5.978499e+002,-8.048456e-001
6.017070e+002,6.000000e+000
6.055641e+002,6.000000e+000
6.094212e+002,6.000000e+000
6.132783e+002,6.000000e+000
6.171354e+002,6.000000e+000
6.209925e+002,2.983112e-001
6.248496e+002,1.596174e-001
6.287067e+002,-2.813398e-001
6.325638e+002,4.516166e-001
6.364209e+002,6.000000e+000
6.402780e+002,6.000000e+000
6.441351e+002,-2.705129e-001
6.479922e+002,6.000000e+000
6.518493e+002,6.000000e+000
6.557064e+002,6.000000e+000
6.595635e+002,6.000000e+000
6.634205e+002,3.632861e-001
6.672777e+002,6.000000e+000
6.711348e+002,6.000000e+000
6.749918e+002,6.000000e+000
6.788490e+002,6.000000e+000
6.827061e+002,6.000000e+000
6.865631e+002,6.000000e+000
6.904203e+002,-5.139446e-001
6.942773e+002,-1.265477e+000
6.981344e+002,2.232841e-001
7.019916e+002,-5.683617e-002
7.058486e+002,6.000000e+000
7.097057e+002,1.385564e-002
7.135629e+002,2.777837e-001
7.174199e+002,-9.723659e-002
7.212770e+002,-2.771223e-001
7.251342e+002,-1.136326e+000
7.289912e+002,6.000000e+000
7.328483e+002,6.384882e-001
7.367054e+002,-2.621173e-001
7.405625e+002,6.000000e+000
7.444196e+002,6.000000e+000
7.482767e+002,6.000000e+000
7.521338e+002,6.000000e+000
7.559908e+002,1.099078e+000
7.598480e+002,-3.379409e-001
7.637051e+002,6.000000e+000
7.675621e+002,6.000000e+000
7.714193e+002,-4.973603e-001
7.752764e+002,-3.479261e-001
7.791334e+002,2.133551e-001
7.829905e+002,7.635060e-001
7.868477e+002,6.000000e+000
7.907047e+002,6.000000e+000
7.945618e+002,6.000000e+000
7.984189e+002,-4.799637e-001
8.022760e+002,6.676293e-001
8.061331e+002,4.172460e-001
8.099902e+002,1.071676e-001
8.138473e+002,1.017974e+000
8.177044e+002,6.000000e+000
8.215615e+002,6.000000e+000
8.254186e+002,6.000000e+000
8.292757e+002,6.000000e+000
8.331328e+002,1.137931e+000
8.369899e+002,5.774252e-001
8.408470e+002,4.841296e-001
8.447041e+002,6.171554e-001
8.485612e+002,8.421167e-001
8.524183e+002,1.978677e+000
8.562754e+002,6.000000e+000
8.601324e+002,1.177954e+000
8.639896e+002,1.295590e+000
8.678467e+002,1.603538e+000
8.717037e+002,1.295855e+000
8.755609e+002,1.811503e+000
8.794180e+002,1.536099e+000
8.832750e+002,1.901370e+000
8.871321e+002,6.000000e+000
8.909893e+002,6.000000e+000
8.948463e+002,6.000000e+000
8.987034e+002,6.000000e+000
9.025605e+002,6.000000e+000
9.064176e+002,6.000000e+000
9.102747e+002,1.895236e+000
9.141318e+002,3.673722e+000
9.179889e+002,6.000000e+000
9.218461e+002,6.000000e+000
9.257031e+002,1.766156e+000
9.295602e+002,1.576076e+000
9.334174e+002,1.912001e+000
9.372744e+002,2.369103e+000
9.411315e+002,2.129861e+000
9.449886e+002,1.852518e+000
9.488457e+002,6.000000e+000
9.527028e+002,6.000000e+000
9.565599e+002,2.348545e+000
9.604170e+002,1.678138e+000
9.642740e+002,1.635959e+000
9.681312e+002,1.790526e+000
9.719883e+002,1.849266e+000
9.758453e+002,2.080942e+000
9.797025e+002,2.642646e+000
9.835596e+002,2.136646e+000
9.874166e+002,2.026945e+000
9.912738e+002,2.164517e+000
9.951309e+002,6.000000e+000
9.989879e+002,6.000000e+000
1.002845e+003,6.000000e+000
1.006702e+003,6.000000e+000
1.010559e+003,6.000000e+000
1.014416e+003,2.129294e+000
1.018273e+003,2.057164e+000
1.022130e+003,2.041306e+000
1.025988e+003,1.997796e+000
1.029845e+003,2.078646e+000
1.033702e+003,2.460909e+000
1.037559e+003,2.273856e+000
1.041416e+003,1.919523e+000
1.045273e+003,1.890561e+000
1.049130e+003,1.886794e+000
1.052987e+003,1.748896e+000
1.056844e+003,1.739953e+000
1.060702e+003,1.866331e+000
1.064559e+003,2.206887e+000
1.068416e+003,2.026821e+000
1.072273e+003,2.079921e+000
1.076130e+003,1.999448e+000
1.079987e+003,1.826884e+000
1.083844e+003,1.707267e+000
1.087701e+003,1.702490e+000
1.091558e+003,1.669831e+000
1.095415e+003,1.653854e+000
1.099272e+003,1.813459e+000
1.103130e+003,1.738966e+000
1.106987e+003,1.623153e+000
1.110844e+003,1.618276e+000
1.114701e+003,1.663377e+000
1.118558e+003,1.737700e+000
1.122415e+003,1.768631e+000
1.126272e+003,1.691138e+000
1.130129e+003,1.638949e+000
1.133986e+003,1.613598e+000
1.137843e+003,1.571390e+000
1.141701e+003,1.537235e+000
1.145558e+003,1.502509e+000
1.149415e+003,1.538125e+000
1.153272e+003,1.530611e+000
1.157129e+003,1.467466e+000
1.160986e+003,1.501830e+000
1.164843e+003,1.673518e+000
1.168700e+003,1.638238e+000
1.172557e+003,1.580521e+000
1.176414e+003,1.555192e+000
1.180271e+003,1.526212e+000
1.184129e+003,1.626248e+000
1.187986e+003,1.666479e+000
1.191843e+003,1.548919e+000
1.195700e+003,1.485351e+000
1.199557e+003,1.447323e+000
1.203414e+003,1.450734e+000
1.207271e+003,1.477010e+000
1.211128e+003,1.420501e+000
1.214985e+003,1.375742e+000
1.218842e+003,1.334259e+000
1.222699e+003,1.267391e+000
1.226557e+003,1.211090e+000
1.230414e+003,1.152495e+000
1.234271e+003,1.079700e+000
1.238128e+003,1.041103e+000
1.241985e+003,9.956090e-001
1.245842e+003,9.253496e-001
1.249699e+003,8.742496e-001
1.253556e+003,8.381896e-001
1.257413e+003,8.097026e-001
1.261271e+003,7.825372e-001
1.265128e+003,7.652544e-001
1.268985e+003,7.409174e-001
1.272842e+003,7.078124e-001
1.276699e+003,6.861692e-001
1.280556e+003,6.709854e-001
1.284413e+003,6.490036e-001
1.288270e+003,6.282389e-001
1.292127e+003,6.221209e-001
1.295984e+003,6.193904e-001
1.299841e+003,6.022255e-001
1.303698e+003,5.837470e-001
1.307556e+003,5.684485e-001
1.311413e+003,5.598469e-001
1.315270e+003,5.569692e-001
1.319127e+003,5.467170e-001
1.322984e+003,5.406378e-001
1.326841e+003,5.392064e-001
1.330698e+003,5.331467e-001
1.334555e+003,5.287813e-001
1.338412e+003,5.305279e-001
1.342270e+003,5.290133e-001
1.346127e+003,5.202821e-001
1.349984e+003,5.138403e-001
1.353841e+003,5.122201e-001
1.357698e+003,5.117078e-001
1.361555e+003,5.205809e-001
1.365412e+003,5.292770e-001
1.369269e+003,5.331712e-001
1.373126e+003,5.415947e-001
1.376983e+003,5.462515e-001
1.380840e+003,5.496771e-001
1.384698e+003,5.610251e-001
1.388555e+003,5.727535e-001
1.392412e+003,5.841378e-001
1.396269e+003,5.946031e-001
1.400126e+003,6.046365e-001
1.403983e+003,6.136350e-001
1.407840e+003,6.296306e-001
1.411697e+003,6.506221e-001
1.415554e+003,6.671000e-001
1.419411e+003,6.750801e-001
1.423269e+003,6.778558e-001
1.427126e+003,6.887007e-001
1.430983e+003,6.911778e-001
1.434840e+003,6.886629e-001
1.438697e+003,6.890609e-001
1.442554e+003,6.841881e-001
1.446411e+003,6.769587e-001
1.450268e+003,6.600213e-001
1.454125e+003,6.495482e-001
1.457982e+003,6.420596e-001
1.461839e+003,6.351897e-001
1.465697e+003,6.321515e-001
1.469554e+003,6.300299e-001
1.473411e+003,6.291994e-001
1.477268e+003,6.293285e-001
1.481125e+003,6.286569e-001
1.484982e+003,6.390973e-001
1.488839e+003,6.553119e-001
1.492696e+003,6.590557e-001
1.496553e+003,6.638151e-001
1.500411e+003,6.734008e-001
1.504268e+003,6.852999e-001
1.508125e+003,6.940704e-001
1.511982e+003,6.934011e-001
1.515839e+003,6.866993e-001
1.519696e+003,6.759393e-001
1.523553e+003,6.711645e-001
1.527410e+003,6.678293e-001
1.531267e+003,6.556377e-001
1.535124e+003,6.410427e-001
1.538981e+003,6.322699e-001
1.542839e+003,6.209382e-001
1.546696e+003,6.057759e-001
1.550553e+003,5.952560e-001
1.554410e+003,5.848607e-001
1.558267e+003,5.729939e-001
1.562124e+003,5.598056e-001
1.565981e+003,5.431576e-001
1.569838e+003,5.383582e-001
1.573695e+003,5.355284e-001
1.577552e+003,5.326137e-001
1.581410e+003,5.315577e-001
1.585267e+003,5.290317e-001
1.589124e+003,5.332480e-001
1.592981e+003,5.433691e-001
1.596838e+003,5.592182e-001
1.600695e+003,5.679667e-001
1.604552e+003,5.765373e-001
1.608409e+003,5.950792e-001
1.612266e+003,6.169763e-001
1.616123e+003,6.378481e-001
1.619980e+003,6.525950e-001
1.623838e+003,6.708016e-001
1.627695e+003,6.912640e-001
1.631552e+003,7.074449e-001
1.635409e+003,7.150036e-001
1.639266e+003,7.149861e-001
1.643123e+003,7.141832e-001
1.646980e+003,7.070830e-001
1.650837e+003,6.944295e-001
1.654694e+003,6.707031e-001
1.658551e+003,6.463514e-001
1.662409e+003,6.261455e-001
1.666266e+003,6.012909e-001
1.670123e+003,5.776024e-001
1.673980e+003,5.584447e-001
1.677837e+003,5.365612e-001
1.681694e+003,5.149735e-001
1.685551e+003,4.963551e-001
1.689408e+003,4.831659e-001
1.693265e+003,4.689886e-001
1.697122e+003,4.546278e-001
1.700979e+003,4.471687e-001
1.704837e+003,4.428401e-001
1.708694e+003,4.377307e-001
1.712551e+003,4.322388e-001
1.716408e+003,4.248728e-001
1.720265e+003,4.241123e-001
1.724122e+003,4.251982e-001
1.727979e+003,4.216164e-001
1.731836e+003,4.164827e-001
1.735693e+003,4.115886e-001
1.739550e+003,4.056267e-001
1.743408e+003,4.026231e-001
1.747265e+003,4.015006e-001
1.751122e+003,4.003200e-001
1.754979e+003,3.996659e-001
1.758836e+003,3.974171e-001
1.762693e+003,3.973191e-001
1.766550e+003,4.010834e-001
1.770407e+003,4.025660e-001
1.774264e+003,4.010211e-001
1.778121e+003,3.991911e-001
1.781979e+003,3.957574e-001
1.785836e+003,3.943534e-001
1.789693e+003,3.931878e-001
1.793550e+003,3.893754e-001
1.797407e+003,3.837744e-001
1.801264e+003,3.805172e-001
1.805121e+003,3.791951e-001
1.808978e+003,3.750629e-001
1.812835e+003,3.702787e-001
1.816692e+003,3.686686e-001
1.820549e+003,3.681893e-001
1.824407e+003,3.661704e-001
1.828264e+003,3.652622e-001
1.832121e+003,3.646286e-001
1.835978e+003,3.660511e-001
1.839835e+003,3.681908e-001
1.843692e+003,3.668227e-001
1.847549e+003,3.638577e-001
1.851406e+003,3.620630e-001
1.855263e+003,3.597267e-001
1.859120e+003,3.557876e-001
1.862978e+003,3.515207e-001
1.866835e+003,3.511874e-001
1.870692e+003,3.488421e-001
1.874549e+003,3.443327e-001
1.878406e+003,3.431188e-001
1.882263e+003,3.431533e-001
1.886120e+003,3.399139e-001
1.889977e+003,3.388519e-001
1.893834e+003,3.394920e-001
1.897691e+003,3.388156e-001
1.901548e+003,3.372454e-001
1.905406e+003,3.364234e-001
1.909263e+003,3.356790e-001
1.913120e+003,3.351276e-001
1.916977e+003,3.325233e-001
1.920834e+003,3.307566e-001
1.924691e+003,3.295098e-001
1.928548e+003,3.267857e-001
1.932405e+003,3.226792e-001
1.936262e+003,3.192723e-001
1.940119e+003,3.191953e-001
1.943977e+003,3.189024e-001
1.947834e+003,3.182856e-001
1.951691e+003,3.170694e-001
1.955548e+003,3.165190e-001
1.959405e+003,3.153977e-001
1.963262e+003,3.110805e-001
1.967119e+003,3.086824e-001
1.970976e+003,3.082815e-001
1.974833e+003,3.073680e-001
1.978690e+003,3.051066e-001
1.982547e+003,3.048438e-001
1.986405e+003,3.061362e-001
1.990262e+003,3.063531e-001
1.994119e+003,3.049769e-001
1.997976e+003,3.027651e-001
2.001833e+003,3.010124e-001
2.005690e+003,3.007115e-001
2.009547e+003,3.039456e-001
2.013404e+003,3.046659e-001
2.017261e+003,3.025423e-001
2.021118e+003,3.008022e-001
2.024976e+003,3.005674e-001
2.028833e+003,2.995721e-001
2.032690e+003,2.980341e-001
2.036547e+003,2.977348e-001
2.040404e+003,2.964612e-001
2.044261e+003,2.948931e-001
2.048118e+003,2.920234e-001
2.051975e+003,2.884881e-001
2.055832e+003,2.883837e-001
2.059689e+003,2.886576e-001
2.063546e+003,2.901745e-001
2.067404e+003,2.901784e-001
2.071261e+003,2.893561e-001
2.075118e+003,2.893726e-001
2.078975e+003,2.882251e-001
2.082832e+003,2.889890e-001
2.086689e+003,2.899919e-001
2.090546e+003,2.873985e-001
2.094403e+003,2.851292e-001
2.098260e+003,2.860420e-001
2.102117e+003,2.877027e-001
2.105975e+003,2.875489e-001
2.109832e+003,2.866421e-001
2.113689e+003,2.880246e-001
2.117546e+003,2.907176e-001
2.121403e+003,2.909832e-001
2.125260e+003,2.891483e-001
2.129117e+003,2.870791e-001
2.132974e+003,2.873789e-001
2.136831e+003,2.898288e-001
2.140688e+003,2.911443e-001
2.144545e+003,2.909649e-001
2.148403e+003,2.930181e-001
2.152260e+003,2.955160e-001
2.156117e+003,2.955858e-001
2.159974e+003,2.920422e-001
2.163831e+003,2.887695e-001
2.167688e+003,2.855343e-001
2.171545e+003,2.866855e-001
2.175402e+003,2.898230e-001
2.179259e+003,2.894326e-001
2.183116e+003,2.917067e-001
2.186974e+003,2.922588e-001
2.190831e+003,2.930138e-001
2.194688e+003,2.976527e-001
2.198545e+003,3.015168e-001
2.202402e+003,3.005145e-001
2.206259e+003,3.017679e-001
2.210116e+003,3.019607e-001
2.213973e+003,3.014006e-001
2.217830e+003,3.041441e-001
2.221688e+003,3.044641e-001
2.225544e+003,3.024042e-001
2.229402e+003,3.011262e-001
2.233259e+003,3.038649e-001
2.237116e+003,3.047013e-001
2.240973e+003,3.046979e-001
2.244830e+003,3.075150e-001
2.248687e+003,3.109616e-001
2.252544e+003,3.119521e-001
2.256401e+003,3.140423e-001
2.260258e+003,3.155656e-001
2.264115e+003,3.154366e-001
2.267973e+003,3.171543e-001
2.271830e+003,3.219053e-001
2.275687e+003,3.232520e-001
2.279544e+003,3.224845e-001
2.283401e+003,3.224985e-001
2.287258e+003,3.202662e-001
2.291115e+003,3.177006e-001
2.294972e+003,3.172007e-001
2.298829e+003,3.182557e-001
2.302687e+003,3.186714e-001
2.306543e+003,3.194790e-001
2.310401e+003,3.201772e-001
2.314258e+003,3.188091e-001
2.318115e+003,3.178836e-001
2.321972e+003,3.190562e-001
2.325829e+003,3.205674e-001
2.329686e+003,3.245869e-001
2.333543e+003,3.269787e-001
2.337400e+003,3.274263e-001
2.341257e+003,3.293380e-001
2.345115e+003,3.292521e-001
2.348972e+003,3.271725e-001
2.352829e+003,3.220812e-001
2.356686e+003,3.196359e-001
2.360543e+003,3.239738e-001
2.364400e+003,3.257950e-001
2.368257e+003,3.199093e-001
2.372114e+003,3.171834e-001
2.375971e+003,3.186458e-001
2.379828e+003,3.209721e-001
2.383686e+003,3.191683e-001
2.387542e+003,3.175188e-001
2.391400e+003,3.194944e-001
2.395257e+003,3.213498e-001
2.399114e+003,3.232330e-001
2.402971e+003,3.235122e-001
2.406828e+003,3.232209e-001
2.410685e+003,3.221445e-001
2.414542e+003,3.223479e-001
2.418399e+003,3.225424e-001
2.422256e+003,3.188734e-001
2.426114e+003,3.144390e-001
2.429971e+003,3.142123e-001
2.433828e+003,3.116280e-001
2.437685e+003,3.071807e-001
2.441542e+003,3.046920e-001
2.445399e+003,3.023655e-001
2.449256e+003,3.036408e-001
2.453113e+003,3.067816e-001
2.456970e+003,3.066716e-001
2.460827e+003,3.066569e-001
2.464684e+003,3.084459e-001
2.468542e+003,3.087087e-001
2.472399e+003,3.093320e-001
2.476256e+003,3.100591e-001
2.480113e+003,3.110687e-001
2.483970e+003,3.071956e-001
2.487827e+003,3.043926e-001
2.491684e+003,3.029909e-001
2.495541e+003,3.000268e-001
2.499398e+003,2.984834e-001
2.503255e+003,2.971143e-001
2.507113e+003,2.957552e-001
2.510969e+003,2.966602e-001
2.514827e+003,2.970507e-001
2.518684e+003,2.981894e-001
2.522541e+003,3.016803e-001
2.526398e+003,3.028038e-001
2.530255e+003,3.011298e-001
2.534112e+003,3.033279e-001
2.537969e+003,3.055528e-001
2.541826e+003,3.039897e-001
2.545683e+003,3.038442e-001
2.549541e+003,3.034140e-001
2.553398e+003,3.014534e-001
2.557255e+003,3.019630e-001
2.561112e+003,3.015030e-001
2.564969e+003,3.004765e-001
2.568826e+003,2.990590e-001
2.572683e+003,2.987387e-001
2.576540e+003,3.017540e-001
2.580397e+003,3.031988e-001
2.584254e+003,3.063138e-001
2.588112e+003,3.097736e-001
2.591969e+003,3.105021e-001
2.595826e+003,3.102767e-001
2.599683e+003,3.126270e-001
2.603540e+003,3.169273e-001
2.607397e+003,3.190344e-001
2.611254e+003,3.199286e-001
2.615111e+003,3.211052e-001
2.618968e+003,3.218011e-001
2.622825e+003,3.249356e-001
2.626682e+003,3.275763e-001
2.630540e+003,3.247142e-001
2.634397e+003,3.254126e-001
2.638254e+003,3.306397e-001
2.642111e+003,3.316974e-001
2.645968e+003,3.318526e-001
2.649825e+003,3.343609e-001
2.653682e+003,3.375839e-001
2.657539e+003,3.399123e-001
2.661396e+003,3.420793e-001
2.665253e+003,3.446566e-001
2.669111e+003,3.504283e-001
2.672968e+003,3.534112e-001
2.676825e+003,3.561975e-001
2.680682e+003,3.598470e-001
2.684539e+003,3.618528e-001
2.688396e+003,3.622487e-001
2.692253e+003,3.649021e-001
2.696110e+003,3.684523e-001
2.699967e+003,3.694982e-001
2.703824e+003,3.730460e-001
2.707681e+003,3.787482e-001
2.711539e+003,3.809798e-001
2.715396e+003,3.826369e-001
2.719253e+003,3.843336e-001
2.723110e+003,3.876195e-001
2.726967e+003,3.920243e-001
2.730824e+003,3.970366e-001
2.734681e+003,4.021040e-001
2.738538e+003,4.061898e-001
2.742395e+003,4.088756e-001
2.746252e+003,4.118849e-001
2.750110e+003,4.161565e-001
2.753967e+003,4.191356e-001
2.757824e+003,4.225182e-001
2.761681e+003,4.265832e-001
2.765538e+003,4.299023e-001
2.769395e+003,4.355083e-001
2.773252e+003,4.393950e-001
2.777109e+003,4.450741e-001
2.780966e+003,4.516295e-001
2.784823e+003,4.523259e-001
2.788680e+003,4.552145e-001
2.792538e+003,4.612615e-001
2.796395e+003,4.638180e-001
2.800252e+003,4.652359e-001
2.804109e+003,4.699982e-001
2.807966e+003,4.759623e-001
2.811823e+003,4.786697e-001
2.815680e+003,4.813084e-001
2.819537e+003,4.867537e-001
2.823394e+003,4.943161e-001
2.827251e+003,4.985899e-001
2.831109e+003,5.001359e-001
2.834966e+003,5.054882e-001
2.838823e+003,5.142835e-001
2.842680e+003,5.215525e-001
2.846537e+003,5.258075e-001
2.850394e+003,5.286410e-001
2.854251e+003,5.318133e-001
2.858108e+003,5.347230e-001
2.861965e+003,5.407431e-001
2.865823e+003,5.468226e-001
2.869679e+003,5.534564e-001
2.873537e+003,5.590563e-001
2.877394e+003,5.634170e-001
2.881251e+003,5.717655e-001
2.885108e+003,5.762519e-001
2.888965e+003,5.793717e-001
2.892822e+003,5.879455e-001
2.896679e+003,5.969156e-001
2.900536e+003,5.998868e-001
2.904393e+003,6.012282e-001
2.908250e+003,6.098927e-001
2.912108e+003,6.218219e-001
2.915965e+003,6.254538e-001
2.919822e+003,6.313794e-001
2.923679e+003,6.381124e-001
2.927536e+003,6.386763e-001
2.931393e+003,6.427546e-001
2.935250e+003,6.484209e-001
2.939107e+003,6.519135e-001
2.942964e+003,6.557699e-001
2.946822e+003,6.629102e-001
2.950678e+003,6.730714e-001
2.954536e+003,6.790193e-001
2.958393e+003,6.871026e-001
2.962250e+003,6.949899e-001
2.966107e+003,6.987318e-001
2.969964e+003,7.022199e-001
2.973821e+003,7.025453e-001
2.977678e+003,7.103319e-001
2.981535e+003,7.231534e-001
2.985392e+003,7.238154e-001
2.989250e+003,7.270378e-001
2.993107e+003,7.307177e-001
2.996964e+003,7.387564e-001
3.000821e+003,7.511784e-001
3.004678e+003,7.574888e-001
3.008535e+003,7.626324e-001
3.012392e+003,7.671538e-001
3.016249e+003,7.712898e-001
3.020106e+003,7.769482e-001
3.023963e+003,7.912721e-001
3.027821e+003,8.043613e-001
3.031677e+003,8.080115e-001
3.035535e+003,8.091239e-001
3.039392e+003,8.173999e-001
3.043249e+003,8.272942e-001
3.047106e+003,8.286654e-001
3.050963e+003,8.318430e-001
3.054820e+003,8.454494e-001
3.058677e+003,8.560356e-001
3.062534e+003,8.520169e-001
3.066391e+003,8.524035e-001
3.070249e+003,8.659227e-001
3.074106e+003,8.812171e-001
3.077963e+003,8.859418e-001
3.081820e+003,8.816316e-001
3.085677e+003,8.819745e-001
3.089534e+003,8.943070e-001
3.093391e+003,9.044492e-001
3.097248e+003,9.205429e-001
3.101105e+003,9.271680e-001
3.104962e+003,9.325947e-001
3.108820e+003,9.444358e-001
3.112677e+003,9.390922e-001
3.116534e+003,9.381837e-001
3.120391e+003,9.504861e-001
3.124248e+003,9.553612e-001
3.128105e+003,9.633843e-001
3.131962e+003,9.792159e-001
3.135819e+003,9.977904e-001
3.139676e+003,9.965332e-001
3.143533e+003,1.001638e+000
3.147390e+003,1.010003e+000
3.151248e+003,1.019071e+000
3.155105e+003,1.034141e+000
3.158962e+003,1.039544e+000
3.162819e+003,1.049615e+000
3.166676e+003,1.057906e+000
3.170533e+003,1.057001e+000
3.174390e+003,1.056502e+000
3.178247e+003,1.053733e+000
3.182104e+003,1.064317e+000
3.185961e+003,1.086786e+000
3.189819e+003,1.100497e+000
3.193676e+003,1.095653e+000
3.197533e+003,1.099637e+000
3.201390e+003,1.123340e+000
3.205247e+003,1.126326e+000
3.209104e+003,1.121781e+000
3.212961e+003,1.123266e+000
3.216818e+003,1.125240e+000
3.220675e+003,1.146387e+000
3.224532e+003,1.154914e+000
3.228389e+003,1.147906e+000
3.232247e+003,1.155769e+000
3.236104e+003,1.162675e+000
3.239961e+003,1.159306e+000
3.243818e+003,1.166565e+000
3.247675e+003,1.174658e+000
3.251532e+003,1.186935e+000
3.255389e+003,1.199925e+000
3.259246e+003,1.200255e+000
3.263103e+003,1.203833e+000
3.266960e+003,1.220387e+000
3.270818e+003,1.233956e+000
3.274675e+003,1.220790e+000
3.278532e+003,1.217064e+000
3.282389e+003,1.229961e+000
3.286246e+003,1.247529e+000
3.290103e+003,1.240460e+000
3.293960e+003,1.236635e+000
3.297817e+003,1.242335e+000
3.301674e+003,1.246186e+000
3.305531e+003,1.261541e+000
3.309388e+003,1.298090e+000
3.313246e+003,1.287202e+000
3.317103e+003,1.268593e+000
3.320960e+003,1.265761e+000
3.324817e+003,1.276229e+000
3.328674e+003,1.285807e+000
3.332531e+003,1.299578e+000
3.336388e+003,1.332806e+000
3.340245e+003,1.348374e+000
3.344102e+003,1.314838e+000
3.347959e+003,1.295383e+000
3.351817e+003,1.316981e+000
3.355674e+003,1.342198e+000
3.359531e+003,1.349186e+000
3.363388e+003,1.351834e+000
3.367245e+003,1.366660e+000
3.371102e+003,1.372234e+000
3.374959e+003,1.365856e+000
3.378816e+003,1.339996e+000
3.382673e+003,1.337412e+000
3.386530e+003,1.363837e+000
3.390387e+003,1.385077e+000
3.394245e+003,1.406475e+000
3.398102e+003,1.424984e+000
3.401959e+003,1.401298e+000
3.405816e+003,1.392056e+000
3.409673e+003,1.387061e+000
3.413530e+003,1.368626e+000
3.417387e+003,1.365506e+000
3.421244e+003,1.390161e+000
3.425101e+003,1.413266e+000
3.428958e+003,1.424129e+000
3.432815e+003,1.422813e+000
3.436673e+003,1.440162e+000
3.440530e+003,1.420889e+000
3.444387e+003,1.411700e+000
3.448244e+003,1.414575e+000
3.452101e+003,1.415465e+000
3.455958e+003,1.435368e+000
3.459815e+003,1.481840e+000
3.463672e+003,1.466391e+000
3.467529e+003,1.425131e+000
3.471386e+003,1.440402e+000
3.475244e+003,1.458096e+000
3.479101e+003,1.467482e+000
3.482958e+003,1.506019e+000
3.486815e+003,1.525146e+000
3.490672e+003,1.495957e+000
3.494529e+003,1.450207e+000
3.498386e+003,1.444487e+000
3.502243e+003,1.452005e+000
3.506100e+003,1.451323e+000
3.509958e+003,1.499333e+000
3.513814e+003,1.509616e+000
3.517672e+003,1.449847e+000
3.521529e+003,1.428866e+000
3.525386e+003,1.446318e+000
3.529243e+003,1.444135e+000
3.533100e+003,1.458701e+000
3.536957e+003,1.454228e+000
3.540814e+003,1.448998e+000
3.544671e+003,1.446652e+000
3.548528e+003,1.458796e+000
3.552385e+003,1.461802e+000
3.556243e+003,1.428552e+000
3.560100e+003,1.426313e+000
3.563957e+003,1.435185e+000
3.567814e+003,1.395061e+000
3.571671e+003,1.352689e+000
3.575528e+003,1.382353e+000
3.579385e+003,1.402601e+000
3.583242e+003,1.366476e+000
3.587099e+003,1.349241e+000
3.590957e+003,1.338002e+000
3.594813e+003,1.304481e+000
3.598671e+003,1.259514e+000
3.602528e+003,1.215579e+000
3.606385e+003,1.173031e+000
3.610242e+003,1.127216e+000
3.614099e+003,1.091127e+000
3.617956e+003,1.048216e+000
3.621813e+003,9.989458e-001
3.625670e+003,9.414019e-001
3.629527e+003,8.845608e-001
3.633385e+003,8.253266e-001
3.637242e+003,7.636384e-001
3.641099e+003,7.065544e-001
3.644956e+003,6.564271e-001
3.648813e+003,6.083343e-001
3.652670e+003,5.582060e-001
3.656527e+003,5.079124e-001
3.660384e+003,4.621323e-001
3.664241e+003,4.257625e-001
3.668098e+003,3.934876e-001
3.671956e+003,3.623149e-001
3.675813e+003,3.345315e-001
3.679670e+003,3.103868e-001
3.683527e+003,2.865541e-001
3.687384e+003,2.679537e-001
3.691241e+003,2.532015e-001
3.695098e+003,2.389560e-001
3.698955e+003,2.232935e-001
3.702812e+003,2.132960e-001
3.706669e+003,2.062075e-001
3.710526e+003,1.982994e-001
3.714384e+003,1.903496e-001
3.718241e+003,1.832672e-001
3.722098e+003,1.783526e-001
3.725955e+003,1.752804e-001
3.729812e+003,1.724268e-001
3.733669e+003,1.684564e-001
3.737526e+003,1.658214e-001
3.741383e+003,1.635642e-001
3.745240e+003,1.598502e-001
3.749097e+003,1.589828e-001
3.752955e+003,1.597615e-001
3.756812e+003,1.589804e-001
3.760669e+003,1.566058e-001
3.764526e+003,1.559990e-001
3.768383e+003,1.558874e-001
3.772240e+003,1.582397e-001
3.776097e+003,1.556891e-001
3.779954e+003,1.515444e-001
3.783811e+003,1.514522e-001
3.787668e+003,1.518763e-001
3.791525e+003,1.501068e-001
3.795383e+003,1.489505e-001
3.799240e+003,1.495478e-001
3.803097e+003,1.480423e-001
3.806954e+003,1.463505e-001
3.810811e+003,1.489808e-001
3.814668e+003,1.514190e-001
3.818525e+003,1.504692e-001
3.822382e+003,1.490611e-001
3.826239e+003,1.500755e-001
3.830096e+003,1.488203e-001
3.833954e+003,1.480005e-001
3.837811e+003,1.499356e-001
3.841668e+003,1.517778e-001
3.845525e+003,1.491028e-001
3.849382e+003,1.483704e-001
3.853239e+003,1.517342e-001
3.857096e+003,1.551109e-001
3.860953e+003,1.532085e-001
3.864810e+003,1.531261e-001
3.868667e+003,1.516394e-001
3.872524e+003,1.502116e-001
3.876382e+003,1.512583e-001
3.880239e+003,1.498275e-001
3.884096e+003,1.503288e-001
3.887953e+003,1.501540e-001
3.891810e+003,1.472662e-001
3.895667e+003,1.505630e-001
3.899524e+003,1.556348e-001
3.903381e+003,1.550281e-001
3.907238e+003,1.538149e-001
3.911095e+003,1.551106e-001
3.914953e+003,1.544504e-001
3.918810e+003,1.535807e-001
3.922667e+003,1.543323e-001
3.926524e+003,1.557146e-001
3.930381e+003,1.539365e-001
3.934238e+003,1.526390e-001
3.938095e+003,1.538295e-001
3.941952e+003,1.545895e-001
3.945809e+003,1.542627e-001
3.949667e+003,1.548199e-001
3.953523e+003,1.554033e-001
3.957381e+003,1.559759e-001
3.961238e+003,1.556520e-001
3.965095e+003,1.562457e-001
3.968952e+003,1.576412e-001
3.972809e+003,1.582801e-001
3.976666e+003,1.585310e-001
3.980523e+003,1.578709e-001
3.984380e+003,1.584260e-001
3.988237e+003,1.595276e-001
3.992094e+003,1.590203e-001
3.995952e+003,1.589177e-001
3.999809e+003,1.594149e-001
4.003666e+003,1.602154e-001
4.007523e+003,1.611332e-001
4.011380e+003,1.587794e-001
4.015237e+003,1.574026e-001
4.019094e+003,1.577955e-001
4.022951e+003,1.591493e-001
4.026808e+003,1.600133e-001
4.030666e+003,1.599406e-001
4.034522e+003,1.607546e-001
4.038380e+003,1.590008e-001
4.042237e+003,1.593138e-001
4.046094e+003,1.599276e-001
4.049951e+003,1.604129e-001
4.053808e+003,1.638516e-001
4.057665e+003,1.657667e-001
4.061522e+003,1.632334e-001
4.065379e+003,1.625560e-001
4.069236e+003,1.626491e-001
4.073094e+003,1.602643e-001
4.076951e+003,1.606220e-001
4.080808e+003,1.621959e-001
4.084665e+003,1.622735e-001
4.088522e+003,1.603786e-001
4.092379e+003,1.603929e-001
4.096236e+003,1.618546e-001
4.100093e+003,1.611554e-001
4.103950e+003,1.616494e-001
4.107808e+003,1.654812e-001
4.111665e+003,1.660070e-001
4.115521e+003,1.656131e-001
4.119379e+003,1.644423e-001
4.123236e+003,1.628897e-001
4.127093e+003,1.645065e-001
4.130950e+003,1.654668e-001
4.134807e+003,1.606890e-001
4.138664e+003,1.596408e-001
4.142521e+003,1.606490e-001
4.146378e+003,1.597349e-001
4.150235e+003,1.594286e-001
4.154093e+003,1.592873e-001
4.157950e+003,1.565122e-001
4.161807e+003,1.564770e-001
4.165664e+003,1.591158e-001
4.169521e+003,1.606936e-001
4.173378e+003,1.629610e-001
4.177235e+003,1.652425e-001
4.181092e+003,1.639457e-001
4.184949e+003,1.588126e-001
4.188807e+003,1.577301e-001
4.192664e+003,1.612326e-001
4.196521e+003,1.639481e-001
4.200378e+003,1.612422e-001
4.204235e+003,1.598105e-001
4.208092e+003,1.620508e-001
4.211949e+003,1.617794e-001
4.215806e+003,1.575426e-001
4.219663e+003,1.567208e-001
4.223521e+003,1.601985e-001
4.227377e+003,1.586994e-001
4.231234e+003,1.551907e-001
4.235092e+003,1.529667e-001
4.238949e+003,1.544950e-001
4.242806e+003,1.575149e-001
4.246663e+003,1.585036e-001
4.250520e+003,1.594418e-001
4.254377e+003,1.587153e-001
4.258234e+003,1.575965e-001
4.262091e+003,1.564549e-001
4.265948e+003,1.568941e-001
4.269806e+003,1.557644e-001
4.273663e+003,1.572806e-001
4.277520e+003,1.591356e-001
4.281377e+003,1.581177e-001
4.285234e+003,1.594220e-001
4.289091e+003,1.588438e-001
4.292948e+003,1.582591e-001
4.296805e+003,1.588868e-001
4.300662e+003,1.613989e-001
4.304520e+003,1.609588e-001
4.308376e+003,1.570255e-001
4.312233e+003,1.562827e-001
4.316091e+003,1.591691e-001
4.319948e+003,1.586710e-001
4.323805e+003,1.548375e-001
4.327662e+003,1.527402e-001
4.331519e+003,1.542820e-001
4.335376e+003,1.582909e-001
4.339233e+003,1.563133e-001
4.343090e+003,1.540288e-001
4.346947e+003,1.569802e-001
4.350805e+003,1.594985e-001
4.354662e+003,1.580996e-001
4.358519e+003,1.561323e-001
4.362376e+003,1.548667e-001
4.366233e+003,1.531052e-001
4.370090e+003,1.568345e-001
4.373947e+003,1.570801e-001
4.377804e+003,1.540418e-001
4.381661e+003,1.554500e-001
4.385519e+003,1.582987e-001
4.389375e+003,1.592723e-001
4.393232e+003,1.572794e-001
4.397090e+003,1.544828e-001
4.400947e+003,1.535536e-001
4.404804e+003,1.560330e-001
4.408661e+003,1.576258e-001
4.412518e+003,1.579850e-001
4.416375e+003,1.573237e-001
4.420232e+003,1.577798e-001
4.424089e+003,1.585817e-001
4.427946e+003,1.580595e-001
4.431804e+003,1.564178e-001
4.435661e+003,1.576819e-001
4.439518e+003,1.578625e-001
4.443375e+003,1.544219e-001
4.447232e+003,1.515542e-001
4.451089e+003,1.511579e-001
4.454946e+003,1.530805e-001
4.458803e+003,1.543148e-001
4.462660e+003,1.538331e-001
4.466518e+003,1.567276e-001
4.470375e+003,1.552265e-001
4.474231e+003,1.548766e-001
4.478089e+003,1.564985e-001
4.481946e+003,1.567045e-001
4.485803e+003,1.578929e-001
4.489660e+003,1.571382e-001
4.493517e+003,1.543301e-001
4.497375e+003,1.540511e-001
4.501231e+003,1.535081e-001
4.505088e+003,1.501607e-001
4.508946e+003,1.493777e-001
4.512803e+003,1.513273e-001
4.516660e+003,1.469664e-001
4.520517e+003,1.452243e-001
4.524374e+003,1.511064e-001
4.528231e+003,1.527639e-001
4.532088e+003,1.559992e-001
4.535945e+003,1.550524e-001
4.539802e+003,1.537895e-001
4.543660e+003,1.533633e-001
4.547517e+003,1.499033e-001
4.551374e+003,1.506621e-001
4.555231e+003,1.519996e-001
4.559088e+003,1.502237e-001
4.562945e+003,1.494397e-001
4.566802e+003,1.502438e-001
4.570659e+003,1.502140e-001
4.574516e+003,1.485444e-001
4.578374e+003,1.450759e-001
4.582230e+003,1.452688e-001
4.586087e+003,1.476735e-001
4.589945e+003,1.466659e-001
4.593802e+003,1.476450e-001
4.597659e+003,1.425072e-001
4.601516e+003,1.436176e-001
4.605373e+003,1.501799e-001
4.609230e+003,1.504144e-001
4.613087e+003,1.470596e-001
4.616944e+003,1.498487e-001
4.620801e+003,1.504625e-001
4.624659e+003,1.464442e-001
4.628516e+003,1.467525e-001
4.632373e+003,1.481059e-001
4.636230e+003,1.461021e-001
4.640087e+003,1.457337e-001
4.643944e+003,1.462757e-001
4.647801e+003,1.483097e-001
4.651658e+003,1.470556e-001
4.655515e+003,1.461187e-001
4.659373e+003,1.459067e-001
4.663229e+003,1.456389e-001
4.667086e+003,1.482339e-001
4.670944e+003,1.481604e-001
4.674801e+003,1.473203e-001
4.678658e+003,1.463298e-001
4.682515e+003,1.449900e-001
4.686372e+003,1.486530e-001
4.690229e+003,1.478519e-001
4.694086e+003,1.430453e-001
4.697943e+003,1.452936e-001
4.701800e+003,1.500730e-001
4.705658e+003,1.490017e-001
4.709515e+003,1.490018e-001
4.713372e+003,1.497563e-001
4.717229e+003,1.502116e-001
4.721086e+003,1.518550e-001
4.724943e+003,1.526438e-001
4.728800e+003,1.516278e-001
4.732657e+003,1.498611e-001
4.736514e+003,1.491668e-001
4.740372e+003,1.464212e-001
4.744229e+003,1.485102e-001
4.748085e+003,1.508802e-001
4.751943e+003,1.546818e-001
4.755800e+003,1.562020e-001
4.759657e+003,1.508260e-001
4.763514e+003,1.528499e-001
4.767371e+003,1.559469e-001
4.771228e+003,1.497959e-001
4.775085e+003,1.473775e-001
4.778942e+003,1.486625e-001
4.782799e+003,1.504300e-001
4.786657e+003,1.509152e-001
4.790514e+003,1.502848e-001
4.794371e+003,1.522234e-001
4.798228e+003,1.518973e-001
4.802085e+003,1.490730e-001
4.805942e+003,1.507995e-001
4.809799e+003,1.522740e-001
4.813656e+003,1.539620e-001
4.817513e+003,1.576281e-001
4.821371e+003,1.605934e-001
4.825228e+003,1.630272e-001
4.829084e+003,1.641688e-001
4.832942e+003,1.623423e-001
4.836799e+003,1.577647e-001
4.840656e+003,1.601114e-001
4.844513e+003,1.628985e-001
4.848370e+003,1.652578e-001
4.852227e+003,1.671613e-001
4.856084e+003,1.658411e-001
4.859941e+003,1.631724e-001
4.863798e+003,1.599419e-001
4.867656e+003,1.585761e-001
4.871513e+003,1.577915e-001
4.875370e+003,1.580999e-001
4.879227e+003,1.601823e-001
4.883084e+003,1.620255e-001
4.886941e+003,1.639820e-001
4.890798e+003,1.666867e-001
4.894655e+003,1.688310e-001
4.898512e+003,1.711337e-001
4.902370e+003,1.720150e-001
4.906227e+003,1.692655e-001
4.910083e+003,1.665368e-001
4.913941e+003,1.625773e-001
4.917798e+003,1.624447e-001
4.921655e+003,1.665273e-001
4.925512e+003,1.715045e-001
4.929369e+003,1.718864e-001
4.933226e+003,1.680518e-001
4.937083e+003,1.689896e-001
4.940940e+003,1.725031e-001
4.944797e+003,1.688143e-001
4.948655e+003,1.681693e-001
4.952512e+003,1.741726e-001
4.956369e+003,1.723461e-001
4.960226e+003,1.709511e-001
4.964083e+003,1.724943e-001
4.967940e+003,1.708221e-001
4.971797e+003,1.738584e-001
4.975654e+003,1.768159e-001
4.979511e+003,1.780235e-001
4.983369e+003,1.755928e-001
4.987226e+003,1.761605e-001
4.991083e+003,1.802107e-001
4.994940e+003,1.794956e-001
4.998797e+003,1.767952e-001
5.002654e+003,1.792748e-001
5.006511e+003,1.810065e-001
5.010368e+003,1.782906e-001
5.014225e+003,1.749813e-001
5.018083e+003,1.737928e-001
5.021939e+003,1.772861e-001
5.025796e+003,1.806448e-001
5.029654e+003,1.786399e-001
5.033511e+003,1.778995e-001
5.037368e+003,1.781650e-001
5.041225e+003,1.790996e-001
5.045082e+003,1.834151e-001
5.048939e+003,1.884630e-001
5.052796e+003,1.858388e-001
5.056653e+003,1.834067e-001
5.060510e+003,1.841457e-001
5.064368e+003,1.812236e-001
5.068225e+003,1.792911e-001
5.072082e+003,1.803474e-001
5.075939e+003,1.809498e-001
5.079796e+003,1.833254e-001
5.083653e+003,1.805787e-001
5.087510e+003,1.782946e-001
5.091367e+003,1.830828e-001
5.095224e+003,1.829290e-001
5.099082e+003,1.828009e-001
5.102938e+003,1.852327e-001
5.106795e+003,1.843151e-001
5.110653e+003,1.798964e-001
5.114510e+003,1.762496e-001
5.118367e+003,1.851232e-001
5.122224e+003,1.892962e-001
5.126081e+003,1.886377e-001
5.129938e+003,1.906237e-001
5.133795e+003,1.895060e-001
5.137652e+003,1.892232e-001
5.141509e+003,1.852214e-001
5.145367e+003,1.805127e-001
5.149224e+003,1.824503e-001
5.153081e+003,1.791985e-001
5.156938e+003,1.751619e-001
5.160795e+003,1.770846e-001
5.164652e+003,1.799746e-001
5.168509e+003,1.794099e-001
5.172366e+003,1.859927e-001
5.176223e+003,1.909051e-001
5.180081e+003,1.896100e-001
5.183938e+003,1.883784e-001
5.187794e+003,1.893328e-001
5.191652e+003,1.865539e-001
5.195509e+003,1.893965e-001
5.199366e+003,1.937723e-001
5.203223e+003,1.932813e-001
5.207080e+003,1.884207e-001
5.210937e+003,1.849214e-001
5.214794e+003,1.864219e-001
5.218651e+003,1.919478e-001
5.222508e+003,1.928331e-001
5.226366e+003,1.891972e-001
5.230223e+003,1.850832e-001
5.234080e+003,1.849734e-001
5.237937e+003,1.897038e-001
5.241794e+003,1.928400e-001
5.245651e+003,1.870570e-001
5.249508e+003,1.785816e-001
5.253365e+003,1.760767e-001
5.257222e+003,1.761703e-001
5.261080e+003,1.812430e-001
5.264937e+003,1.788722e-001
5.268793e+003,1.789947e-001
5.272651e+003,1.838726e-001
5.276508e+003,1.830010e-001
5.280365e+003,1.817476e-001
5.284222e+003,1.846769e-001
5.288079e+003,1.874778e-001
5.291936e+003,1.829034e-001
5.295793e+003,1.733178e-001
5.299650e+003,1.719480e-001
5.303507e+003,1.731691e-001
5.307365e+003,1.764581e-001
5.311222e+003,1.798177e-001
5.315079e+003,1.766740e-001
5.318936e+003,1.693241e-001
5.322793e+003,1.696843e-001
5.326650e+003,1.734523e-001
5.330507e+003,1.728680e-001
5.334364e+003,1.731045e-001
5.338221e+003,1.772763e-001
5.342079e+003,1.805608e-001
5.345936e+003,1.807498e-001
5.349792e+003,1.738678e-001
5.353650e+003,1.710032e-001
5.357507e+003,1.747624e-001
5.361364e+003,1.714637e-001
5.365221e+003,1.737011e-001
5.369078e+003,1.729319e-001
5.372935e+003,1.743610e-001
5.376792e+003,1.755194e-001
5.380649e+003,1.704181e-001
5.384506e+003,1.701077e-001
5.388364e+003,1.774274e-001
5.392221e+003,1.752541e-001
5.396078e+003,1.678527e-001
5.399935e+003,1.681473e-001
5.403792e+003,1.724335e-001
5.407649e+003,1.724364e-001
5.411506e+003,1.738191e-001
5.415363e+003,1.727810e-001
5.419220e+003,1.737930e-001
5.423078e+003,1.765719e-001
5.426935e+003,1.785255e-001
5.430792e+003,1.780992e-001
5.434649e+003,1.723876e-001
5.438506e+003,1.738263e-001
5.442363e+003,1.766854e-001
5.446220e+003,1.734462e-001
5.450077e+003,1.705968e-001
5.453934e+003,1.682061e-001
5.457792e+003,1.693578e-001
5.461648e+003,1.802483e-001
5.465505e+003,1.865488e-001
5.469363e+003,1.812521e-001
5.473220e+003,1.719519e-001
5.477077e+003,1.698392e-001
5.480934e+003,1.716157e-001
5.484791e+003,1.711018e-001
5.488648e+003,1.644371e-001
5.492505e+003,1.624405e-001
5.496362e+003,1.692742e-001
5.500219e+003,1.798426e-001
5.504077e+003,1.834763e-001
5.507934e+003,1.738329e-001
5.511791e+003,1.706909e-001
5.515648e+003,1.715528e-001
5.519505e+003,1.653832e-001
5.523362e+003,1.666968e-001
5.527219e+003,1.704043e-001
5.531076e+003,1.688575e-001
5.534933e+003,1.654700e-001
5.538791e+003,1.690501e-001
5.542647e+003,1.707016e-001
5.546504e+003,1.736771e-001
5.550362e+003,1.747688e-001
5.554219e+003,1.707390e-001
5.558076e+003,1.694494e-001
5.561933e+003,1.726075e-001
5.565790e+003,1.709719e-001
5.569647e+003,1.731533e-001
5.573504e+003,1.750459e-001
5.577361e+003,1.708614e-001
5.581218e+003,1.713677e-001
5.585076e+003,1.700365e-001
5.588933e+003,1.687691e-001
5.592790e+003,1.748084e-001
5.596647e+003,1.740662e-001
5.600504e+003,1.692142e-001
5.604361e+003,1.657008e-001
5.608218e+003,1.706936e-001
5.612075e+003,1.764510e-001
5.615932e+003,1.740147e-001
5.619790e+003,1.677876e-001
5.623646e+003,1.648636e-001
5.627503e+003,1.663068e-001
5.631361e+003,1.683839e-001
5.635218e+003,1.718048e-001
5.639075e+003,1.791205e-001
5.642932e+003,1.792162e-001
5.646789e+003,1.762377e-001
5.650646e+003,1.748306e-001
5.654503e+003,1.702036e-001
5.658360e+003,1.666076e-001
5.662217e+003,1.738172e-001
5.666075e+003,1.783351e-001
5.669932e+003,1.744688e-001
5.673789e+003,1.727172e-001
5.677646e+003,1.771761e-001
5.681503e+003,1.771908e-001
5.685360e+003,1.784209e-001
5.689217e+003,1.815842e-001
5.693074e+003,1.821419e-001
5.696931e+003,1.840140e-001
5.700789e+003,1.801086e-001
5.704646e+003,1.707738e-001
5.708502e+003,1.642440e-001
5.712360e+003,1.618667e-001
5.716217e+003,1.668079e-001
5.720074e+003,1.695302e-001
5.723931e+003,1.731346e-001
5.727788e+003,1.730591e-001
5.731645e+003,1.710199e-001
5.735502e+003,1.790408e-001
5.739359e+003,1.839430e-001
5.743216e+003,1.749466e-001
5.747074e+003,1.661796e-001
5.750931e+003,1.698244e-001
5.754788e+003,1.770139e-001
5.758645e+003,1.692164e-001
5.762502e+003,1.695309e-001
5.766359e+003,1.739648e-001
5.770216e+003,1.721731e-001
5.774073e+003,1.754128e-001
5.777930e+003,1.733086e-001
5.781788e+003,1.697800e-001
5.785645e+003,1.769853e-001
5.789501e+003,1.798437e-001
5.793359e+003,1.770070e-001
5.797216e+003,1.776329e-001
5.801073e+003,1.768729e-001
5.804930e+003,1.765784e-001
5.808787e+003,1.827470e-001
5.812644e+003,1.807578e-001
5.816501e+003,1.763345e-001
5.820358e+003,1.784870e-001
5.824215e+003,1.701966e-001
5.828073e+003,1.636859e-001
5.831930e+003,1.698176e-001
5.835787e+003,1.736654e-001
5.839644e+003,1.732670e-001
5.843501e+003,1.770653e-001
5.847358e+003,1.807109e-001
5.851215e+003,1.799180e-001
5.855072e+003,1.770677e-001
5.858929e+003,1.786523e-001
5.862787e+003,1.744401e-001
5.866644e+003,1.651599e-001
5.870500e+003,1.673233e-001
5.874358e+003,1.716012e-001
5.878215e+003,1.767914e-001
5.882072e+003,1.758002e-001
5.885929e+003,1.739168e-001
5.889786e+003,1.768583e-001
5.893643e+003,1.861978e-001
5.897500e+003,1.876328e-001
5.901357e+003,1.836227e-001
5.905214e+003,1.858505e-001
5.909072e+003,1.875008e-001
5.912929e+003,1.775663e-001
5.916786e+003,1.734480e-001
5.920643e+003,1.753591e-001
5.924500e+003,1.793199e-001
5.928357e+003,1.866554e-001
5.932214e+003,1.873210e-001
5.936071e+003,1.785249e-001
5.939928e+003,1.713852e-001
5.943786e+003,1.754003e-001
5.947643e+003,1.777728e-001
5.951500e+003,1.703644e-001
5.955357e+003,1.714189e-001
5.959214e+003,1.763684e-001
5.963071e+003,1.770202e-001
5.966928e+003,1.805273e-001
5.970785e+003,1.793321e-001
5.974642e+003,1.794866e-001
5.978500e+003,1.804214e-001
5.982356e+003,1.768657e-001
5.986213e+003,1.820823e-001
5.990071e+003,1.828923e-001
5.993928e+003,1.793961e-001
5.997785e+003,1.837365e-001
6.001642e+003,1.788679e-001
6.005499e+003,1.751634e-001
6.009356e+003,1.792918e-001
6.013213e+003,1.803752e-001
6.017070e+003,1.809236e-001
6.020927e+003,1.800580e-001
6.024785e+003,1.789934e-001
6.028642e+003,1.828273e-001
6.032499e+003,1.851793e-001
6.036356e+003,1.771300e-001
6.040213e+003,1.701368e-001
6.044070e+003,1.701569e-001
6.047927e+003,1.737490e-001
6.051784e+003,1.790450e-001
6.055641e+003,1.740518e-001
6.059499e+003,1.686562e-001
6.063355e+003,1.713675e-001
6.067212e+003,1.764107e-001
6.071070e+003,1.787079e-001
6.074927e+003,1.815715e-001
6.078784e+003,1.760919e-001
6.082641e+003,1.660554e-001
6.086498e+003,1.718537e-001
6.090355e+003,1.800967e-001
6.094212e+003,1.787371e-001
6.098069e+003,1.765587e-001
6.101926e+003,1.768263e-001
6.105784e+003,1.765971e-001
6.109641e+003,1.793902e-001
6.113498e+003,1.754042e-001
6.117355e+003,1.720628e-001
6.121212e+003,1.698633e-001
6.125069e+003,1.771010e-001
6.128926e+003,1.888982e-001
6.132783e+003,1.814402e-001
6.136640e+003,1.748434e-001
6.140498e+003,1.804204e-001
6.144354e+003,1.833188e-001
6.148211e+003,1.753062e-001
6.152069e+003,1.672240e-001
6.155926e+003,1.677068e-001
6.159783e+003,1.695869e-001
6.163640e+003,1.759211e-001
6.167497e+003,1.836628e-001
6.171354e+003,1.858232e-001
6.175211e+003,1.837846e-001
6.179068e+003,1.778993e-001
6.182925e+003,1.732886e-001
6.186783e+003,1.697482e-001
6.190640e+003,1.809494e-001
6.194497e+003,1.859144e-001
6.198354e+003,1.817611e-001
6.202211e+003,1.794103e-001
6.206068e+003,1.766122e-001
6.209925e+003,1.768131e-001
6.213782e+003,1.719254e-001
6.217639e+003,1.628394e-001
6.221497e+003,1.630120e-001
6.225354e+003,1.696423e-001
6.229210e+003,1.696785e-001
6.233068e+003,1.716635e-001
6.236925e+003,1.701193e-001
6.240782e+003,1.674906e-001
6.244639e+003,1.722115e-001
6.248496e+003,1.740533e-001
6.252353e+003,1.736717e-001
6.256210e+003,1.786283e-001
6.260067e+003,1.814737e-001
6.263924e+003,1.771642e-001
6.267782e+003,1.656910e-001
6.271639e+003,1.673959e-001
6.275496e+003,1.812280e-001
6.279353e+003,1.807836e-001
6.283210e+003,1.699138e-001
6.287067e+003,1.746127e-001
6.290924e+003,1.833576e-001
6.294781e+003,1.843356e-001
6.298638e+003,1.837482e-001
6.302496e+003,1.778788e-001
6.306353e+003,1.706710e-001
6.310209e+003,1.666218e-001
6.314067e+003,1.688473e-001
6.317924e+003,1.697624e-001
6.321781e+003,1.848959e-001
6.325638e+003,1.774590e-001
6.329495e+003,1.618805e-001
6.333352e+003,1.700033e-001
6.337209e+003,1.769946e-001
6.341066e+003,1.708155e-001
6.344923e+003,1.731232e-001
6.348780e+003,1.739255e-001
6.352638e+003,1.638594e-001
6.356495e+003,1.687810e-001
6.360352e+003,1.732140e-001
6.364209e+003,1.754800e-001
6.368066e+003,1.768278e-001
6.371923e+003,1.689172e-001
6.375780e+003,1.713808e-001
6.379637e+003,1.793557e-001
6.383494e+003,1.746326e-001
6.387352e+003,1.736086e-001
6.391208e+003,1.781038e-001
6.395065e+003,1.741314e-001
6.398923e+003,1.741464e-001
6.402780e+003,1.769573e-001
6.406637e+003,1.856400e-001
6.410494e+003,1.815053e-001
6.414351e+003,1.827394e-001
6.418208e+003,1.896818e-001
6.422065e+003,1.797051e-001
6.425922e+003,1.746222e-001
6.429779e+003,1.826698e-001
6.433637e+003,1.882064e-001
6.437494e+003,1.734914e-001
6.441351e+003,1.653432e-001
6.445208e+003,1.691106e-001
6.449065e+003,1.826394e-001
6.452922e+003,1.893449e-001
6.456779e+003,1.825291e-001
6.460636e+003,1.808852e-001
6.464493e+003,1.761419e-001
6.468351e+003,1.797876e-001
6.472208e+003,1.858812e-001
6.476064e+003,1.834878e-001
6.479922e+003,1.844134e-001
6.483779e+003,1.786903e-001
6.487636e+003,1.727615e-001
6.491493e+003,1.828607e-001
6.495350e+003,1.996419e-001
6.499207e+003,2.013781e-001
6.503064e+003,1.845275e-001
6.506921e+003,1.712884e-001
6.510778e+003,1.802480e-001
6.514636e+003,1.832712e-001
6.518493e+003,1.787620e-001
6.522350e+003,1.784991e-001
6.526207e+003,1.836520e-001
6.530064e+003,1.857449e-001
6.533921e+003,1.858364e-001
6.537778e+003,1.851636e-001
6.541635e+003,1.814104e-001
6.545492e+003,1.823114e-001
6.549350e+003,1.830263e-001
6.553207e+003,1.830994e-001
6.557063e+003,1.829485e-001
6.560921e+003,1.808156e-001
6.564778e+003,1.729055e-001
6.568635e+003,1.745164e-001
6.572492e+003,1.754596e-001
6.576349e+003,1.674433e-001
6.580206e+003,1.686889e-001
6.584063e+003,1.718394e-001
6.587920e+003,1.820093e-001
6.591777e+003,1.952425e-001
6.595635e+003,1.985864e-001
6.599492e+003,1.835750e-001
6.603349e+003,1.728452e-001
6.607206e+003,1.676393e-001
6.611063e+003,1.697143e-001
6.614920e+003,1.819532e-001
6.618777e+003,1.783357e-001
6.622634e+003,1.723082e-001
6.626491e+003,1.807610e-001
6.630349e+003,1.892153e-001
6.634206e+003,1.909182e-001
6.638063e+003,1.915501e-001
6.641920e+003,1.905748e-001
6.645777e+003,1.838895e-001
6.649634e+003,1.738054e-001
6.653491e+003,1.728332e-001
6.657348e+003,1.694843e-001
6.661205e+003,1.733087e-001
6.665063e+003,1.840533e-001
6.668919e+003,1.853016e-001
6.672776e+003,1.786841e-001
6.676634e+003,1.788319e-001
6.680491e+003,1.847952e-001
6.684348e+003,1.873804e-001
6.688205e+003,1.888897e-001
6.692062e+003,1.919011e-001
6.695919e+003,1.909042e-001
6.699776e+003,1.775956e-001
6.703633e+003,1.807784e-001
6.707490e+003,1.661387e-001
6.711348e+003,1.686244e-001
6.715205e+003,1.894522e-001
6.719062e+003,1.989818e-001
6.722919e+003,1.954217e-001
6.726776e+003,1.906293e-001
6.730633e+003,1.995855e-001
6.734490e+003,2.079411e-001
6.738347e+003,2.149473e-001
6.742204e+003,2.137647e-001
6.746062e+003,1.996696e-001
6.749918e+003,2.016171e-001
6.753775e+003,2.034558e-001
6.757633e+003,1.964108e-001
6.761490e+003,2.045802e-001
6.765347e+003,1.942623e-001
6.769204e+003,1.832454e-001
6.773061e+003,1.784389e-001
6.776918e+003,1.766738e-001
6.780775e+003,1.812134e-001
6.784632e+003,1.891226e-001
6.788489e+003,1.944893e-001
6.792347e+003,1.937494e-001
6.796204e+003,1.970536e-001
6.800061e+003,2.058679e-001
6.803918e+003,1.981355e-001
6.807775e+003,1.841870e-001
6.811632e+003,1.839430e-001
6.815489e+003,1.860888e-001
6.819346e+003,1.791576e-001
6.823203e+003,1.819024e-001
6.827061e+003,1.908946e-001
6.830917e+003,1.906681e-001
6.834774e+003,2.023683e-001
6.838632e+003,2.017948e-001
6.842489e+003,2.028480e-001
6.846346e+003,1.976628e-001
6.850203e+003,1.913049e-001
6.854060e+003,1.884064e-001
6.857917e+003,1.898744e-001
6.861774e+003,1.946582e-001
6.865631e+003,1.976464e-001
6.869488e+003,1.881291e-001
6.873346e+003,1.778612e-001
6.877203e+003,1.729615e-001
6.881060e+003,1.798791e-001
6.884917e+003,2.131807e-001
6.888774e+003,2.246973e-001
6.892631e+003,2.014904e-001
6.896488e+003,1.859888e-001
6.900345e+003,1.941515e-001
6.904202e+003,1.988019e-001
6.908060e+003,1.829417e-001
6.911917e+003,1.839155e-001
6.915773e+003,1.955652e-001
6.919631e+003,2.015513e-001
6.923488e+003,1.992883e-001
6.927345e+003,1.981497e-001
6.931202e+003,2.035767e-001
6.935059e+003,2.089439e-001
6.938916e+003,2.020963e-001
6.942773e+003,1.810289e-001
6.946630e+003,1.758396e-001
6.950487e+003,1.780668e-001
6.954345e+003,1.769165e-001
6.958202e+003,1.826559e-001
6.962059e+003,1.929836e-001
6.965916e+003,2.119050e-001
6.969773e+003,2.070093e-001
6.973630e+003,2.017121e-001
6.977487e+003,2.225053e-001
6.981344e+003,2.149406e-001
6.985201e+003,1.938194e-001
6.989059e+003,1.792145e-001
6.992916e+003,1.891460e-001
6.996772e+003,1.950934e-001
7.000630e+003,1.926033e-001
7.004487e+003,1.946468e-001
7.008344e+003,2.178997e-001
7.012201e+003,2.137036e-001
7.016058e+003,1.913797e-001
7.019915e+003,1.929049e-001
7.023772e+003,2.206030e-001
7.027629e+003,2.212495e-001
7.031486e+003,2.005541e-001
7.035344e+003,1.971759e-001
7.039201e+003,2.062995e-001
7.043058e+003,2.185697e-001
7.046915e+003,2.122210e-001
7.050772e+003,2.146021e-001
7.054629e+003,2.221857e-001
7.058486e+003,2.169172e-001
7.062343e+003,2.019372e-001
7.066200e+003,1.935492e-001
7.070058e+003,1.930420e-001
7.073915e+003,1.881150e-001
7.077771e+003,1.990558e-001
7.081629e+003,2.063271e-001
7.085486e+003,2.005083e-001
7.089343e+003,2.057791e-001
7.093200e+003,1.972503e-001
7.097057e+003,1.682302e-001
7.100914e+003,1.663550e-001
7.104771e+003,1.901448e-001
7.108628e+003,2.152797e-001
7.112485e+003,2.146784e-001
7.116343e+003,2.073852e-001
7.120200e+003,2.034775e-001
7.124057e+003,2.107407e-001
7.127914e+003,2.178317e-001
7.131771e+003,2.254565e-001
7.135628e+003,2.179762e-001
7.139485e+003,1.943863e-001
7.143342e+003,1.902937e-001
7.147199e+003,1.990175e-001
7.151057e+003,1.858199e-001
7.154914e+003,1.946933e-001
7.158771e+003,2.125772e-001
7.162628e+003,2.065979e-001
7.166485e+003,2.015368e-001
7.170342e+003,2.043559e-001
7.174199e+003,1.963639e-001
7.178056e+003,2.028681e-001
7.181913e+003,2.073876e-001
7.185771e+003,2.098393e-001
7.189627e+003,1.814917e-001
7.193484e+003,1.823280e-001
7.197342e+003,1.888701e-001
7.201199e+003,1.818439e-001
7.205056e+003,1.843224e-001
7.208913e+003,1.971981e-001
7.212770e+003,2.186225e-001
7.216627e+003,2.329157e-001
7.220484e+003,2.151951e-001
7.224341e+003,1.771675e-001
7.228198e+003,1.970089e-001
7.232056e+003,2.246546e-001
7.235913e+003,2.002398e-001
7.239770e+003,1.992286e-001
7.243627e+003,2.085123e-001
7.247484e+003,1.876399e-001
7.251341e+003,1.610600e-001
7.255198e+003,1.901701e-001
7.259055e+003,2.068508e-001
7.262912e+003,2.097488e-001
7.266770e+003,2.229627e-001
7.270626e+003,2.057283e-001
7.274483e+003,2.014571e-001
7.278341e+003,1.941477e-001
7.282198e+003,2.023770e-001
7.286055e+003,2.095411e-001
7.289912e+003,1.998161e-001
7.293769e+003,1.908876e-001
7.297626e+003,1.946834e-001
7.301483e+003,2.122546e-001
7.305340e+003,2.093142e-001
7.309197e+003,2.199913e-001
7.313055e+003,2.490280e-001
7.316912e+003,2.418657e-001
7.320769e+003,2.085856e-001
7.324626e+003,1.918200e-001
7.328483e+003,1.976726e-001
7.332340e+003,2.298725e-001
7.336197e+003,2.229813e-001
7.340054e+003,2.052471e-001
7.343911e+003,2.030099e-001
7.347769e+003,2.365838e-001
7.351625e+003,2.448703e-001
7.355482e+003,2.175350e-001
7.359340e+003,1.785933e-001
7.363197e+003,1.660953e-001
7.367054e+003,1.754647e-001
7.370911e+003,2.057966e-001
7.374768e+003,2.179652e-001
7.378625e+003,2.260339e-001
7.382482e+003,2.307933e-001
7.386339e+003,1.904123e-001
7.390196e+003,1.835369e-001
7.394054e+003,1.964203e-001
7.397911e+003,1.808408e-001
7.401768e+003,1.822614e-001
7.405625e+003,2.234983e-001
7.409482e+003,2.543380e-001
7.413339e+003,2.088743e-001
7.417196e+003,1.893878e-001
7.421053e+003,2.245864e-001
7.424910e+003,2.229908e-001
7.428768e+003,1.963548e-001
7.432625e+003,2.020078e-001
7.436481e+003,2.353230e-001
7.440339e+003,2.450754e-001
7.444196e+003,2.564298e-001
7.448053e+003,2.335519e-001
7.451910e+003,1.873550e-001
7.455767e+003,1.750095e-001
7.459624e+003,1.779859e-001
7.463481e+003,1.974339e-001
7.467338e+003,2.142797e-001
7.471195e+003,2.072274e-001
7.475053e+003,1.724385e-001
7.478910e+003,1.678236e-001
7.482767e+003,1.861819e-001
7.486624e+003,2.034320e-001
7.490481e+003,2.371040e-001
7.494338e+003,2.463774e-001
7.498195e+003,2.491812e-001
7.502052e+003,2.651840e-001
7.505909e+003,2.562566e-001
7.509767e+003,2.315443e-001
7.513624e+003,2.074879e-001
7.517480e+003,1.995441e-001
7.521338e+003,2.137716e-001
7.525195e+003,2.391825e-001
7.529052e+003,2.419100e-001
7.532909e+003,1.959052e-001
7.536766e+003,2.023715e-001
7.540623e+003,2.248120e-001
7.544480e+003,2.031192e-001
7.548337e+003,2.202314e-001
7.552194e+003,2.495415e-001
7.556052e+003,2.477372e-001
7.559909e+003,2.522993e-001
7.563766e+003,2.514975e-001
7.567623e+003,2.260486e-001
7.571480e+003,2.283957e-001
7.575337e+003,2.403477e-001
7.579194e+003,2.527174e-001
7.583051e+003,2.611695e-001
7.586908e+003,2.661406e-001
7.590766e+003,2.407653e-001
7.594623e+003,1.950222e-001
7.598479e+003,2.117702e-001
7.602337e+003,2.602693e-001
7.606194e+003,2.392197e-001
7.610051e+003,2.197821e-001
7.613908e+003,1.887450e-001
7.617765e+003,1.687988e-001
7.621622e+003,1.910191e-001
7.625479e+003,2.036372e-001
7.629336e+003,2.010819e-001
7.633193e+003,1.697760e-001
7.637051e+003,1.795447e-001
7.640908e+003,2.007153e-001
7.644765e+003,2.334268e-001
7.648622e+003,2.166294e-001
7.652479e+003,1.929982e-001
7.656336e+003,1.839508e-001
7.660193e+003,1.751295e-001
7.664050e+003,1.687749e-001
7.667907e+003,1.256866e-001
7.671765e+003,1.229302e-001
7.675622e+003,1.747737e-001
7.679479e+003,1.801994e-001
7.683336e+003,1.969297e-001
7.687193e+003,2.122604e-001
7.691050e+003,1.840324e-001
7.694907e+003,1.902309e-001
7.698764e+003,1.857725e-001
7.702621e+003,1.606802e-001
7.706479e+003,1.822837e-001
7.710335e+003,2.312454e-001
7.714192e+003,2.720143e-001
7.718050e+003,2.564524e-001
7.721907e+003,2.547571e-001
7.725764e+003,2.363488e-001
7.729621e+003,2.067718e-001
7.733478e+003,2.071152e-001
7.737335e+003,1.851137e-001
7.741192e+003,1.965799e-001
7.745049e+003,1.625465e-001
7.748906e+003,1.453029e-001
7.752764e+003,2.020382e-001
7.756621e+003,2.476178e-001
7.760478e+003,2.152911e-001
7.764335e+003,1.888448e-001
7.768192e+003,1.955250e-001
7.772049e+003,1.832465e-001
7.775906e+003,2.042537e-001
7.779763e+003,1.995691e-001
7.783620e+003,1.729453e-001
7.787478e+003,1.612579e-001
7.791334e+003,1.924883e-001
7.795191e+003,2.491191e-001
7.799049e+003,2.719485e-001
7.802906e+003,2.449172e-001
7.806763e+003,2.187266e-001
7.810620e+003,1.623112e-001
7.814477e+003,1.978229e-001
7.818334e+003,2.394165e-001
7.822191e+003,2.003995e-001
7.826048e+003,1.731047e-001
7.829905e+003,1.973529e-001
7.833763e+003,2.282848e-001
7.837620e+003,1.949502e-001
7.841477e+003,2.165056e-001
7.845334e+003,3.032393e-001
7.849191e+003,2.849218e-001
7.853048e+003,2.400251e-001
7.856905e+003,2.098105e-001
7.860762e+003,2.366238e-001
7.864619e+003,2.625427e-001
7.868477e+003,2.846532e-001
7.872333e+003,2.987382e-001
7.876190e+003,2.332590e-001
7.880048e+003,1.983851e-001
7.883905e+003,2.473922e-001
7.887762e+003,2.568531e-001
7.891619e+003,2.416787e-001
7.895476e+003,2.331848e-001
7.899333e+003,2.313055e-001
7.903190e+003,2.498452e-001
7.907047e+003,2.893266e-001
7.910904e+003,2.373111e-001
7.914762e+003,2.125698e-001
7.918619e+003,2.290248e-001
7.922476e+003,1.812938e-001
7.926333e+003,1.546758e-001
7.930190e+003,1.965942e-001
7.934047e+003,2.576042e-001
7.937904e+003,2.326205e-001
7.941761e+003,1.968666e-001
7.945618e+003,1.890319e-001
7.949476e+003,1.775405e-001
7.953333e+003,1.677631e-001
7.957189e+003,1.313656e-001
7.961047e+003,2.032316e-001
7.964904e+003,3.005237e-001
7.968761e+003,2.080417e-001
7.972618e+003,1.777517e-001
7.976475e+003,1.879584e-001
7.980332e+003,2.128686e-001
7.984189e+003,2.927861e-001
7.988046e+003,3.095561e-001
7.991903e+003,3.008107e-001
7.995761e+003,2.218105e-001
7.999618e+003,1.763325e-001
