4.011380e+002,5.053117e-001
4.049951e+002,6.271309e-001
4.088522e+002,7.662524e-001
4.127093e+002,1.047820e+000
4.165664e+002,6.000000e+000
4.204235e+002,6.000000e+000
4.242806e+002,7.999786e-001
4.281377e+002,9.012418e-001
4.319948e+002,6.000000e+000
4.358519e+002,1.035144e+000
4.397090e+002,7.084770e-001
4.435661e+002,8.919935e-001
4.474232e+002,1.317104e+000
4.512803e+002,8.397223e-001
4.551374e+002,8.001094e-001
4.589945e+002,1.103161e+000
4.628516e+002,1.088055e+000
4.667087e+002,8.946952e-001
4.705658e+002,9.184090e-001
4.744229e+002,8.390566e-001
4.782800e+002,6.519163e-001
4.821371e+002,8.320279e-001
4.859941e+002,1.175115e+000
4.898513e+002,1.098814e+000
4.937083e+002,7.748885e-001
4.975654e+002,4.641119e-001
5.014225e+002,4.830522e-001
5.052796e+002,2.308774e+000
5.091367e+002,6.000000e+000
5.129938e+002,8.346308e-001
5.168509e+002,6.862395e-001
5.207080e+002,7.672485e-001
5.245651e+002,7.645462e-001
5.284222e+002,6.269259e-001
5.322793e+002,5.974821e-001
5.361364e+002,6.546796e-001
5.399935e+002,6.603953e-001
5.438506e+002,5.231119e-001
5.477077e+002,6.956382e-001
5.515648e+002,7.738061e-001
5.554219e+002,6.688339e-001
5.592790e+002,9.552842e-001
5.631361e+002,1.262146e+000
5.669932e+002,9.507879e-001
5.708503e+002,6.774719e-001
5.747074e+002,5.616128e-001
5.785645e+002,4.387917e-001
5.824216e+002,4.799515e-001
5.862787e+002,7.765722e-001
5.901357e+002,1.320301e+000
5.939929e+002,1.116515e+000
5.978499e+002,9.372954e-001
6.017070e+002,8.680012e-001
6.055641e+002,1.134551e+000
6.094212e+002,1.318203e+000
6.132783e+002,9.921740e-001
6.171354e+002,7.614711e-001
6.209925e+002,7.169166e-001
6.248496e+002,9.232625e-001
6.287067e+002,1.055739e+000
6.325638e+002,7.124047e-001
6.364209e+002,5.465869e-001
6.402780e+002,5.375173e-001
6.441351e+002,7.577573e-001
6.479922e+002,9.538805e-001
6.518493e+002,9.636064e-001
6.557064e+002,1.016583e+000
6.595635e+002,8.728719e-001
6.634205e+002,7.284340e-001
6.672777e+002,1.344374e+000
6.711348e+002,1.112337e+000
6.749918e+002,1.617656e+000
6.788490e+002,6.000000e+000
6.827061e+002,6.000000e+000
6.865631e+002,6.000000e+000
6.904203e+002,6.000000e+000
6.942773e+002,5.087031e-001
6.981344e+002,-9.962986e-002
7.019916e+002,-1.357189e-001
7.058486e+002,-2.683028e-004
7.097057e+002,-1.246493e-001
7.135629e+002,-3.538598e-001
7.174199e+002,3.023196e-002
7.212770e+002,-6.124550e-002
7.251342e+002,-5.851707e-001
7.289912e+002,-1.398925e+000
7.328483e+002,-6.824105e-001
7.367054e+002,-3.227830e-001
7.405625e+002,-2.732576e-001
7.444196e+002,-6.218553e-001
7.482767e+002,-2.643331e-001
7.521338e+002,2.267696e-001
7.559908e+002,-9.243925e-001
7.598480e+002,5.345033e-001
7.637051e+002,1.553576e+000
7.675621e+002,6.000000e+000
7.714193e+002,6.000000e+000
7.752764e+002,6.000000e+000
7.791334e+002,6.000000e+000
7.829905e+002,6.000000e+000
7.868477e+002,9.189488e-002
7.907047e+002,1.870993e-001
7.945618e+002,3.714834e-001
7.984189e+002,4.815801e-001
8.022760e+002,1.064336e+000
8.061331e+002,6.000000e+000
8.099902e+002,1.403789e+000
8.138473e+002,9.360653e-001
8.177044e+002,1.202603e+000
8.215615e+002,1.229148e+000
8.254186e+002,1.100682e+000
8.292757e+002,1.213908e+000
8.331328e+002,1.298263e+000
8.369899e+002,1.433849e+000
8.408470e+002,1.808169e+000
8.447041e+002,1.735434e+000
8.485612e+002,1.572961e+000
8.524183e+002,1.711766e+000
8.562754e+002,3.544465e+000
8.601324e+002,6.000000e+000
8.639896e+002,1.901284e+000
8.678467e+002,1.767778e+000
8.717037e+002,1.804601e+000
8.755609e+002,1.861935e+000
8.794180e+002,2.193866e+000
8.832750e+002,2.172510e+000
8.871321e+002,2.129317e+000
8.909893e+002,2.745643e+000
8.948463e+002,2.471850e+000
8.987034e+002,2.113221e+000
9.025605e+002,2.046757e+000
9.064176e+002,2.070670e+000
9.102747e+002,2.641999e+000
9.141318e+002,6.000000e+000
9.179889e+002,6.000000e+000
9.218461e+002,2.478921e+000
9.257031e+002,2.509001e+000
9.295602e+002,2.694749e+000
9.334174e+002,3.078650e+000
9.372744e+002,3.921922e+000
9.411315e+002,3.236658e+000
9.449886e+002,3.295001e+000
9.488457e+002,3.037436e+000
9.527028e+002,2.951547e+000
9.565599e+002,2.736103e+000
9.604170e+002,2.714134e+000
9.642740e+002,2.699081e+000
9.681312e+002,2.895849e+000
9.719883e+002,2.789737e+000
9.758453e+002,2.639131e+000
9.797025e+002,2.900740e+000
9.835596e+002,2.756737e+000
9.874166e+002,2.619600e+000
9.912738e+002,2.557104e+000
9.951309e+002,2.717864e+000
9.989879e+002,2.761837e+000
1.002845e+003,2.679126e+000
1.006702e+003,2.599377e+000
1.010559e+003,2.619682e+000
1.014416e+003,2.412082e+000
1.018273e+003,2.321158e+000
1.022130e+003,2.259394e+000
1.025988e+003,2.206285e+000
1.029845e+003,2.274917e+000
1.033702e+003,2.305928e+000
1.037559e+003,2.259637e+000
1.041416e+003,2.182436e+000
1.045273e+003,2.089614e+000
1.049130e+003,2.056766e+000
1.052987e+003,2.108232e+000
1.056844e+003,2.110549e+000
1.060702e+003,2.080001e+000
1.064559e+003,2.072544e+000
1.068416e+003,2.108304e+000
1.072273e+003,2.088572e+000
1.076130e+003,2.032268e+000
1.079987e+003,1.995579e+000
1.083844e+003,1.958122e+000
1.087701e+003,1.955418e+000
1.091558e+003,1.985173e+000
1.095415e+003,2.011562e+000
1.099272e+003,1.978437e+000
1.103130e+003,1.925917e+000
1.106987e+003,1.880199e+000
1.110844e+003,1.853667e+000
1.114701e+003,1.860448e+000
1.118558e+003,1.865571e+000
1.122415e+003,1.857289e+000
1.126272e+003,1.858939e+000
1.130129e+003,1.825307e+000
1.133986e+003,1.802832e+000
1.137843e+003,1.812762e+000
1.141701e+003,1.796816e+000
1.145558e+003,1.783269e+000
1.149415e+003,1.778676e+000
1.153272e+003,1.767716e+000
1.157129e+003,1.773193e+000
1.160986e+003,1.767811e+000
1.164843e+003,1.755365e+000
1.168700e+003,1.745320e+000
1.172557e+003,1.746616e+000
1.176414e+003,1.758680e+000
1.180271e+003,1.754883e+000
1.184129e+003,1.745844e+000
1.187986e+003,1.750435e+000
1.191843e+003,1.736897e+000
1.195700e+003,1.709114e+000
1.199557e+003,1.675371e+000
1.203414e+003,1.635939e+000
1.207271e+003,1.564016e+000
1.211128e+003,1.465247e+000
1.214985e+003,1.358344e+000
1.218842e+003,1.248656e+000
1.222699e+003,1.140627e+000
1.226557e+003,1.041601e+000
1.230414e+003,9.547988e-001
1.234271e+003,8.809015e-001
1.238128e+003,8.175060e-001
1.241985e+003,7.645815e-001
1.245842e+003,7.186252e-001
1.249699e+003,6.784837e-001
1.253556e+003,6.451346e-001
1.257413e+003,6.151423e-001
1.261271e+003,5.875450e-001
1.265128e+003,5.623584e-001
1.268985e+003,5.413041e-001
1.272842e+003,5.239309e-001
1.276699e+003,5.078679e-001
1.280556e+003,4.918807e-001
1.284413e+003,4.774477e-001
1.288270e+003,4.649801e-001
1.292127e+003,4.528512e-001
1.295984e+003,4.406210e-001
1.299841e+003,4.290193e-001
1.303698e+003,4.188121e-001
1.307556e+003,4.101539e-001
1.311413e+003,4.019106e-001
1.315270e+003,3.942436e-001
1.319127e+003,3.878793e-001
1.322984e+003,3.820250e-001
1.326841e+003,3.772386e-001
1.330698e+003,3.729202e-001
1.334555e+003,3.682242e-001
1.338412e+003,3.648503e-001
1.342270e+003,3.623029e-001
1.346127e+003,3.599447e-001
1.349984e+003,3.585542e-001
1.353841e+003,3.579032e-001
1.357698e+003,3.578579e-001
1.361555e+003,3.594474e-001
1.365412e+003,3.622518e-001
1.369269e+003,3.665850e-001
1.373126e+003,3.730353e-001
1.376983e+003,3.803791e-001
1.380840e+003,3.888401e-001
1.384698e+003,3.986875e-001
1.388555e+003,4.092854e-001
1.392412e+003,4.213344e-001
1.396269e+003,4.338396e-001
1.400126e+003,4.467121e-001
1.403983e+003,4.592721e-001
1.407840e+003,4.718588e-001
1.411697e+003,4.842240e-001
1.415554e+003,4.953904e-001
1.419411e+003,5.050884e-001
1.423269e+003,5.132936e-001
1.427126e+003,5.198188e-001
1.430983e+003,5.245407e-001
1.434840e+003,5.262659e-001
1.438697e+003,5.250065e-001
1.442554e+003,5.220111e-001
1.446411e+003,5.163167e-001
1.450268e+003,5.086814e-001
1.454125e+003,4.996193e-001
1.457982e+003,4.907146e-001
1.461839e+003,4.836642e-001
1.465697e+003,4.775095e-001
1.469554e+003,4.746484e-001
1.473411e+003,4.747811e-001
1.477268e+003,4.781379e-001
1.481125e+003,4.844341e-001
1.484982e+003,4.926684e-001
1.488839e+003,5.026478e-001
1.492696e+003,5.127013e-001
1.496553e+003,5.218450e-001
1.500411e+003,5.291170e-001
1.504268e+003,5.350301e-001
1.508125e+003,5.387030e-001
1.511982e+003,5.395263e-001
1.515839e+003,5.376409e-001
1.519696e+003,5.338675e-001
1.523553e+003,5.276296e-001
1.527410e+003,5.190982e-001
1.531267e+003,5.097576e-001
1.535124e+003,4.999406e-001
1.538981e+003,4.881324e-001
1.542839e+003,4.755443e-001
1.546696e+003,4.640377e-001
1.550553e+003,4.536466e-001
1.554410e+003,4.433939e-001
1.558267e+003,4.335554e-001
1.562124e+003,4.241227e-001
1.565981e+003,4.161101e-001
1.569838e+003,4.103437e-001
1.573695e+003,4.063998e-001
1.577552e+003,4.035413e-001
1.581410e+003,4.027234e-001
1.585267e+003,4.047073e-001
1.589124e+003,4.097698e-001
1.592981e+003,4.181995e-001
1.596838e+003,4.301435e-001
1.600695e+003,4.458823e-001
1.604552e+003,4.656684e-001
1.608409e+003,4.899282e-001
1.612266e+003,5.185971e-001
1.616123e+003,5.498126e-001
1.619980e+003,5.809029e-001
1.623838e+003,6.099171e-001
1.627695e+003,6.353171e-001
1.631552e+003,6.533336e-001
1.635409e+003,6.629288e-001
1.639266e+003,6.629761e-001
1.643123e+003,6.550865e-001
1.646980e+003,6.407837e-001
1.650837e+003,6.203158e-001
1.654694e+003,5.956290e-001
1.658551e+003,5.696767e-001
1.662409e+003,5.429800e-001
1.666266e+003,5.162629e-001
1.670123e+003,4.905136e-001
1.673980e+003,4.660181e-001
1.677837e+003,4.435004e-001
1.681694e+003,4.233922e-001
1.685551e+003,4.049402e-001
1.689408e+003,3.896226e-001
1.693265e+003,3.766895e-001
1.697122e+003,3.656133e-001
1.700979e+003,3.557070e-001
1.704837e+003,3.475187e-001
1.708694e+003,3.408744e-001
1.712551e+003,3.353269e-001
1.716408e+003,3.302054e-001
1.720265e+003,3.256272e-001
1.724122e+003,3.213702e-001
1.727979e+003,3.171697e-001
1.731836e+003,3.134198e-001
1.735693e+003,3.103568e-001
1.739550e+003,3.073381e-001
1.743408e+003,3.040853e-001
1.747265e+003,3.011382e-001
1.751122e+003,2.992322e-001
1.754979e+003,2.975672e-001
1.758836e+003,2.959845e-001
1.762693e+003,2.948635e-001
1.766550e+003,2.945414e-001
1.770407e+003,2.944958e-001
1.774264e+003,2.943176e-001
1.778121e+003,2.940251e-001
1.781979e+003,2.939081e-001
1.785836e+003,2.939694e-001
1.789693e+003,2.938097e-001
1.793550e+003,2.929509e-001
1.797407e+003,2.919366e-001
1.801264e+003,2.908812e-001
1.805121e+003,2.896937e-001
1.808978e+003,2.884215e-001
1.812835e+003,2.867166e-001
1.816692e+003,2.848247e-001
1.820549e+003,2.828271e-001
1.824407e+003,2.806750e-001
1.828264e+003,2.787596e-001
1.832121e+003,2.766603e-001
1.835978e+003,2.744607e-001
1.839835e+003,2.729144e-001
1.843692e+003,2.716811e-001
1.847549e+003,2.708559e-001
1.851406e+003,2.701956e-001
1.855263e+003,2.698278e-001
1.859120e+003,2.702494e-001
1.862978e+003,2.709230e-001
1.866835e+003,2.713673e-001
1.870692e+003,2.713725e-001
1.874549e+003,2.715007e-001
1.878406e+003,2.718366e-001
1.882263e+003,2.718984e-001
1.886120e+003,2.714353e-001
1.889977e+003,2.709564e-001
1.893834e+003,2.699757e-001
1.897691e+003,2.686458e-001
1.901548e+003,2.664818e-001
1.905406e+003,2.642667e-001
1.909263e+003,2.621054e-001
1.913120e+003,2.599306e-001
1.916977e+003,2.575594e-001
1.920834e+003,2.549566e-001
1.924691e+003,2.527593e-001
1.928548e+003,2.509867e-001
1.932405e+003,2.499194e-001
1.936262e+003,2.488294e-001
1.940119e+003,2.479039e-001
1.943977e+003,2.480990e-001
1.947834e+003,2.482039e-001
1.951691e+003,2.482727e-001
1.955548e+003,2.490454e-001
1.959405e+003,2.497410e-001
1.963262e+003,2.496663e-001
1.967119e+003,2.495380e-001
1.970976e+003,2.494308e-001
1.974833e+003,2.493206e-001
1.978690e+003,2.488294e-001
1.982547e+003,2.480946e-001
1.986405e+003,2.471529e-001
1.990262e+003,2.453184e-001
1.994119e+003,2.429775e-001
1.997976e+003,2.408813e-001
2.001833e+003,2.387257e-001
2.005690e+003,2.360127e-001
2.009547e+003,2.337283e-001
2.013404e+003,2.321829e-001
2.017261e+003,2.309349e-001
2.021118e+003,2.296137e-001
2.024976e+003,2.286583e-001
2.028833e+003,2.281459e-001
2.032690e+003,2.277616e-001
2.036547e+003,2.281699e-001
2.040404e+003,2.287847e-001
2.044261e+003,2.296634e-001
2.048118e+003,2.309239e-001
2.051975e+003,2.318317e-001
2.055832e+003,2.326768e-001
2.059689e+003,2.334684e-001
2.063546e+003,2.339233e-001
2.067404e+003,2.341159e-001
2.071261e+003,2.341497e-001
2.075118e+003,2.335202e-001
2.078975e+003,2.322622e-001
2.082832e+003,2.310307e-001
2.086689e+003,2.296766e-001
2.090546e+003,2.281548e-001
2.094403e+003,2.261281e-001
2.098260e+003,2.239226e-001
2.102117e+003,2.222625e-001
2.105975e+003,2.208998e-001
2.109832e+003,2.196606e-001
2.113689e+003,2.187219e-001
2.117546e+003,2.187722e-001
2.121403e+003,2.194570e-001
2.125260e+003,2.203228e-001
2.129117e+003,2.213935e-001
2.132974e+003,2.226452e-001
2.136831e+003,2.242343e-001
2.140688e+003,2.263080e-001
2.144545e+003,2.283801e-001
2.148403e+003,2.301167e-001
2.152260e+003,2.318964e-001
2.156117e+003,2.330836e-001
2.159974e+003,2.336404e-001
2.163831e+003,2.339423e-001
2.167688e+003,2.341201e-001
2.171545e+003,2.339139e-001
2.175402e+003,2.331959e-001
2.179259e+003,2.319814e-001
2.183116e+003,2.306651e-001
2.186974e+003,2.294668e-001
2.190831e+003,2.282208e-001
2.194688e+003,2.271285e-001
2.198545e+003,2.263664e-001
2.202402e+003,2.261718e-001
2.206259e+003,2.263642e-001
2.210116e+003,2.266965e-001
2.213973e+003,2.275771e-001
2.217830e+003,2.289707e-001
2.221688e+003,2.309574e-001
2.225544e+003,2.328435e-001
2.229402e+003,2.348397e-001
2.233259e+003,2.373803e-001
2.237116e+003,2.401677e-001
2.240973e+003,2.423867e-001
2.244830e+003,2.440069e-001
2.248687e+003,2.454320e-001
2.252544e+003,2.467526e-001
2.256401e+003,2.478351e-001
2.260258e+003,2.485140e-001
2.264115e+003,2.484949e-001
2.267973e+003,2.480180e-001
2.271830e+003,2.474999e-001
2.275687e+003,2.464388e-001
2.279544e+003,2.455107e-001
2.283401e+003,2.445433e-001
2.287258e+003,2.438651e-001
2.291115e+003,2.432580e-001
2.294972e+003,2.426398e-001
2.298829e+003,2.423970e-001
2.302687e+003,2.427901e-001
2.306543e+003,2.436886e-001
2.310401e+003,2.449033e-001
2.314258e+003,2.461152e-001
2.318115e+003,2.474691e-001
2.321972e+003,2.491816e-001
2.325829e+003,2.509076e-001
2.329686e+003,2.527105e-001
2.333543e+003,2.549159e-001
2.337400e+003,2.565768e-001
2.341257e+003,2.578748e-001
2.345115e+003,2.591648e-001
2.348972e+003,2.597959e-001
2.352829e+003,2.597871e-001
2.356686e+003,2.593595e-001
2.360543e+003,2.585697e-001
2.364400e+003,2.572180e-001
2.368257e+003,2.559094e-001
2.372114e+003,2.546931e-001
2.375971e+003,2.532584e-001
2.379828e+003,2.522265e-001
2.383686e+003,2.515025e-001
2.387542e+003,2.502821e-001
2.391400e+003,2.491992e-001
2.395257e+003,2.483643e-001
2.399114e+003,2.477894e-001
2.402971e+003,2.480356e-001
2.406828e+003,2.491354e-001
2.410685e+003,2.502334e-001
2.414542e+003,2.511527e-001
2.418399e+003,2.519696e-001
2.422256e+003,2.530789e-001
2.426114e+003,2.546330e-001
2.429971e+003,2.558774e-001
2.433828e+003,2.562014e-001
2.437685e+003,2.566362e-001
2.441542e+003,2.570657e-001
2.445399e+003,2.569250e-001
2.449256e+003,2.561068e-001
2.453113e+003,2.549240e-001
2.456970e+003,2.537740e-001
2.460827e+003,2.523690e-001
2.464684e+003,2.504337e-001
2.468542e+003,2.486050e-001
2.472399e+003,2.467945e-001
2.476256e+003,2.448293e-001
2.480113e+003,2.435492e-001
2.483970e+003,2.426874e-001
2.487827e+003,2.420064e-001
2.491684e+003,2.420122e-001
2.495541e+003,2.425953e-001
2.499398e+003,2.433472e-001
2.503255e+003,2.441681e-001
2.507113e+003,2.452870e-001
2.510969e+003,2.472219e-001
2.514827e+003,2.492860e-001
2.518684e+003,2.512870e-001
2.522541e+003,2.532001e-001
2.526398e+003,2.549020e-001
2.530255e+003,2.566251e-001
2.534112e+003,2.581786e-001
2.537969e+003,2.591138e-001
2.541826e+003,2.595195e-001
2.545683e+003,2.597131e-001
2.549541e+003,2.595437e-001
2.553398e+003,2.594829e-001
2.557255e+003,2.597575e-001
2.561112e+003,2.596497e-001
2.564969e+003,2.591756e-001
2.568826e+003,2.592543e-001
2.572683e+003,2.595474e-001
2.576540e+003,2.601764e-001
2.580397e+003,2.613978e-001
2.584254e+003,2.626812e-001
2.588112e+003,2.645308e-001
2.591969e+003,2.670434e-001
2.595826e+003,2.700061e-001
2.599683e+003,2.725385e-001
2.603540e+003,2.748910e-001
2.607397e+003,2.777964e-001
2.611254e+003,2.816524e-001
2.615111e+003,2.853969e-001
2.618968e+003,2.886041e-001
2.622825e+003,2.914244e-001
2.626682e+003,2.940131e-001
2.630540e+003,2.962736e-001
2.634397e+003,2.985514e-001
2.638254e+003,3.008014e-001
2.642111e+003,3.023624e-001
2.645968e+003,3.039816e-001
2.649825e+003,3.053008e-001
2.653682e+003,3.065884e-001
2.657539e+003,3.081474e-001
2.661396e+003,3.097404e-001
2.665253e+003,3.112922e-001
2.669111e+003,3.127196e-001
2.672968e+003,3.146961e-001
2.676825e+003,3.174524e-001
2.680682e+003,3.204397e-001
2.684539e+003,3.241488e-001
2.688396e+003,3.280344e-001
2.692253e+003,3.316217e-001
2.696110e+003,3.356529e-001
2.699967e+003,3.399400e-001
2.703824e+003,3.440422e-001
2.707681e+003,3.482745e-001
2.711539e+003,3.520004e-001
2.715396e+003,3.555374e-001
2.719253e+003,3.595249e-001
2.723110e+003,3.630399e-001
2.726967e+003,3.660264e-001
2.730824e+003,3.696391e-001
2.734681e+003,3.731106e-001
2.738538e+003,3.756070e-001
2.742395e+003,3.777008e-001
2.746252e+003,3.802357e-001
2.750110e+003,3.829673e-001
2.753967e+003,3.858476e-001
2.757824e+003,3.890135e-001
2.761681e+003,3.920180e-001
2.765538e+003,3.950955e-001
2.769395e+003,3.982628e-001
2.773252e+003,4.013357e-001
2.777109e+003,4.050033e-001
2.780966e+003,4.100583e-001
2.784823e+003,4.152638e-001
2.788680e+003,4.197513e-001
2.792538e+003,4.241935e-001
2.796395e+003,4.285608e-001
2.800252e+003,4.331538e-001
2.804109e+003,4.382562e-001
2.807966e+003,4.433826e-001
2.811823e+003,4.479135e-001
2.815680e+003,4.522659e-001
2.819537e+003,4.562426e-001
2.823394e+003,4.597656e-001
2.827251e+003,4.639620e-001
2.831109e+003,4.680668e-001
2.834966e+003,4.712276e-001
2.838823e+003,4.746608e-001
2.842680e+003,4.791664e-001
2.846537e+003,4.831438e-001
2.850394e+003,4.869064e-001
2.854251e+003,4.909556e-001
2.858108e+003,4.954513e-001
2.861965e+003,4.993423e-001
2.865823e+003,5.037479e-001
2.869679e+003,5.091690e-001
2.873537e+003,5.142227e-001
2.877394e+003,5.192512e-001
2.881251e+003,5.239495e-001
2.885108e+003,5.297222e-001
2.888965e+003,5.358101e-001
2.892822e+003,5.411996e-001
2.896679e+003,5.467374e-001
2.900536e+003,5.521157e-001
2.904393e+003,5.570424e-001
2.908250e+003,5.620295e-001
2.912108e+003,5.683003e-001
2.915965e+003,5.743095e-001
2.919822e+003,5.786741e-001
2.923679e+003,5.836869e-001
2.927536e+003,5.890458e-001
2.931393e+003,5.937662e-001
2.935250e+003,5.981650e-001
2.939107e+003,6.030069e-001
2.942964e+003,6.086761e-001
2.946822e+003,6.133427e-001
2.950678e+003,6.175230e-001
2.954536e+003,6.236074e-001
2.958393e+003,6.298127e-001
2.962250e+003,6.350439e-001
2.966107e+003,6.403410e-001
2.969964e+003,6.459745e-001
2.973821e+003,6.511392e-001
2.977678e+003,6.569824e-001
2.981535e+003,6.642612e-001
2.985392e+003,6.707115e-001
2.989250e+003,6.764264e-001
2.993107e+003,6.825426e-001
2.996964e+003,6.890917e-001
3.000821e+003,6.959320e-001
3.004678e+003,7.025142e-001
3.008535e+003,7.085081e-001
3.012392e+003,7.146654e-001
3.016249e+003,7.207566e-001
3.020106e+003,7.263480e-001
3.023963e+003,7.320250e-001
3.027821e+003,7.389428e-001
3.031677e+003,7.447951e-001
3.035535e+003,7.508600e-001
3.039392e+003,7.585405e-001
3.043249e+003,7.652618e-001
3.047106e+003,7.708071e-001
3.050963e+003,7.773860e-001
3.054820e+003,7.851503e-001
3.058677e+003,7.910215e-001
3.062534e+003,7.958969e-001
3.066391e+003,8.041685e-001
3.070249e+003,8.131061e-001
3.074106e+003,8.190239e-001
3.077963e+003,8.249071e-001
3.081820e+003,8.329505e-001
3.085677e+003,8.416743e-001
3.089534e+003,8.495724e-001
3.093391e+003,8.565173e-001
3.097248e+003,8.637958e-001
3.101105e+003,8.716590e-001
3.104962e+003,8.808054e-001
3.108820e+003,8.878718e-001
3.112677e+003,8.962243e-001
3.116534e+003,9.048554e-001
3.120391e+003,9.096371e-001
3.124248e+003,9.175509e-001
3.128105e+003,9.261742e-001
3.131962e+003,9.331403e-001
3.135819e+003,9.410089e-001
3.139676e+003,9.496613e-001
3.143533e+003,9.565666e-001
3.147390e+003,9.640254e-001
3.151248e+003,9.730240e-001
3.155105e+003,9.812459e-001
3.158962e+003,9.906716e-001
3.162819e+003,1.000246e+000
3.166676e+003,1.007524e+000
3.170533e+003,1.014309e+000
3.174390e+003,1.021985e+000
3.178247e+003,1.032097e+000
3.182104e+003,1.043349e+000
3.185961e+003,1.049517e+000
3.189819e+003,1.055454e+000
3.193676e+003,1.066987e+000
3.197533e+003,1.076668e+000
3.201390e+003,1.080126e+000
3.205247e+003,1.086828e+000
3.209104e+003,1.097246e+000
3.212961e+003,1.102875e+000
3.216818e+003,1.109484e+000
3.220675e+003,1.117772e+000
3.224532e+003,1.124978e+000
3.228389e+003,1.133522e+000
3.232247e+003,1.140782e+000
3.236104e+003,1.147111e+000
3.239961e+003,1.151458e+000
3.243818e+003,1.154609e+000
3.247675e+003,1.159632e+000
3.251532e+003,1.166647e+000
3.255389e+003,1.174937e+000
3.259246e+003,1.182715e+000
3.263103e+003,1.187167e+000
3.266960e+003,1.194731e+000
3.270818e+003,1.200886e+000
3.274675e+003,1.203967e+000
3.278532e+003,1.209921e+000
3.282389e+003,1.215166e+000
3.286246e+003,1.219064e+000
3.290103e+003,1.224799e+000
3.293960e+003,1.233351e+000
3.297817e+003,1.245750e+000
3.301674e+003,1.256328e+000
3.305531e+003,1.260134e+000
3.309388e+003,1.267566e+000
3.313246e+003,1.278064e+000
3.317103e+003,1.288241e+000
3.320960e+003,1.295890e+000
3.324817e+003,1.303248e+000
3.328674e+003,1.309766e+000
3.332531e+003,1.318027e+000
3.336388e+003,1.327194e+000
3.340245e+003,1.339038e+000
3.344102e+003,1.353107e+000
3.347959e+003,1.359646e+000
3.351817e+003,1.364743e+000
3.355674e+003,1.369721e+000
3.359531e+003,1.370278e+000
3.363388e+003,1.376866e+000
3.367245e+003,1.387095e+000
3.371102e+003,1.398980e+000
3.374959e+003,1.410161e+000
3.378816e+003,1.413789e+000
3.382673e+003,1.420673e+000
3.386530e+003,1.429842e+000
3.390387e+003,1.436025e+000
3.394245e+003,1.434091e+000
3.398102e+003,1.436019e+000
3.401959e+003,1.451427e+000
3.405816e+003,1.463000e+000
3.409673e+003,1.467347e+000
3.413530e+003,1.470369e+000
3.417387e+003,1.472094e+000
3.421244e+003,1.471190e+000
3.425101e+003,1.470634e+000
3.428958e+003,1.481278e+000
3.432815e+003,1.489715e+000
3.436673e+003,1.493848e+000
3.440530e+003,1.496708e+000
3.444387e+003,1.493793e+000
3.448244e+003,1.501929e+000
3.452101e+003,1.509187e+000
3.455958e+003,1.513093e+000
3.459815e+003,1.523993e+000
3.463672e+003,1.535270e+000
3.467529e+003,1.539782e+000
3.471386e+003,1.538191e+000
3.475244e+003,1.538381e+000
3.479101e+003,1.537819e+000
3.482958e+003,1.542542e+000
3.486815e+003,1.547827e+000
3.490672e+003,1.550944e+000
3.494529e+003,1.553105e+000
3.498386e+003,1.551959e+000
3.502243e+003,1.553021e+000
3.506100e+003,1.557432e+000
3.509958e+003,1.564910e+000
3.513814e+003,1.570060e+000
3.517672e+003,1.572172e+000
3.521529e+003,1.565517e+000
3.525386e+003,1.560719e+000
3.529243e+003,1.558832e+000
3.533100e+003,1.554028e+000
3.536957e+003,1.548243e+000
3.540814e+003,1.550633e+000
3.544671e+003,1.550769e+000
3.548528e+003,1.540058e+000
3.552385e+003,1.533462e+000
3.556243e+003,1.528980e+000
3.560100e+003,1.522535e+000
3.563957e+003,1.506722e+000
3.567814e+003,1.483129e+000
3.571671e+003,1.468552e+000
3.575528e+003,1.450993e+000
3.579385e+003,1.427112e+000
3.583242e+003,1.401298e+000
3.587099e+003,1.372536e+000
3.590957e+003,1.342802e+000
3.594813e+003,1.313651e+000
3.598671e+003,1.276424e+000
3.602528e+003,1.230594e+000
3.606385e+003,1.186043e+000
3.610242e+003,1.137989e+000
3.614099e+003,1.084627e+000
3.617956e+003,1.033976e+000
3.621813e+003,9.802028e-001
3.625670e+003,9.227151e-001
3.629527e+003,8.641582e-001
3.633385e+003,8.068618e-001
3.637242e+003,7.498556e-001
3.641099e+003,6.940261e-001
3.644956e+003,6.409037e-001
3.648813e+003,5.895005e-001
3.652670e+003,5.410389e-001
3.656527e+003,4.973082e-001
3.660384e+003,4.569969e-001
3.664241e+003,4.191248e-001
3.668098e+003,3.843373e-001
3.671956e+003,3.521786e-001
3.675813e+003,3.219279e-001
3.679670e+003,2.941596e-001
3.683527e+003,2.686886e-001
3.687384e+003,2.457735e-001
3.691241e+003,2.256728e-001
3.695098e+003,2.082741e-001
3.698955e+003,1.940961e-001
3.702812e+003,1.831468e-001
3.706669e+003,1.738043e-001
3.710526e+003,1.659688e-001
3.714384e+003,1.601400e-001
3.718241e+003,1.553566e-001
3.722098e+003,1.512544e-001
3.725955e+003,1.478966e-001
3.729812e+003,1.452968e-001
3.733669e+003,1.425185e-001
3.737526e+003,1.396726e-001
3.741383e+003,1.375470e-001
3.745240e+003,1.352890e-001
3.749097e+003,1.322999e-001
3.752955e+003,1.291698e-001
3.756812e+003,1.267358e-001
3.760669e+003,1.245507e-001
3.764526e+003,1.221204e-001
3.768383e+003,1.199283e-001
3.772240e+003,1.178452e-001
3.776097e+003,1.159547e-001
3.779954e+003,1.149894e-001
3.783811e+003,1.142788e-001
3.787668e+003,1.137740e-001
3.791525e+003,1.138195e-001
3.795383e+003,1.144473e-001
3.799240e+003,1.154072e-001
3.803097e+003,1.165008e-001
3.806954e+003,1.172217e-001
3.810811e+003,1.176456e-001
3.814668e+003,1.180541e-001
3.818525e+003,1.184894e-001
3.822382e+003,1.186706e-001
3.826239e+003,1.190438e-001
3.830096e+003,1.192641e-001
3.833954e+003,1.190053e-001
3.837811e+003,1.174296e-001
3.841668e+003,1.154308e-001
3.845525e+003,1.140254e-001
3.849382e+003,1.124245e-001
3.853239e+003,1.106309e-001
3.857096e+003,1.090368e-001
3.860953e+003,1.077143e-001
3.864810e+003,1.066918e-001
3.868667e+003,1.058164e-001
3.872524e+003,1.054826e-001
3.876382e+003,1.056225e-001
3.880239e+003,1.061254e-001
3.884096e+003,1.072052e-001
3.887953e+003,1.082544e-001
3.891810e+003,1.087725e-001
3.895667e+003,1.096596e-001
3.899524e+003,1.108515e-001
3.903381e+003,1.117229e-001
3.907238e+003,1.126542e-001
3.911095e+003,1.130953e-001
3.914953e+003,1.137397e-001
3.918810e+003,1.139171e-001
3.922667e+003,1.134400e-001
3.926524e+003,1.131676e-001
3.930381e+003,1.123024e-001
3.934238e+003,1.108445e-001
3.938095e+003,1.094513e-001
3.941952e+003,1.082463e-001
3.945809e+003,1.068665e-001
3.949667e+003,1.054559e-001
3.953523e+003,1.044994e-001
3.957381e+003,1.035826e-001
3.961238e+003,1.027034e-001
3.965095e+003,1.023953e-001
3.968952e+003,1.022344e-001
3.972809e+003,1.017875e-001
3.976666e+003,1.023617e-001
3.980523e+003,1.034866e-001
3.984380e+003,1.037941e-001
3.988237e+003,1.049543e-001
3.992094e+003,1.067233e-001
3.995952e+003,1.070947e-001
3.999809e+003,1.073100e-001
4.003666e+003,1.085924e-001
4.007523e+003,1.094778e-001
4.011380e+003,1.090577e-001
4.015237e+003,1.091539e-001
4.019094e+003,1.084149e-001
4.022951e+003,1.074497e-001
4.026808e+003,1.067778e-001
4.030666e+003,1.054265e-001
4.034522e+003,1.041284e-001
4.038380e+003,1.028261e-001
4.042237e+003,1.011382e-001
4.046094e+003,1.000859e-001
4.049951e+003,9.914348e-002
4.053808e+003,9.800718e-002
4.057665e+003,9.729868e-002
4.061522e+003,9.692327e-002
4.065379e+003,9.686934e-002
4.069236e+003,9.661721e-002
4.073094e+003,9.676602e-002
4.076951e+003,9.776455e-002
4.080808e+003,9.868124e-002
4.084665e+003,9.930645e-002
4.088522e+003,1.002016e-001
4.092379e+003,1.010552e-001
4.096236e+003,1.016276e-001
4.100093e+003,1.019981e-001
4.103950e+003,1.022230e-001
4.107808e+003,1.022159e-001
4.111665e+003,1.015204e-001
4.115521e+003,1.009382e-001
4.119379e+003,1.005195e-001
4.123236e+003,9.975772e-002
4.127093e+003,9.831423e-002
4.130950e+003,9.684587e-002
4.134807e+003,9.567120e-002
4.138664e+003,9.437892e-002
4.142521e+003,9.327095e-002
4.146378e+003,9.247292e-002
4.150235e+003,9.153732e-002
4.154093e+003,9.074385e-002
4.157950e+003,9.044431e-002
4.161807e+003,9.011143e-002
4.165664e+003,9.081858e-002
4.169521e+003,9.141265e-002
4.173378e+003,9.154239e-002
4.177235e+003,9.208330e-002
4.181092e+003,9.240659e-002
4.184949e+003,9.294024e-002
4.188807e+003,9.452961e-002
4.192664e+003,9.531551e-002
4.196521e+003,9.543462e-002
4.200378e+003,9.560946e-002
4.204235e+003,9.591188e-002
4.208092e+003,9.615637e-002
4.211949e+003,9.585159e-002
4.215806e+003,9.520786e-002
4.219663e+003,9.354005e-002
4.223521e+003,9.265166e-002
4.227377e+003,9.188477e-002
4.231234e+003,9.027819e-002
4.235092e+003,8.861218e-002
4.238949e+003,8.802173e-002
4.242806e+003,8.754402e-002
4.246663e+003,8.729582e-002
4.250520e+003,8.692899e-002
4.254377e+003,8.653621e-002
4.258234e+003,8.588195e-002
4.262091e+003,8.594813e-002
4.265948e+003,8.734930e-002
4.269806e+003,8.806369e-002
4.273663e+003,8.822154e-002
4.277520e+003,8.861348e-002
4.281377e+003,8.975028e-002
4.285234e+003,9.139506e-002
4.289091e+003,9.202857e-002
4.292948e+003,9.190167e-002
4.296805e+003,9.201715e-002
4.300662e+003,9.246922e-002
4.304520e+003,9.292555e-002
4.308376e+003,9.265243e-002
4.312233e+003,9.223233e-002
4.316091e+003,9.203218e-002
4.319948e+003,9.146348e-002
4.323805e+003,9.051181e-002
4.327662e+003,8.947191e-002
4.331519e+003,8.827485e-002
4.335376e+003,8.728913e-002
4.339233e+003,8.656970e-002
4.343090e+003,8.593348e-002
4.346947e+003,8.646784e-002
4.350805e+003,8.693328e-002
4.354662e+003,8.719532e-002
4.358519e+003,8.720674e-002
4.362376e+003,8.716855e-002
4.366233e+003,8.821350e-002
4.370090e+003,8.976991e-002
4.373947e+003,9.086350e-002
4.377804e+003,9.102496e-002
4.381661e+003,9.155045e-002
4.385519e+003,9.278612e-002
4.389375e+003,9.344431e-002
4.393232e+003,9.342796e-002
4.397090e+003,9.403124e-002
4.400947e+003,9.465011e-002
4.404804e+003,9.470339e-002
4.408661e+003,9.344923e-002
4.412518e+003,9.239175e-002
4.416375e+003,9.217690e-002
4.420232e+003,9.154063e-002
4.424089e+003,9.035329e-002
4.427946e+003,8.980951e-002
4.431804e+003,8.906365e-002
4.435661e+003,8.894660e-002
4.439518e+003,8.895868e-002
4.443375e+003,8.814535e-002
4.447232e+003,8.803350e-002
4.451089e+003,8.823376e-002
4.454946e+003,8.894266e-002
4.458803e+003,8.972718e-002
4.462660e+003,9.026599e-002
4.466518e+003,9.069350e-002
4.470375e+003,9.085473e-002
4.474231e+003,9.141424e-002
4.478089e+003,9.203357e-002
4.481946e+003,9.286416e-002
4.485803e+003,9.372014e-002
4.489660e+003,9.416947e-002
4.493517e+003,9.399541e-002
4.497375e+003,9.404050e-002
4.501231e+003,9.419675e-002
4.505088e+003,9.353817e-002
4.508946e+003,9.302668e-002
4.512803e+003,9.234297e-002
4.516660e+003,9.081396e-002
4.520517e+003,8.965333e-002
4.524374e+003,8.831026e-002
4.528231e+003,8.644152e-002
4.532088e+003,8.613819e-002
4.535945e+003,8.640408e-002
4.539802e+003,8.585849e-002
4.543660e+003,8.515980e-002
4.547517e+003,8.528423e-002
4.551374e+003,8.498194e-002
4.555231e+003,8.449661e-002
4.559088e+003,8.427879e-002
4.562945e+003,8.522822e-002
4.566802e+003,8.677302e-002
4.570659e+003,8.701958e-002
4.574516e+003,8.693607e-002
4.578374e+003,8.716604e-002
4.582230e+003,8.670739e-002
4.586087e+003,8.771519e-002
4.589945e+003,8.781207e-002
4.593802e+003,8.666864e-002
4.597659e+003,8.656929e-002
4.601516e+003,8.640784e-002
4.605373e+003,8.557013e-002
4.609230e+003,8.477096e-002
4.613087e+003,8.395796e-002
4.616944e+003,8.370400e-002
4.620801e+003,8.258042e-002
4.624659e+003,8.140833e-002
4.628516e+003,8.110207e-002
4.632373e+003,8.080065e-002
4.636230e+003,8.063609e-002
4.640087e+003,8.043511e-002
4.643944e+003,8.048093e-002
4.647801e+003,8.034313e-002
4.651658e+003,7.964079e-002
4.655515e+003,7.993468e-002
4.659373e+003,8.109020e-002
4.663229e+003,8.210525e-002
4.667086e+003,8.302786e-002
4.670944e+003,8.369926e-002
4.674801e+003,8.375920e-002
4.678658e+003,8.414432e-002
4.682515e+003,8.478124e-002
4.686372e+003,8.497489e-002
4.690229e+003,8.470488e-002
4.694086e+003,8.519580e-002
4.697943e+003,8.488537e-002
4.701800e+003,8.413246e-002
4.705658e+003,8.319160e-002
4.709515e+003,8.262081e-002
4.713372e+003,8.212894e-002
4.717229e+003,8.135790e-002
4.721086e+003,8.107734e-002
4.724943e+003,8.131347e-002
4.728800e+003,7.975767e-002
4.732657e+003,7.811481e-002
4.736514e+003,7.841095e-002
4.740372e+003,7.914171e-002
4.744229e+003,7.927925e-002
4.748085e+003,7.972777e-002
4.751943e+003,8.021984e-002
4.755800e+003,8.070806e-002
4.759657e+003,8.180169e-002
4.763514e+003,8.228730e-002
4.767371e+003,8.285047e-002
4.771228e+003,8.313844e-002
4.775085e+003,8.391349e-002
4.778942e+003,8.464109e-002
4.782799e+003,8.494931e-002
4.786657e+003,8.490168e-002
4.790514e+003,8.433809e-002
4.794371e+003,8.443744e-002
4.798228e+003,8.488246e-002
4.802085e+003,8.381289e-002
4.805942e+003,8.254447e-002
4.809799e+003,8.215040e-002
4.813656e+003,8.234885e-002
4.817513e+003,8.249302e-002
4.821371e+003,8.158457e-002
4.825228e+003,8.109999e-002
4.829084e+003,8.086387e-002
4.832942e+003,8.031203e-002
4.836799e+003,7.989015e-002
4.840656e+003,7.981564e-002
4.844513e+003,8.035951e-002
4.848370e+003,8.156938e-002
4.852227e+003,8.210249e-002
4.856084e+003,8.192339e-002
4.859941e+003,8.232759e-002
4.863798e+003,8.288143e-002
4.867656e+003,8.361361e-002
4.871513e+003,8.415409e-002
4.875370e+003,8.389058e-002
4.879227e+003,8.383327e-002
4.883084e+003,8.495498e-002
4.886941e+003,8.538512e-002
4.890798e+003,8.501982e-002
4.894655e+003,8.438916e-002
4.898512e+003,8.363759e-002
4.902370e+003,8.347682e-002
4.906227e+003,8.368901e-002
4.910083e+003,8.387551e-002
4.913941e+003,8.258919e-002
4.917798e+003,8.127511e-002
4.921655e+003,8.079059e-002
4.925512e+003,8.116993e-002
4.929369e+003,8.080791e-002
4.933226e+003,7.963924e-002
4.937083e+003,8.011522e-002
4.940940e+003,8.024355e-002
4.944797e+003,8.125186e-002
4.948655e+003,8.248778e-002
4.952512e+003,8.279105e-002
4.956369e+003,8.226871e-002
4.960226e+003,8.280461e-002
4.964083e+003,8.455985e-002
4.967940e+003,8.509377e-002
4.971797e+003,8.568805e-002
4.975654e+003,8.609173e-002
4.979511e+003,8.571082e-002
4.983369e+003,8.532846e-002
4.987226e+003,8.590493e-002
4.991083e+003,8.603360e-002
4.994940e+003,8.468281e-002
4.998797e+003,8.427802e-002
5.002654e+003,8.386453e-002
5.006511e+003,8.331770e-002
5.010368e+003,8.325240e-002
5.014225e+003,8.298682e-002
5.018083e+003,8.328331e-002
5.021939e+003,8.375435e-002
5.025796e+003,8.268939e-002
5.029654e+003,8.167906e-002
5.033511e+003,8.254126e-002
5.037368e+003,8.302044e-002
5.041225e+003,8.198757e-002
5.045082e+003,8.132397e-002
5.048939e+003,8.174117e-002
5.052796e+003,8.296601e-002
5.056653e+003,8.387917e-002
5.060510e+003,8.458900e-002
5.064368e+003,8.571546e-002
5.068225e+003,8.624030e-002
5.072082e+003,8.691158e-002
5.075939e+003,8.719901e-002
5.079796e+003,8.690478e-002
5.083653e+003,8.636305e-002
5.087510e+003,8.574375e-002
5.091367e+003,8.581230e-002
5.095224e+003,8.597244e-002
5.099082e+003,8.523797e-002
5.102938e+003,8.489081e-002
5.106795e+003,8.495083e-002
5.110653e+003,8.425252e-002
5.114510e+003,8.388101e-002
5.118367e+003,8.376310e-002
5.122224e+003,8.363763e-002
5.126081e+003,8.360088e-002
5.129938e+003,8.414114e-002
5.133795e+003,8.469046e-002
5.137652e+003,8.495998e-002
5.141509e+003,8.537145e-002
5.145367e+003,8.508176e-002
5.149224e+003,8.500785e-002
5.153081e+003,8.584650e-002
5.156938e+003,8.605415e-002
5.160795e+003,8.592859e-002
5.164652e+003,8.671593e-002
5.168509e+003,8.705679e-002
5.172366e+003,8.705658e-002
5.176223e+003,8.771571e-002
5.180081e+003,8.921255e-002
5.183938e+003,8.932719e-002
5.187794e+003,8.842827e-002
5.191652e+003,8.867741e-002
5.195509e+003,8.893611e-002
5.199366e+003,8.861649e-002
5.203223e+003,8.750158e-002
5.207080e+003,8.624280e-002
5.210937e+003,8.519758e-002
5.214794e+003,8.453489e-002
5.218651e+003,8.441021e-002
5.222508e+003,8.446429e-002
5.226366e+003,8.427988e-002
5.230223e+003,8.341241e-002
5.234080e+003,8.132908e-002
5.237937e+003,8.013232e-002
5.241794e+003,8.096974e-002
5.245651e+003,8.159185e-002
5.249508e+003,8.181453e-002
5.253365e+003,8.158018e-002
5.257222e+003,8.122888e-002
5.261080e+003,8.112020e-002
5.264937e+003,8.033244e-002
5.268793e+003,8.077858e-002
5.272651e+003,8.134759e-002
5.276508e+003,8.081677e-002
5.280365e+003,7.959618e-002
5.284222e+003,7.971854e-002
5.288079e+003,7.970826e-002
5.291936e+003,7.930988e-002
5.295793e+003,7.888571e-002
5.299650e+003,7.884657e-002
5.303507e+003,7.844358e-002
5.307365e+003,7.771482e-002
5.311222e+003,7.656788e-002
5.315079e+003,7.529405e-002
5.318936e+003,7.528526e-002
5.322793e+003,7.616150e-002
5.326650e+003,7.687515e-002
5.330507e+003,7.616980e-002
5.334364e+003,7.485418e-002
5.338221e+003,7.581452e-002
5.342079e+003,7.602412e-002
5.345936e+003,7.512928e-002
5.349792e+003,7.494603e-002
5.353650e+003,7.580166e-002
5.357507e+003,7.661708e-002
5.361364e+003,7.566715e-002
5.365221e+003,7.536944e-002
5.369078e+003,7.629944e-002
5.372935e+003,7.636893e-002
5.376792e+003,7.693895e-002
5.380649e+003,7.645541e-002
5.384506e+003,7.650422e-002
5.388364e+003,7.629072e-002
5.392221e+003,7.493099e-002
5.396078e+003,7.356569e-002
5.399935e+003,7.315744e-002
5.403792e+003,7.320412e-002
5.407649e+003,7.327412e-002
5.411506e+003,7.372684e-002
5.415363e+003,7.411884e-002
5.419220e+003,7.332511e-002
5.423078e+003,7.311922e-002
5.426935e+003,7.382116e-002
5.430792e+003,7.392816e-002
5.434649e+003,7.417190e-002
5.438506e+003,7.452056e-002
5.442363e+003,7.339828e-002
5.446220e+003,7.343599e-002
5.450077e+003,7.350403e-002
5.453934e+003,7.280690e-002
5.457792e+003,7.349901e-002
5.461648e+003,7.360847e-002
5.465505e+003,7.266364e-002
5.469363e+003,7.246847e-002
5.473220e+003,7.294735e-002
5.477077e+003,7.282951e-002
5.480934e+003,7.279786e-002
5.484791e+003,7.298592e-002
5.488648e+003,7.287105e-002
5.492505e+003,7.211003e-002
5.496362e+003,7.168455e-002
5.500219e+003,7.162664e-002
5.504077e+003,7.083718e-002
5.507934e+003,7.041123e-002
5.511791e+003,7.052834e-002
5.515648e+003,7.102702e-002
5.519505e+003,7.110069e-002
5.523362e+003,7.013797e-002
5.527219e+003,7.009759e-002
5.531076e+003,7.028215e-002
5.534933e+003,7.005545e-002
5.538791e+003,7.027981e-002
5.542647e+003,7.034503e-002
5.546504e+003,7.141818e-002
5.550362e+003,7.162605e-002
5.554219e+003,7.152783e-002
5.558076e+003,7.163070e-002
5.561933e+003,7.139096e-002
5.565790e+003,7.178191e-002
5.569647e+003,7.218703e-002
5.573504e+003,7.190701e-002
5.577361e+003,7.133774e-002
5.581218e+003,7.087747e-002
5.585076e+003,7.071538e-002
5.588933e+003,7.122091e-002
5.592790e+003,7.140596e-002
5.596647e+003,7.032769e-002
5.600504e+003,6.957819e-002
5.604361e+003,6.973644e-002
5.608218e+003,7.019015e-002
5.612075e+003,6.979690e-002
5.615932e+003,7.016297e-002
5.619790e+003,6.997748e-002
5.623646e+003,6.888190e-002
5.627503e+003,6.849448e-002
5.631361e+003,6.779051e-002
5.635218e+003,6.832708e-002
5.639075e+003,6.942693e-002
5.642932e+003,6.853281e-002
5.646789e+003,6.786236e-002
5.650646e+003,6.805136e-002
5.654503e+003,6.879431e-002
5.658360e+003,6.938884e-002
5.662217e+003,6.978966e-002
5.666075e+003,6.921879e-002
5.669932e+003,6.966166e-002
5.673789e+003,6.934685e-002
5.677646e+003,6.890861e-002
5.681503e+003,6.899603e-002
5.685360e+003,6.868089e-002
5.689217e+003,6.854352e-002
5.693074e+003,6.958613e-002
5.696931e+003,6.900411e-002
5.700789e+003,6.787580e-002
5.704646e+003,6.815543e-002
5.708502e+003,6.870604e-002
5.712360e+003,6.815962e-002
5.716217e+003,6.688594e-002
5.720074e+003,6.671746e-002
5.723931e+003,6.699383e-002
5.727788e+003,6.706779e-002
5.731645e+003,6.535158e-002
5.735502e+003,6.537146e-002
5.739359e+003,6.535236e-002
5.743216e+003,6.536260e-002
5.747074e+003,6.646752e-002
5.750931e+003,6.631047e-002
5.754788e+003,6.557618e-002
5.758645e+003,6.664015e-002
5.762502e+003,6.735411e-002
5.766359e+003,6.619102e-002
5.770216e+003,6.561045e-002
5.774073e+003,6.688405e-002
5.777930e+003,6.700473e-002
5.781788e+003,6.756484e-002
5.785645e+003,6.727487e-002
5.789501e+003,6.616149e-002
5.793359e+003,6.553457e-002
5.797216e+003,6.509765e-002
5.801073e+003,6.393329e-002
5.804930e+003,6.468591e-002
5.808787e+003,6.490427e-002
5.812644e+003,6.378168e-002
5.816501e+003,6.502122e-002
5.820358e+003,6.612557e-002
5.824215e+003,6.553861e-002
5.828073e+003,6.405704e-002
5.831930e+003,6.381883e-002
5.835787e+003,6.426099e-002
5.839644e+003,6.503419e-002
5.843501e+003,6.518720e-002
5.847358e+003,6.419887e-002
5.851215e+003,6.434345e-002
5.855072e+003,6.461919e-002
5.858929e+003,6.474798e-002
5.862787e+003,6.421819e-002
5.866644e+003,6.424520e-002
5.870500e+003,6.561457e-002
5.874358e+003,6.605300e-002
5.878215e+003,6.672491e-002
5.882072e+003,6.640439e-002
5.885929e+003,6.537773e-002
5.889786e+003,6.442318e-002
5.893643e+003,6.269685e-002
5.897500e+003,6.325330e-002
5.901357e+003,6.578051e-002
5.905214e+003,6.592267e-002
5.909072e+003,6.486388e-002
5.912929e+003,6.498558e-002
5.916786e+003,6.562828e-002
5.920643e+003,6.360795e-002
5.924500e+003,6.169374e-002
5.928357e+003,6.268514e-002
5.932214e+003,6.386531e-002
5.936071e+003,6.308085e-002
5.939928e+003,6.299251e-002
5.943786e+003,6.338437e-002
5.947643e+003,6.221219e-002
5.951500e+003,6.158601e-002
5.955357e+003,6.183152e-002
5.959214e+003,6.227139e-002
5.963071e+003,6.298477e-002
5.966928e+003,6.379718e-002
5.970785e+003,6.403557e-002
5.974642e+003,6.382705e-002
5.978500e+003,6.410100e-002
5.982356e+003,6.424735e-002
5.986213e+003,6.440012e-002
5.990071e+003,6.488738e-002
5.993928e+003,6.443363e-002
5.997785e+003,6.428178e-002
6.001642e+003,6.427117e-002
6.005499e+003,6.416837e-002
6.009356e+003,6.333031e-002
6.013213e+003,6.254105e-002
6.017070e+003,6.354316e-002
6.020927e+003,6.349146e-002
6.024785e+003,6.272889e-002
6.028642e+003,6.245266e-002
6.032499e+003,6.270083e-002
6.036356e+003,6.346642e-002
6.040213e+003,6.373893e-002
6.044070e+003,6.257640e-002
6.047927e+003,6.239990e-002
6.051784e+003,6.148866e-002
6.055641e+003,6.086264e-002
6.059499e+003,6.204952e-002
6.063355e+003,6.305140e-002
6.067212e+003,6.388826e-002
6.071070e+003,6.332809e-002
6.074927e+003,6.241509e-002
6.078784e+003,6.293689e-002
6.082641e+003,6.265184e-002
6.086498e+003,6.200889e-002
6.090355e+003,6.272614e-002
6.094212e+003,6.419979e-002
6.098069e+003,6.384704e-002
6.101926e+003,6.333089e-002
6.105784e+003,6.418812e-002
6.109641e+003,6.454753e-002
6.113498e+003,6.413722e-002
6.117355e+003,6.405001e-002
6.121212e+003,6.271143e-002
6.125069e+003,6.083642e-002
6.128926e+003,6.106552e-002
6.132783e+003,6.214559e-002
6.136640e+003,6.267476e-002
6.140498e+003,6.225881e-002
6.144354e+003,6.213741e-002
6.148211e+003,6.233311e-002
6.152069e+003,6.333452e-002
6.155926e+003,6.449983e-002
6.159783e+003,6.392285e-002
6.163640e+003,6.329811e-002
6.167497e+003,6.249229e-002
6.171354e+003,6.215912e-002
6.175211e+003,6.244783e-002
6.179068e+003,6.220393e-002
6.182925e+003,6.331973e-002
6.186783e+003,6.428550e-002
6.190640e+003,6.534254e-002
6.194497e+003,6.461819e-002
6.198354e+003,6.229544e-002
6.202211e+003,6.190610e-002
6.206068e+003,6.294034e-002
6.209925e+003,6.378801e-002
6.213782e+003,6.471837e-002
6.217639e+003,6.471886e-002
6.221497e+003,6.309629e-002
6.225354e+003,6.155474e-002
6.229210e+003,6.114962e-002
6.233068e+003,6.168033e-002
6.236925e+003,6.132779e-002
6.240782e+003,6.071046e-002
6.244639e+003,6.264208e-002
6.248496e+003,6.389260e-002
6.252353e+003,6.244699e-002
6.256210e+003,6.273601e-002
6.260067e+003,6.272824e-002
6.263924e+003,6.168571e-002
6.267782e+003,6.265436e-002
6.271639e+003,6.321409e-002
6.275496e+003,6.358793e-002
6.279353e+003,6.494260e-002
6.283210e+003,6.509092e-002
6.287067e+003,6.491209e-002
6.290924e+003,6.509919e-002
6.294781e+003,6.583625e-002
6.298638e+003,6.663614e-002
6.302496e+003,6.541036e-002
6.306353e+003,6.483918e-002
6.310209e+003,6.560913e-002
6.314067e+003,6.482968e-002
6.317924e+003,6.332640e-002
6.321781e+003,6.412904e-002
6.325638e+003,6.543609e-002
6.329495e+003,6.420483e-002
6.333352e+003,6.241819e-002
6.337209e+003,6.163996e-002
6.341066e+003,6.249455e-002
6.344923e+003,6.248280e-002
6.348780e+003,6.254445e-002
6.352638e+003,6.340503e-002
6.356495e+003,6.535701e-002
6.360352e+003,6.640501e-002
6.364209e+003,6.689271e-002
6.368066e+003,6.661713e-002
6.371923e+003,6.752256e-002
6.375780e+003,6.788153e-002
6.379637e+003,6.564898e-002
6.383494e+003,6.493837e-002
6.387352e+003,6.609864e-002
6.391208e+003,6.638578e-002
6.395065e+003,6.416368e-002
6.398923e+003,6.357484e-002
6.402780e+003,6.493275e-002
6.406637e+003,6.574862e-002
6.410494e+003,6.486057e-002
6.414351e+003,6.501421e-002
6.418208e+003,6.444193e-002
6.422065e+003,6.261598e-002
6.425922e+003,6.244638e-002
6.429779e+003,6.490016e-002
6.433637e+003,6.541541e-002
6.437494e+003,6.433011e-002
6.441351e+003,6.338291e-002
6.445208e+003,6.514231e-002
6.449065e+003,6.590782e-002
6.452922e+003,6.714668e-002
6.456779e+003,6.810535e-002
6.460636e+003,6.716087e-002
6.464493e+003,6.657874e-002
6.468351e+003,6.691787e-002
6.472208e+003,6.718373e-002
6.476064e+003,6.821203e-002
6.479922e+003,6.961852e-002
6.483779e+003,6.989897e-002
6.487636e+003,7.142092e-002
6.491493e+003,7.211594e-002
6.495350e+003,6.990905e-002
6.499207e+003,6.692626e-002
6.503064e+003,6.494410e-002
6.506921e+003,6.633420e-002
6.510778e+003,6.655765e-002
6.514636e+003,6.597871e-002
6.518493e+003,6.608101e-002
6.522350e+003,6.617288e-002
6.526207e+003,6.695471e-002
6.530064e+003,6.777339e-002
6.533921e+003,6.649169e-002
6.537778e+003,6.493133e-002
6.541635e+003,6.718521e-002
6.545492e+003,6.838916e-002
6.549350e+003,6.763440e-002
6.553207e+003,6.659357e-002
6.557063e+003,6.821269e-002
6.560921e+003,7.175713e-002
6.564778e+003,7.336674e-002
6.568635e+003,7.175252e-002
6.572492e+003,7.145107e-002
6.576349e+003,7.197776e-002
6.580206e+003,7.206372e-002
6.584063e+003,7.026754e-002
6.587920e+003,7.052027e-002
6.591777e+003,7.131173e-002
6.595635e+003,7.176311e-002
6.599492e+003,7.064883e-002
6.603349e+003,6.978320e-002
6.607206e+003,7.192188e-002
6.611063e+003,7.202187e-002
6.614920e+003,7.214770e-002
6.618777e+003,7.290103e-002
6.622634e+003,7.221762e-002
6.626491e+003,7.122037e-002
6.630349e+003,6.822208e-002
6.634206e+003,6.736811e-002
6.638063e+003,6.876116e-002
6.641920e+003,6.964513e-002
6.645777e+003,7.119031e-002
6.649634e+003,7.195945e-002
6.653491e+003,7.253660e-002
6.657348e+003,7.567520e-002
6.661205e+003,7.585765e-002
6.665063e+003,7.457004e-002
6.668919e+003,7.364102e-002
6.672776e+003,7.496599e-002
6.676634e+003,7.692914e-002
6.680491e+003,7.707580e-002
6.684348e+003,7.574805e-002
6.688205e+003,7.476711e-002
6.692062e+003,7.666065e-002
6.695919e+003,7.882468e-002
6.699776e+003,7.892362e-002
6.703633e+003,7.847609e-002
6.707490e+003,7.814146e-002
6.711348e+003,7.715229e-002
6.715205e+003,7.685114e-002
6.719062e+003,7.672149e-002
6.722919e+003,7.655808e-002
6.726776e+003,7.590883e-002
6.730633e+003,7.684355e-002
6.734490e+003,7.614602e-002
6.738347e+003,7.514819e-002
6.742204e+003,7.463410e-002
6.746062e+003,7.503270e-002
6.749918e+003,7.542568e-002
6.753775e+003,7.670176e-002
6.757633e+003,8.151226e-002
6.761490e+003,8.420570e-002
6.765347e+003,8.260182e-002
6.769204e+003,8.443221e-002
6.773061e+003,8.788427e-002
6.776918e+003,8.663826e-002
6.780775e+003,8.296806e-002
6.784632e+003,8.068026e-002
6.788489e+003,8.081377e-002
6.792347e+003,8.089580e-002
6.796204e+003,8.381916e-002
6.800061e+003,8.351059e-002
6.803918e+003,7.865535e-002
6.807775e+003,7.562254e-002
6.811632e+003,7.702571e-002
6.815489e+003,7.917392e-002
6.819346e+003,7.741991e-002
6.823203e+003,7.865369e-002
6.827061e+003,8.058319e-002
6.830917e+003,8.154716e-002
6.834774e+003,8.254884e-002
6.838632e+003,8.182277e-002
6.842489e+003,8.093021e-002
6.846346e+003,8.161896e-002
6.850203e+003,8.023924e-002
6.854060e+003,8.117759e-002
6.857917e+003,8.298852e-002
6.861774e+003,8.548730e-002
6.865631e+003,8.761013e-002
6.869488e+003,8.692814e-002
6.873346e+003,8.727050e-002
6.877203e+003,8.864360e-002
6.881060e+003,8.844037e-002
6.884917e+003,8.761925e-002
6.888774e+003,8.828906e-002
6.892631e+003,8.707683e-002
6.896488e+003,8.265211e-002
6.900345e+003,8.197665e-002
6.904202e+003,8.212170e-002
6.908060e+003,8.162104e-002
6.911917e+003,8.444356e-002
6.915773e+003,8.555798e-002
6.919631e+003,8.624280e-002
6.923488e+003,8.870842e-002
6.927345e+003,8.878483e-002
6.931202e+003,8.813057e-002
6.935059e+003,8.765887e-002
6.938916e+003,8.955795e-002
6.942773e+003,8.691753e-002
6.946630e+003,8.227837e-002
6.950487e+003,8.576212e-002
6.954345e+003,9.070694e-002
6.958202e+003,8.938865e-002
6.962059e+003,9.024270e-002
6.965916e+003,9.001493e-002
6.969773e+003,8.893583e-002
6.973630e+003,9.265896e-002
6.977487e+003,9.614562e-002
6.981344e+003,9.568524e-002
6.985201e+003,9.531043e-002
6.989059e+003,9.423120e-002
6.992916e+003,9.086146e-002
6.996772e+003,9.227806e-002
7.000630e+003,9.284274e-002
7.004487e+003,9.341197e-002
7.008344e+003,9.142508e-002
7.012201e+003,9.228966e-002
7.016058e+003,9.682184e-002
7.019915e+003,9.539598e-002
7.023772e+003,9.293523e-002
7.027629e+003,9.359842e-002
7.031486e+003,9.369263e-002
7.035344e+003,9.214384e-002
7.039201e+003,9.300238e-002
7.043058e+003,9.752426e-002
7.046915e+003,1.011012e-001
7.050772e+003,1.028409e-001
7.054629e+003,9.899695e-002
7.058486e+003,9.717856e-002
7.062343e+003,9.684739e-002
7.066200e+003,9.650865e-002
7.070058e+003,9.954657e-002
7.073915e+003,1.039410e-001
7.077771e+003,1.064971e-001
7.081629e+003,1.040783e-001
7.085486e+003,1.048477e-001
7.089343e+003,1.068071e-001
7.093200e+003,1.040934e-001
7.097057e+003,1.005247e-001
7.100914e+003,9.909323e-002
7.104771e+003,1.008531e-001
7.108628e+003,1.026258e-001
7.112485e+003,1.049213e-001
7.116343e+003,1.009146e-001
7.120200e+003,1.005551e-001
7.124057e+003,1.034055e-001
7.127914e+003,1.024804e-001
7.131771e+003,1.013708e-001
7.135628e+003,1.038646e-001
7.139485e+003,1.050294e-001
7.143342e+003,1.029638e-001
7.147199e+003,1.007791e-001
7.151057e+003,1.046258e-001
7.154914e+003,1.094380e-001
7.158771e+003,1.087798e-001
7.162628e+003,1.081179e-001
7.166485e+003,1.093899e-001
7.170342e+003,1.083407e-001
7.174199e+003,1.067981e-001
7.178056e+003,1.055715e-001
7.181913e+003,1.027057e-001
7.185771e+003,1.024945e-001
7.189627e+003,1.064167e-001
7.193484e+003,1.093993e-001
7.197342e+003,1.085334e-001
7.201199e+003,1.073477e-001
7.205056e+003,1.038028e-001
7.208913e+003,1.032297e-001
7.212770e+003,1.032133e-001
7.216627e+003,1.011633e-001
7.220484e+003,1.024769e-001
7.224341e+003,1.033077e-001
7.228198e+003,1.023217e-001
7.232056e+003,1.088088e-001
7.235913e+003,1.078836e-001
7.239770e+003,1.061506e-001
7.243627e+003,1.089970e-001
7.247484e+003,1.055717e-001
7.251341e+003,1.069575e-001
7.255198e+003,1.090464e-001
7.259055e+003,1.103251e-001
7.262912e+003,1.078555e-001
7.266770e+003,1.082677e-001
7.270626e+003,1.081331e-001
7.274483e+003,1.077702e-001
7.278341e+003,1.079802e-001
7.282198e+003,1.080790e-001
7.286055e+003,1.068027e-001
7.289912e+003,1.034770e-001
7.293769e+003,1.047364e-001
7.297626e+003,1.108364e-001
7.301483e+003,1.095503e-001
7.305340e+003,1.048323e-001
7.309197e+003,1.118628e-001
7.313055e+003,1.117255e-001
7.316912e+003,1.061991e-001
7.320769e+003,1.057885e-001
7.324626e+003,1.091978e-001
7.328483e+003,1.123760e-001
7.332340e+003,1.085120e-001
7.336197e+003,1.088728e-001
7.340054e+003,1.076447e-001
7.343911e+003,1.069819e-001
7.347769e+003,1.103741e-001
7.351625e+003,1.175795e-001
7.355482e+003,1.164326e-001
7.359340e+003,1.099029e-001
7.363197e+003,1.040376e-001
7.367054e+003,1.070464e-001
7.370911e+003,1.136278e-001
7.374768e+003,1.157587e-001
7.378625e+003,1.093515e-001
7.382482e+003,1.087667e-001
7.386339e+003,1.139118e-001
7.390196e+003,1.134113e-001
7.394054e+003,1.128589e-001
7.397911e+003,1.137245e-001
7.401768e+003,1.074738e-001
7.405625e+003,1.005133e-001
7.409482e+003,1.013855e-001
7.413339e+003,1.100479e-001
7.417196e+003,1.168924e-001
7.421053e+003,1.131787e-001
7.424910e+003,1.045481e-001
7.428768e+003,9.998602e-002
7.432625e+003,1.075794e-001
7.436481e+003,1.181194e-001
7.440339e+003,1.199381e-001
7.444196e+003,1.194610e-001
7.448053e+003,1.165058e-001
7.451910e+003,1.150371e-001
7.455767e+003,1.135721e-001
7.459624e+003,1.152484e-001
7.463481e+003,1.196208e-001
7.467338e+003,1.211974e-001
7.471195e+003,1.188995e-001
7.475053e+003,1.174465e-001
7.478910e+003,1.229275e-001
7.482767e+003,1.209270e-001
7.486624e+003,1.128477e-001
7.490481e+003,1.184889e-001
7.494338e+003,1.188581e-001
7.498195e+003,1.153073e-001
7.502052e+003,1.178422e-001
7.505909e+003,1.173614e-001
7.509767e+003,1.189053e-001
7.513624e+003,1.179201e-001
7.517480e+003,1.120763e-001
7.521338e+003,1.086671e-001
7.525195e+003,1.076862e-001
7.529052e+003,1.144801e-001
7.532909e+003,1.254308e-001
7.536766e+003,1.285292e-001
7.540623e+003,1.242867e-001
7.544480e+003,1.229782e-001
7.548337e+003,1.176875e-001
7.552194e+003,1.190184e-001
7.556052e+003,1.194008e-001
7.559909e+003,1.217042e-001
7.563766e+003,1.238689e-001
7.567623e+003,1.221650e-001
7.571480e+003,1.167529e-001
7.575337e+003,1.092549e-001
7.579194e+003,1.151031e-001
7.583051e+003,1.278731e-001
7.586908e+003,1.281011e-001
7.590766e+003,1.250610e-001
7.594623e+003,1.190037e-001
7.598479e+003,1.162665e-001
7.602337e+003,1.164965e-001
7.606194e+003,1.189004e-001
7.610051e+003,1.247629e-001
7.613908e+003,1.235989e-001
7.617765e+003,1.273024e-001
7.621622e+003,1.310413e-001
7.625479e+003,1.211321e-001
7.629336e+003,1.178236e-001
7.633193e+003,1.239212e-001
7.637051e+003,1.233263e-001
7.640908e+003,1.197735e-001
7.644765e+003,1.206929e-001
7.648622e+003,1.286274e-001
7.652479e+003,1.358031e-001
7.656336e+003,1.313621e-001
7.660193e+003,1.261722e-001
7.664050e+003,1.262509e-001
7.667907e+003,1.320169e-001
7.671765e+003,1.318866e-001
7.675622e+003,1.285077e-001
7.679479e+003,1.273257e-001
7.683336e+003,1.306326e-001
7.687193e+003,1.320958e-001
7.691050e+003,1.330977e-001
7.694907e+003,1.380407e-001
7.698764e+003,1.399920e-001
7.702621e+003,1.335934e-001
7.706479e+003,1.298605e-001
7.710335e+003,1.299257e-001
7.714192e+003,1.350179e-001
7.718050e+003,1.363931e-001
7.721907e+003,1.314777e-001
7.725764e+003,1.344227e-001
7.729621e+003,1.313777e-001
7.733478e+003,1.283241e-001
7.737335e+003,1.330410e-001
7.741192e+003,1.359891e-001
7.745049e+003,1.349972e-001
7.748906e+003,1.364125e-001
7.752764e+003,1.369814e-001
7.756621e+003,1.395418e-001
7.760478e+003,1.308198e-001
7.764335e+003,1.299712e-001
7.768192e+003,1.381985e-001
7.772049e+003,1.332967e-001
7.775906e+003,1.333220e-001
7.779763e+003,1.340471e-001
7.783620e+003,1.305269e-001
7.787478e+003,1.300830e-001
7.791334e+003,1.293545e-001
7.795191e+003,1.321832e-001
7.799049e+003,1.320986e-001
7.802906e+003,1.336457e-001
7.806763e+003,1.313830e-001
7.810620e+003,1.264750e-001
7.814477e+003,1.266814e-001
7.818334e+003,1.302672e-001
7.822191e+003,1.366218e-001
7.826048e+003,1.337739e-001
7.829905e+003,1.283849e-001
7.833763e+003,1.313995e-001
7.837620e+003,1.418901e-001
7.841477e+003,1.420793e-001
7.845334e+003,1.444970e-001
7.849191e+003,1.393086e-001
7.853048e+003,1.345306e-001
7.856905e+003,1.418872e-001
7.860762e+003,1.471298e-001
7.864619e+003,1.479574e-001
7.868477e+003,1.419661e-001
7.872333e+003,1.570615e-001
7.876190e+003,1.601226e-001
7.880048e+003,1.584635e-001
7.883905e+003,1.645488e-001
7.887762e+003,1.596823e-001
7.891619e+003,1.543569e-001
7.895476e+003,1.495257e-001
7.899333e+003,1.384279e-001
7.903190e+003,1.285264e-001
7.907047e+003,1.277600e-001
7.910904e+003,1.481974e-001
7.914762e+003,1.776444e-001
7.918619e+003,1.651426e-001
7.922476e+003,1.354941e-001
7.926333e+003,1.352444e-001
7.930190e+003,1.384033e-001
7.934047e+003,1.430142e-001
7.937904e+003,1.382818e-001
7.941761e+003,1.511042e-001
7.945618e+003,1.584525e-001
7.949476e+003,1.547153e-001
7.953333e+003,1.555919e-001
7.957189e+003,1.652640e-001
7.961047e+003,1.701348e-001
7.964904e+003,1.521475e-001
7.968761e+003,1.465551e-001
7.972618e+003,1.620704e-001
7.976475e+003,1.681840e-001
7.980332e+003,1.633729e-001
7.984189e+003,1.628945e-001
7.988046e+003,1.564605e-001
7.991903e+003,1.421847e-001
7.995761e+003,1.444194e-001
7.999618e+003,1.610388e-001
