4.011380e+002,7.373030e-002
4.049951e+002,-9.968909e-001
4.088522e+002,6.000000e+000
4.127093e+002,6.000000e+000
4.165664e+002,6.000000e+000
4.204235e+002,6.000000e+000
4.242806e+002,-1.323475e+000
4.281377e+002,-1.588497e-001
4.319948e+002,4.667373e-002
4.358519e+002,-3.390304e-001
4.397090e+002,-1.617362e-001
4.435661e+002,6.000000e+000
4.474232e+002,-8.610898e-002
4.512803e+002,6.000000e+000
4.551374e+002,6.000000e+000
4.589945e+002,6.000000e+000
4.628516e+002,5.385987e-001
4.667087e+002,-8.006228e-001
4.705658e+002,6.000000e+000
4.744229e+002,6.000000e+000
4.782800e+002,1.138846e-001
4.821371e+002,8.733316e-001
4.859941e+002,-3.685506e-002
4.898513e+002,5.203179e-001
4.937083e+002,-1.921784e-001
4.975654e+002,4.971689e-001
5.014225e+002,9.661689e-001
5.052796e+002,6.000000e+000
5.091367e+002,1.166055e+000
5.129938e+002,6.000000e+000
5.168509e+002,5.238747e-001
5.207080e+002,6.000000e+000
5.245651e+002,6.000000e+000
5.284222e+002,5.452982e-001
5.322793e+002,-1.860468e-001
5.361364e+002,-5.694908e-001
5.399935e+002,1.547458e-001
5.438506e+002,5.617661e-001
5.477077e+002,6.000000e+000
5.515648e+002,6.000000e+000
5.554219e+002,6.000000e+000
5.592790e+002,6.000000e+000
5.631361e+002,-1.094176e-001
5.669932e+002,6.428893e-001
5.708503e+002,6.000000e+000
5.747074e+002,6.000000e+000
5.785645e+002,6.000000e+000
5.824216e+002,6.000000e+000
5.862787e+002,9.409093e-001
5.901357e+002,6.000000e+000
5.939929e+002,4.926591e-001
5.978499e+002,8.134078e-001
6.017070e+002,-1.820194e-002
6.055641e+002,-5.202623e-001
6.094212e+002,6.000000e+000
6.132783e+002,-7.041380e-002
6.171354e+002,1.768141e+000
6.209925e+002,9.931107e-002
6.248496e+002,-1.006773e+000
6.287067e+002,6.000000e+000
6.325638e+002,6.000000e+000
6.364209e+002,6.645621e-001
6.402780e+002,3.593433e-001
6.441351e+002,2.455790e-001
6.479922e+002,6.000000e+000
6.518493e+002,6.000000e+000
6.557064e+002,6.000000e+000
6.595635e+002,-3.087931e-001
6.634205e+002,3.541158e-001
6.672777e+002,6.000000e+000
6.711348e+002,6.000000e+000
6.749918e+002,1.015683e-001
6.788490e+002,6.000000e+000
6.827061e+002,6.000000e+000
6.865631e+002,6.000000e+000
6.904203e+002,6.000000e+000
6.942773e+002,-4.648711e-001
6.981344e+002,-1.620636e+000
7.019916e+002,6.000000e+000
7.058486e+002,-4.762554e-003
7.097057e+002,-4.551641e-001
7.135629e+002,-2.516331e-001
7.174199e+002,6.000000e+000
7.212770e+002,9.470444e-001
7.251342e+002,1.504456e-001
7.289912e+002,2.974854e-001
7.328483e+002,1.326353e+000
7.367054e+002,6.000000e+000
7.405625e+002,1.020717e-001
7.444196e+002,6.000000e+000
7.482767e+002,6.000000e+000
7.521338e+002,-3.857930e-001
7.559908e+002,-3.493529e-002
7.598480e+002,4.752612e-001
7.637051e+002,6.000000e+000
7.675621e+002,6.000000e+000
7.714193e+002,2.601565e-001
7.752764e+002,4.230040e-001
7.791334e+002,2.012345e+000
7.829905e+002,6.000000e+000
7.868477e+002,6.000000e+000
7.907047e+002,-8.795618e-001
7.945618e+002,2.242922e-002
7.984189e+002,6.000000e+000
8.022760e+002,2.143620e+000
8.061331e+002,-3.863987e-001
8.099902e+002,6.000000e+000
8.138473e+002,6.000000e+000
8.177044e+002,6.000000e+000
8.215615e+002,6.000000e+000
8.254186e+002,6.000000e+000
8.292757e+002,6.000000e+000
8.331328e+002,1.530825e+000
8.369899e+002,6.000000e+000
8.408470e+002,6.000000e+000
8.447041e+002,9.037122e-001
8.485612e+002,6.000000e+000
8.524183e+002,6.000000e+000
8.562754e+002,2.874687e-001
8.601324e+002,2.856545e-001
8.639896e+002,6.000000e+000
8.678467e+002,6.000000e+000
8.717037e+002,6.000000e+000
8.755609e+002,1.843444e+000
8.794180e+002,9.766334e-001
8.832750e+002,9.376959e-001
8.871321e+002,6.220133e-001
8.909893e+002,8.469965e-001
8.948463e+002,1.728164e+000
8.987034e+002,2.151982e+000
9.025605e+002,6.000000e+000
9.064176e+002,6.000000e+000
9.102747e+002,1.172982e+000
9.141318e+002,8.276963e-001
9.179889e+002,1.579285e+000
9.218461e+002,1.536163e+000
9.257031e+002,1.074425e+000
9.295602e+002,9.641073e-001
9.334174e+002,9.277316e-001
9.372744e+002,1.072910e+000
9.411315e+002,1.192694e+000
9.449886e+002,1.185136e+000
9.488457e+002,6.000000e+000
9.527028e+002,6.000000e+000
9.565599e+002,6.000000e+000
9.604170e+002,6.000000e+000
9.642740e+002,6.000000e+000
9.681312e+002,6.000000e+000
9.719883e+002,6.000000e+000
9.758453e+002,2.557031e+000
9.797025e+002,1.306413e+000
9.835596e+002,1.243752e+000
9.874166e+002,1.279321e+000
9.912738e+002,1.287012e+000
9.951309e+002,1.785820e+000
9.989879e+002,6.000000e+000
1.002845e+003,6.000000e+000
1.006702e+003,6.000000e+000
1.010559e+003,2.684920e+000
1.014416e+003,1.344125e+000
1.018273e+003,1.328979e+000
1.022130e+003,1.767331e+000
1.025988e+003,1.650795e+000
1.029845e+003,1.502355e+000
1.033702e+003,1.558990e+000
1.037559e+003,1.592474e+000
1.041416e+003,1.456920e+000
1.045273e+003,1.460711e+000
1.049130e+003,1.418090e+000
1.052987e+003,1.238935e+000
1.056844e+003,1.151003e+000
1.060702e+003,1.268715e+000
1.064559e+003,1.844818e+000
1.068416e+003,2.212142e+000
1.072273e+003,1.454301e+000
1.076130e+003,1.225889e+000
1.079987e+003,1.277402e+000
1.083844e+003,1.275503e+000
1.087701e+003,1.283332e+000
1.091558e+003,1.176533e+000
1.095415e+003,1.051008e+000
1.099272e+003,1.015389e+000
1.103130e+003,1.059499e+000
1.106987e+003,9.898896e-001
1.110844e+003,9.084966e-001
1.114701e+003,9.859265e-001
1.118558e+003,1.042850e+000
1.122415e+003,9.939764e-001
1.126272e+003,1.020054e+000
1.130129e+003,1.018044e+000
1.133986e+003,9.482616e-001
1.137843e+003,9.362065e-001
1.141701e+003,9.577659e-001
1.145558e+003,9.717090e-001
1.149415e+003,8.972031e-001
1.153272e+003,8.456788e-001
1.157129e+003,8.495124e-001
1.160986e+003,8.659137e-001
1.164843e+003,8.473775e-001
1.168700e+003,8.268826e-001
1.172557e+003,8.452364e-001
1.176414e+003,8.704245e-001
1.180271e+003,8.497717e-001
1.184129e+003,8.498071e-001
1.187986e+003,8.800902e-001
1.191843e+003,8.620472e-001
1.195700e+003,8.479646e-001
1.199557e+003,8.437002e-001
1.203414e+003,7.784261e-001
1.207271e+003,7.370052e-001
1.211128e+003,7.170216e-001
1.214985e+003,6.721064e-001
1.218842e+003,6.240079e-001
1.222699e+003,6.058492e-001
1.226557e+003,5.926412e-001
1.230414e+003,5.579430e-001
1.234271e+003,5.213234e-001
1.238128e+003,4.984666e-001
1.241985e+003,4.815820e-001
1.245842e+003,4.553520e-001
1.249699e+003,4.371012e-001
1.253556e+003,4.294881e-001
1.257413e+003,4.070835e-001
1.261271e+003,3.778890e-001
1.265128e+003,3.688883e-001
1.268985e+003,3.643909e-001
1.272842e+003,3.581141e-001
1.276699e+003,3.501335e-001
1.280556e+003,3.403538e-001
1.284413e+003,3.316342e-001
1.288270e+003,3.190078e-001
1.292127e+003,3.100132e-001
1.295984e+003,3.022350e-001
1.299841e+003,2.977922e-001
1.303698e+003,3.024544e-001
1.307556e+003,2.883988e-001
1.311413e+003,2.779362e-001
1.315270e+003,2.705673e-001
1.319127e+003,2.665742e-001
1.322984e+003,2.602700e-001
1.326841e+003,2.588306e-001
1.330698e+003,2.621555e-001
1.334555e+003,2.552748e-001
1.338412e+003,2.560219e-001
1.342270e+003,2.661463e-001
1.346127e+003,2.674306e-001
1.349984e+003,2.588711e-001
1.353841e+003,2.559082e-001
1.357698e+003,2.580122e-001
1.361555e+003,2.569356e-001
1.365412e+003,2.598691e-001
1.369269e+003,2.643122e-001
1.373126e+003,2.615011e-001
1.376983e+003,2.575141e-001
1.380840e+003,2.574330e-001
1.384698e+003,2.679179e-001
1.388555e+003,2.699561e-001
1.392412e+003,2.698806e-001
1.396269e+003,2.760266e-001
1.400126e+003,2.781459e-001
1.403983e+003,2.829696e-001
1.407840e+003,2.806951e-001
1.411697e+003,2.790318e-001
1.415554e+003,2.847682e-001
1.419411e+003,2.930813e-001
1.423269e+003,2.982765e-001
1.427126e+003,2.931403e-001
1.430983e+003,2.977833e-001
1.434840e+003,3.117570e-001
1.438697e+003,3.124776e-001
1.442554e+003,3.119012e-001
1.446411e+003,3.085077e-001
1.450268e+003,3.049593e-001
1.454125e+003,2.977681e-001
1.457982e+003,2.950434e-001
1.461839e+003,3.069962e-001
1.465697e+003,3.126496e-001
1.469554e+003,3.197416e-001
1.473411e+003,3.160915e-001
1.477268e+003,3.200074e-001
1.481125e+003,3.245777e-001
1.484982e+003,3.170102e-001
1.488839e+003,3.211412e-001
1.492696e+003,3.265218e-001
1.496553e+003,3.265449e-001
1.500411e+003,3.284815e-001
1.504268e+003,3.392821e-001
1.508125e+003,3.413487e-001
1.511982e+003,3.324501e-001
1.515839e+003,3.189573e-001
1.519696e+003,3.164960e-001
1.523553e+003,3.193927e-001
1.527410e+003,3.129175e-001
1.531267e+003,3.028960e-001
1.535124e+003,3.017498e-001
1.538981e+003,3.031165e-001
1.542839e+003,2.827648e-001
1.546696e+003,2.655409e-001
1.550553e+003,2.690987e-001
1.554410e+003,2.716103e-001
1.558267e+003,2.650858e-001
1.562124e+003,2.689707e-001
1.565981e+003,2.721902e-001
1.569838e+003,2.673926e-001
1.573695e+003,2.677197e-001
1.577552e+003,2.656184e-001
1.581410e+003,2.631845e-001
1.585267e+003,2.704514e-001
1.589124e+003,2.854581e-001
1.592981e+003,2.932557e-001
1.596838e+003,2.861623e-001
1.600695e+003,2.947541e-001
1.604552e+003,3.036371e-001
1.608409e+003,3.012242e-001
1.612266e+003,3.174262e-001
1.616123e+003,3.303658e-001
1.619980e+003,3.384256e-001
1.623838e+003,3.484007e-001
1.627695e+003,3.579483e-001
1.631552e+003,3.614532e-001
1.635409e+003,3.627000e-001
1.639266e+003,3.588212e-001
1.643123e+003,3.466187e-001
1.646980e+003,3.333643e-001
1.650837e+003,3.317624e-001
1.654694e+003,3.274883e-001
1.658551e+003,3.212253e-001
1.662409e+003,3.146264e-001
1.666266e+003,3.020073e-001
1.670123e+003,2.908567e-001
1.673980e+003,2.882272e-001
1.677837e+003,2.857499e-001
1.681694e+003,2.777934e-001
1.685551e+003,2.633325e-001
1.689408e+003,2.506873e-001
1.693265e+003,2.533231e-001
1.697122e+003,2.474094e-001
1.700979e+003,2.353400e-001
1.704837e+003,2.381609e-001
1.708694e+003,2.452413e-001
1.712551e+003,2.540534e-001
1.716408e+003,2.576542e-001
1.720265e+003,2.648346e-001
1.724122e+003,2.631830e-001
1.727979e+003,2.587925e-001
1.731836e+003,2.639254e-001
1.735693e+003,2.738566e-001
1.739550e+003,2.782225e-001
1.743408e+003,2.770360e-001
1.747265e+003,2.789751e-001
1.751122e+003,2.836100e-001
1.754979e+003,2.881305e-001
1.758836e+003,2.872989e-001
1.762693e+003,2.849298e-001
1.766550e+003,2.871398e-001
1.770407e+003,2.898954e-001
1.774264e+003,2.875229e-001
1.778121e+003,2.848536e-001
1.781979e+003,2.828914e-001
1.785836e+003,2.713407e-001
1.789693e+003,2.614748e-001
1.793550e+003,2.577646e-001
1.797407e+003,2.455257e-001
1.801264e+003,2.356957e-001
1.805121e+003,2.351581e-001
1.808978e+003,2.301193e-001
1.812835e+003,2.267021e-001
1.816692e+003,2.204423e-001
1.820549e+003,2.148795e-001
1.824407e+003,2.137400e-001
1.828264e+003,2.159025e-001
1.832121e+003,2.223694e-001
1.835978e+003,2.258908e-001
1.839835e+003,2.230156e-001
1.843692e+003,2.230208e-001
1.847549e+003,2.216210e-001
1.851406e+003,2.182471e-001
1.855263e+003,2.187978e-001
1.859120e+003,2.211517e-001
1.862978e+003,2.281860e-001
1.866835e+003,2.320738e-001
1.870692e+003,2.324388e-001
1.874549e+003,2.336737e-001
1.878406e+003,2.358139e-001
1.882263e+003,2.386810e-001
1.886120e+003,2.402237e-001
1.889977e+003,2.447033e-001
1.893834e+003,2.455255e-001
1.897691e+003,2.477729e-001
1.901548e+003,2.588255e-001
1.905406e+003,2.622968e-001
1.909263e+003,2.608700e-001
1.913120e+003,2.559218e-001
1.916977e+003,2.534500e-001
1.920834e+003,2.547587e-001
1.924691e+003,2.477209e-001
1.928548e+003,2.436806e-001
1.932405e+003,2.432985e-001
1.936262e+003,2.390276e-001
1.940119e+003,2.330320e-001
1.943977e+003,2.243393e-001
1.947834e+003,2.167123e-001
1.951691e+003,2.157937e-001
1.955548e+003,2.113585e-001
1.959405e+003,2.086180e-001
1.963262e+003,2.006166e-001
1.967119e+003,1.953952e-001
1.970976e+003,1.948203e-001
1.974833e+003,1.938332e-001
1.978690e+003,1.921447e-001
1.982547e+003,1.935306e-001
1.986405e+003,1.925548e-001
1.990262e+003,1.912313e-001
1.994119e+003,1.907970e-001
1.997976e+003,1.946251e-001
2.001833e+003,2.006536e-001
2.005690e+003,2.016598e-001
2.009547e+003,2.043599e-001
2.013404e+003,2.109163e-001
2.017261e+003,2.170515e-001
2.021118e+003,2.213544e-001
2.024976e+003,2.245191e-001
2.028833e+003,2.231589e-001
2.032690e+003,2.232126e-001
2.036547e+003,2.258102e-001
2.040404e+003,2.237374e-001
2.044261e+003,2.222013e-001
2.048118e+003,2.299017e-001
2.051975e+003,2.363809e-001
2.055832e+003,2.352385e-001
2.059689e+003,2.331886e-001
2.063546e+003,2.276023e-001
2.067404e+003,2.277723e-001
2.071261e+003,2.324023e-001
2.075118e+003,2.309039e-001
2.078975e+003,2.256164e-001
2.082832e+003,2.191691e-001
2.086689e+003,2.179086e-001
2.090546e+003,2.141003e-001
2.094403e+003,2.104019e-001
2.098260e+003,2.048326e-001
2.102117e+003,1.934895e-001
2.105975e+003,1.846605e-001
2.109832e+003,1.824786e-001
2.113689e+003,1.886299e-001
2.117546e+003,1.901187e-001
2.121403e+003,1.825036e-001
2.125260e+003,1.809728e-001
2.129117e+003,1.812115e-001
2.132974e+003,1.746797e-001
2.136831e+003,1.731281e-001
2.140688e+003,1.729348e-001
2.144545e+003,1.758638e-001
2.148403e+003,1.792912e-001
2.152260e+003,1.865206e-001
2.156117e+003,1.922676e-001
2.159974e+003,1.912151e-001
2.163831e+003,1.922515e-001
2.167688e+003,1.997059e-001
2.171545e+003,2.054074e-001
2.175402e+003,2.091955e-001
2.179259e+003,2.097578e-001
2.183116e+003,2.076961e-001
2.186974e+003,2.096126e-001
2.190831e+003,2.152141e-001
2.194688e+003,2.192324e-001
2.198545e+003,2.221802e-001
2.202402e+003,2.290181e-001
2.206259e+003,2.323076e-001
2.210116e+003,2.335525e-001
2.213973e+003,2.364356e-001
2.217830e+003,2.383700e-001
2.221688e+003,2.383640e-001
2.225544e+003,2.390623e-001
2.229402e+003,2.390284e-001
2.233259e+003,2.360003e-001
2.237116e+003,2.274061e-001
2.240973e+003,2.160155e-001
2.244830e+003,2.085384e-001
2.248687e+003,2.079501e-001
2.252544e+003,2.084209e-001
2.256401e+003,2.050560e-001
2.260258e+003,2.021500e-001
2.264115e+003,1.995036e-001
2.267973e+003,1.975548e-001
2.271830e+003,1.906438e-001
2.275687e+003,1.857787e-001
2.279544e+003,1.819508e-001
2.283401e+003,1.782278e-001
2.287258e+003,1.776324e-001
2.291115e+003,1.800623e-001
2.294972e+003,1.801042e-001
2.298829e+003,1.819709e-001
2.302687e+003,1.875119e-001
2.306543e+003,1.898111e-001
2.310401e+003,1.891632e-001
2.314258e+003,1.954454e-001
2.318115e+003,2.060712e-001
2.321972e+003,2.116206e-001
2.325829e+003,2.175580e-001
2.329686e+003,2.187368e-001
2.333543e+003,2.274566e-001
2.337400e+003,2.302503e-001
2.341257e+003,2.315497e-001
2.345115e+003,2.369496e-001
2.348972e+003,2.397446e-001
2.352829e+003,2.417580e-001
2.356686e+003,2.443614e-001
2.360543e+003,2.482940e-001
2.364400e+003,2.507465e-001
2.368257e+003,2.483778e-001
2.372114e+003,2.477912e-001
2.375971e+003,2.478601e-001
2.379828e+003,2.441879e-001
2.383686e+003,2.350560e-001
2.387542e+003,2.295264e-001
2.391400e+003,2.302193e-001
2.395257e+003,2.257969e-001
2.399114e+003,2.173238e-001
2.402971e+003,2.139597e-001
2.406828e+003,2.092205e-001
2.410685e+003,2.057358e-001
2.414542e+003,2.068425e-001
2.418399e+003,2.001786e-001
2.422256e+003,1.948087e-001
2.426114e+003,1.954758e-001
2.429971e+003,1.932467e-001
2.433828e+003,1.852838e-001
2.437685e+003,1.820637e-001
2.441542e+003,1.838887e-001
2.445399e+003,1.826983e-001
2.449256e+003,1.803920e-001
2.453113e+003,1.824652e-001
2.456970e+003,1.873604e-001
2.460827e+003,1.925747e-001
2.464684e+003,1.937326e-001
2.468542e+003,1.946299e-001
2.472399e+003,1.940010e-001
2.476256e+003,1.962972e-001
2.480113e+003,2.016042e-001
2.483970e+003,2.028413e-001
2.487827e+003,2.067729e-001
2.491684e+003,2.135842e-001
2.495541e+003,2.198281e-001
2.499398e+003,2.227058e-001
2.503255e+003,2.215465e-001
2.507113e+003,2.213354e-001
2.510969e+003,2.258424e-001
2.514827e+003,2.296941e-001
2.518684e+003,2.357321e-001
2.522541e+003,2.359477e-001
2.526398e+003,2.344726e-001
2.530255e+003,2.334931e-001
2.534112e+003,2.318367e-001
2.537969e+003,2.309521e-001
2.541826e+003,2.311620e-001
2.545683e+003,2.286088e-001
2.549541e+003,2.270453e-001
2.553398e+003,2.270633e-001
2.557255e+003,2.195673e-001
2.561112e+003,2.131999e-001
2.564969e+003,2.153546e-001
2.568826e+003,2.170961e-001
2.572683e+003,2.118088e-001
2.576540e+003,2.043873e-001
2.580397e+003,2.016083e-001
2.584254e+003,2.011611e-001
2.588112e+003,1.977365e-001
2.591969e+003,1.922212e-001
2.595826e+003,1.906481e-001
2.599683e+003,1.906744e-001
2.603540e+003,1.961042e-001
2.607397e+003,2.009040e-001
2.611254e+003,2.045392e-001
2.615111e+003,2.038153e-001
2.618968e+003,2.058082e-001
2.622825e+003,2.093381e-001
2.626682e+003,2.076402e-001
2.630540e+003,2.062067e-001
2.634397e+003,2.093370e-001
2.638254e+003,2.186681e-001
2.642111e+003,2.323011e-001
2.645968e+003,2.331458e-001
2.649825e+003,2.324876e-001
2.653682e+003,2.403176e-001
2.657539e+003,2.448985e-001
2.661396e+003,2.456352e-001
2.665253e+003,2.434455e-001
2.669111e+003,2.410460e-001
2.672968e+003,2.497503e-001
2.676825e+003,2.558063e-001
2.680682e+003,2.538050e-001
2.684539e+003,2.541312e-001
2.688396e+003,2.545340e-001
2.692253e+003,2.571740e-001
2.696110e+003,2.560116e-001
2.699967e+003,2.560067e-001
2.703824e+003,2.567433e-001
2.707681e+003,2.523895e-001
2.711539e+003,2.500726e-001
2.715396e+003,2.461228e-001
2.719253e+003,2.431991e-001
2.723110e+003,2.368745e-001
2.726967e+003,2.341894e-001
2.730824e+003,2.359039e-001
2.734681e+003,2.362122e-001
2.738538e+003,2.352447e-001
2.742395e+003,2.310363e-001
2.746252e+003,2.316285e-001
2.750110e+003,2.346533e-001
2.753967e+003,2.317861e-001
2.757824e+003,2.294071e-001
2.761681e+003,2.308050e-001
2.765538e+003,2.366880e-001
2.769395e+003,2.395697e-001
2.773252e+003,2.428882e-001
2.777109e+003,2.429271e-001
2.780966e+003,2.477286e-001
2.784823e+003,2.523254e-001
2.788680e+003,2.558334e-001
2.792538e+003,2.595367e-001
2.796395e+003,2.572862e-001
2.800252e+003,2.643276e-001
2.804109e+003,2.734833e-001
2.807966e+003,2.778752e-001
2.811823e+003,2.856638e-001
2.815680e+003,2.871369e-001
2.819537e+003,2.876098e-001
2.823394e+003,2.926590e-001
2.827251e+003,2.973206e-001
2.831109e+003,3.049469e-001
2.834966e+003,3.053720e-001
2.838823e+003,3.062375e-001
2.842680e+003,3.009650e-001
2.846537e+003,3.015753e-001
2.850394e+003,3.035624e-001
2.854251e+003,3.030158e-001
2.858108e+003,3.008434e-001
2.861965e+003,3.045115e-001
2.865823e+003,3.094254e-001
2.869679e+003,3.047731e-001
2.873537e+003,2.955534e-001
2.877394e+003,2.975098e-001
2.881251e+003,3.018099e-001
2.885108e+003,2.973121e-001
2.888965e+003,2.908658e-001
2.892822e+003,2.894408e-001
2.896679e+003,2.926528e-001
2.900536e+003,2.976062e-001
2.904393e+003,2.974192e-001
2.908250e+003,2.980911e-001
2.912108e+003,2.956584e-001
2.915965e+003,2.945474e-001
2.919822e+003,2.957322e-001
2.923679e+003,3.016261e-001
2.927536e+003,3.048269e-001
2.931393e+003,3.041095e-001
2.935250e+003,3.053119e-001
2.939107e+003,3.106273e-001
2.942964e+003,3.180384e-001
2.946822e+003,3.220375e-001
2.950678e+003,3.238134e-001
2.954536e+003,3.257918e-001
2.958393e+003,3.290603e-001
2.962250e+003,3.315148e-001
2.966107e+003,3.427402e-001
2.969964e+003,3.524681e-001
2.973821e+003,3.553882e-001
2.977678e+003,3.534973e-001
2.981535e+003,3.576228e-001
2.985392e+003,3.655063e-001
2.989250e+003,3.704384e-001
2.993107e+003,3.749150e-001
2.996964e+003,3.772334e-001
3.000821e+003,3.756393e-001
3.004678e+003,3.689629e-001
3.008535e+003,3.697986e-001
3.012392e+003,3.747801e-001
3.016249e+003,3.749378e-001
3.020106e+003,3.737356e-001
3.023963e+003,3.680602e-001
3.027821e+003,3.723237e-001
3.031677e+003,3.788878e-001
3.035535e+003,3.760501e-001
3.039392e+003,3.776454e-001
3.043249e+003,3.837324e-001
3.047106e+003,3.821704e-001
3.050963e+003,3.783099e-001
3.054820e+003,3.760259e-001
3.058677e+003,3.749458e-001
3.062534e+003,3.706495e-001
3.066391e+003,3.718255e-001
3.070249e+003,3.803371e-001
3.074106e+003,3.801266e-001
3.077963e+003,3.797654e-001
3.081820e+003,3.884824e-001
3.085677e+003,3.872208e-001
3.089534e+003,3.823650e-001
3.093391e+003,3.875312e-001
3.097248e+003,3.972113e-001
3.101105e+003,3.990050e-001
3.104962e+003,3.957725e-001
3.108820e+003,3.986422e-001
3.112677e+003,4.085575e-001
3.116534e+003,4.188316e-001
3.120391e+003,4.221466e-001
3.124248e+003,4.269383e-001
3.128105e+003,4.337662e-001
3.131962e+003,4.372427e-001
3.135819e+003,4.414847e-001
3.139676e+003,4.414829e-001
3.143533e+003,4.461800e-001
3.147390e+003,4.564668e-001
3.151248e+003,4.636830e-001
3.155105e+003,4.678631e-001
3.158962e+003,4.663295e-001
3.162819e+003,4.664369e-001
3.166676e+003,4.734833e-001
3.170533e+003,4.735337e-001
3.174390e+003,4.631459e-001
3.178247e+003,4.584191e-001
3.182104e+003,4.669082e-001
3.185961e+003,4.659732e-001
3.189819e+003,4.587925e-001
3.193676e+003,4.571790e-001
3.197533e+003,4.639474e-001
3.201390e+003,4.738560e-001
3.205247e+003,4.710016e-001
3.209104e+003,4.713413e-001
3.212961e+003,4.665886e-001
3.216818e+003,4.632005e-001
3.220675e+003,4.588358e-001
3.224532e+003,4.561400e-001
3.228389e+003,4.638305e-001
3.232247e+003,4.746113e-001
3.236104e+003,4.769473e-001
3.239961e+003,4.807290e-001
3.243818e+003,4.822267e-001
3.247675e+003,4.836807e-001
3.251532e+003,4.943361e-001
3.255389e+003,4.991148e-001
3.259246e+003,4.987445e-001
3.263103e+003,5.008206e-001
3.266960e+003,4.949439e-001
3.270818e+003,4.965968e-001
3.274675e+003,5.059839e-001
3.278532e+003,5.083275e-001
3.282389e+003,5.137985e-001
3.286246e+003,5.182977e-001
3.290103e+003,5.164886e-001
3.293960e+003,5.197774e-001
3.297817e+003,5.267366e-001
3.301674e+003,5.329878e-001
3.305531e+003,5.439216e-001
3.309388e+003,5.585641e-001
3.313246e+003,5.624298e-001
3.317103e+003,5.514864e-001
3.320960e+003,5.428370e-001
3.324817e+003,5.388633e-001
3.328674e+003,5.417970e-001
3.332531e+003,5.452319e-001
3.336388e+003,5.545394e-001
3.340245e+003,5.576489e-001
3.344102e+003,5.522054e-001
3.347959e+003,5.553458e-001
3.351817e+003,5.531673e-001
3.355674e+003,5.491875e-001
3.359531e+003,5.440120e-001
3.363388e+003,5.473423e-001
3.367245e+003,5.543327e-001
3.371102e+003,5.494936e-001
3.374959e+003,5.425661e-001
3.378816e+003,5.442415e-001
3.382673e+003,5.425668e-001
3.386530e+003,5.508599e-001
3.390387e+003,5.571929e-001
3.394245e+003,5.545294e-001
3.398102e+003,5.501342e-001
3.401959e+003,5.600788e-001
3.405816e+003,5.655513e-001
3.409673e+003,5.628703e-001
3.413530e+003,5.717303e-001
3.417387e+003,5.770621e-001
3.421244e+003,5.806258e-001
3.425101e+003,5.789387e-001
3.428958e+003,5.727856e-001
3.432815e+003,5.703540e-001
3.436673e+003,5.748764e-001
3.440530e+003,5.817393e-001
3.444387e+003,5.804322e-001
3.448244e+003,5.854723e-001
3.452101e+003,5.968891e-001
3.455958e+003,5.991899e-001
3.459815e+003,5.946735e-001
3.463672e+003,5.945479e-001
3.467529e+003,6.032582e-001
3.471386e+003,5.955864e-001
3.475244e+003,5.823094e-001
3.479101e+003,5.823014e-001
3.482958e+003,5.871531e-001
3.486815e+003,5.888371e-001
3.490672e+003,5.888571e-001
3.494529e+003,5.885759e-001
3.498386e+003,5.868666e-001
3.502243e+003,5.963510e-001
3.506100e+003,5.995987e-001
3.509958e+003,5.920692e-001
3.513814e+003,5.875352e-001
3.517672e+003,5.831162e-001
3.521529e+003,5.771704e-001
3.525386e+003,5.790304e-001
3.529243e+003,5.732028e-001
3.533100e+003,5.715653e-001
3.536957e+003,5.707233e-001
3.540814e+003,5.568552e-001
3.544671e+003,5.585580e-001
3.548528e+003,5.703154e-001
3.552385e+003,5.730429e-001
3.556243e+003,5.697830e-001
3.560100e+003,5.745305e-001
3.563957e+003,5.746679e-001
3.567814e+003,5.681148e-001
3.571671e+003,5.604197e-001
3.575528e+003,5.595138e-001
3.579385e+003,5.433886e-001
3.583242e+003,5.301915e-001
3.587099e+003,5.318668e-001
3.590957e+003,5.294875e-001
3.594813e+003,5.390354e-001
3.598671e+003,5.353030e-001
3.602528e+003,5.114933e-001
3.606385e+003,4.909715e-001
3.610242e+003,4.830878e-001
3.614099e+003,4.727353e-001
3.617956e+003,4.616459e-001
3.621813e+003,4.539911e-001
3.625670e+003,4.329210e-001
3.629527e+003,4.116090e-001
3.633385e+003,3.857587e-001
3.637242e+003,3.667788e-001
3.641099e+003,3.556002e-001
3.644956e+003,3.343899e-001
3.648813e+003,3.052126e-001
3.652670e+003,2.838461e-001
3.656527e+003,2.723625e-001
3.660384e+003,2.567337e-001
3.664241e+003,2.358127e-001
3.668098e+003,2.236060e-001
3.671956e+003,2.137944e-001
3.675813e+003,1.976895e-001
3.679670e+003,1.859216e-001
3.683527e+003,1.846112e-001
3.687384e+003,1.844410e-001
3.691241e+003,1.772280e-001
3.695098e+003,1.654410e-001
3.698955e+003,1.585345e-001
3.702812e+003,1.589379e-001
3.706669e+003,1.536295e-001
3.710526e+003,1.499448e-001
3.714384e+003,1.463215e-001
3.718241e+003,1.440291e-001
3.722098e+003,1.450006e-001
3.725955e+003,1.457784e-001
3.729812e+003,1.375278e-001
3.733669e+003,1.302998e-001
3.737526e+003,1.278829e-001
3.741383e+003,1.351910e-001
3.745240e+003,1.418500e-001
3.749097e+003,1.376833e-001
3.752955e+003,1.319125e-001
3.756812e+003,1.334297e-001
3.760669e+003,1.320919e-001
3.764526e+003,1.313614e-001
3.768383e+003,1.308807e-001
3.772240e+003,1.266229e-001
3.776097e+003,1.191111e-001
3.779954e+003,1.246038e-001
3.783811e+003,1.290584e-001
3.787668e+003,1.227641e-001
3.791525e+003,1.210992e-001
3.795383e+003,1.249405e-001
3.799240e+003,1.259459e-001
3.803097e+003,1.224105e-001
3.806954e+003,1.261274e-001
3.810811e+003,1.283627e-001
3.814668e+003,1.266221e-001
3.818525e+003,1.288885e-001
3.822382e+003,1.292374e-001
3.826239e+003,1.251341e-001
3.830096e+003,1.253686e-001
3.833954e+003,1.213635e-001
3.837811e+003,1.192295e-001
3.841668e+003,1.225338e-001
3.845525e+003,1.251965e-001
3.849382e+003,1.255837e-001
3.853239e+003,1.190042e-001
3.857096e+003,1.152842e-001
3.860953e+003,1.234438e-001
3.864810e+003,1.254613e-001
3.868667e+003,1.223417e-001
3.872524e+003,1.241281e-001
3.876382e+003,1.215507e-001
3.880239e+003,1.209988e-001
3.884096e+003,1.208083e-001
3.887953e+003,1.237122e-001
3.891810e+003,1.269818e-001
3.895667e+003,1.234933e-001
3.899524e+003,1.161075e-001
3.903381e+003,1.200546e-001
3.907238e+003,1.193178e-001
3.911095e+003,1.121565e-001
3.914953e+003,1.114139e-001
3.918810e+003,1.085094e-001
3.922667e+003,1.064364e-001
3.926524e+003,1.073491e-001
3.930381e+003,1.125148e-001
3.934238e+003,1.124703e-001
3.938095e+003,1.095086e-001
3.941952e+003,1.196957e-001
3.945809e+003,1.211586e-001
3.949667e+003,1.165899e-001
3.953523e+003,1.137226e-001
3.957381e+003,1.120443e-001
3.961238e+003,1.061797e-001
3.965095e+003,1.083494e-001
3.968952e+003,1.146620e-001
3.972809e+003,1.141737e-001
3.976666e+003,1.148517e-001
3.980523e+003,1.144551e-001
3.984380e+003,1.156639e-001
3.988237e+003,1.124675e-001
3.992094e+003,1.124827e-001
3.995952e+003,1.120108e-001
3.999809e+003,1.084261e-001
4.003666e+003,1.049084e-001
4.007523e+003,1.096044e-001
4.011380e+003,1.157176e-001
4.015237e+003,1.136071e-001
4.019094e+003,1.114999e-001
4.022951e+003,1.133764e-001
4.026808e+003,1.150439e-001
4.030666e+003,1.130778e-001
4.034522e+003,1.124448e-001
4.038380e+003,1.079180e-001
4.042237e+003,1.083176e-001
4.046094e+003,1.101502e-001
4.049951e+003,1.018849e-001
4.053808e+003,1.011423e-001
4.057665e+003,1.091971e-001
4.061522e+003,1.118165e-001
4.065379e+003,1.112774e-001
4.069236e+003,1.091300e-001
4.073094e+003,1.064955e-001
4.076951e+003,1.093299e-001
4.080808e+003,1.054197e-001
4.084665e+003,9.897910e-002
4.088522e+003,1.022943e-001
4.092379e+003,1.067639e-001
4.096236e+003,1.023517e-001
4.100093e+003,9.080155e-002
4.103950e+003,9.021700e-002
4.107808e+003,9.712494e-002
4.111665e+003,9.966721e-002
4.115521e+003,1.010142e-001
4.119379e+003,1.033014e-001
4.123236e+003,1.081496e-001
4.127093e+003,1.075075e-001
4.130950e+003,1.056112e-001
4.134807e+003,1.066645e-001
4.138664e+003,1.029585e-001
4.142521e+003,1.008016e-001
4.146378e+003,9.910301e-002
4.150235e+003,9.244938e-002
4.154093e+003,8.976181e-002
4.157950e+003,9.879050e-002
4.161807e+003,1.085627e-001
4.165664e+003,1.081720e-001
4.169521e+003,1.038189e-001
4.173378e+003,1.031692e-001
4.177235e+003,1.018742e-001
4.181092e+003,1.001045e-001
4.184949e+003,1.023118e-001
4.188807e+003,9.602578e-002
4.192664e+003,9.369481e-002
4.196521e+003,1.010071e-001
4.200378e+003,1.058817e-001
4.204235e+003,1.074679e-001
4.208092e+003,1.048173e-001
4.211949e+003,1.016406e-001
4.215806e+003,9.688404e-002
4.219663e+003,8.942712e-002
4.223521e+003,8.762234e-002
4.227377e+003,9.293954e-002
4.231234e+003,9.378630e-002
4.235092e+003,9.321321e-002
4.238949e+003,9.426063e-002
4.242806e+003,8.522479e-002
4.246663e+003,8.803678e-002
4.250520e+003,9.074936e-002
4.254377e+003,9.113296e-002
4.258234e+003,8.891208e-002
4.262091e+003,9.020946e-002
4.265948e+003,8.526906e-002
4.269806e+003,8.353943e-002
4.273663e+003,8.610138e-002
4.277520e+003,8.637910e-002
4.281377e+003,8.761281e-002
4.285234e+003,9.726560e-002
4.289091e+003,9.958703e-002
4.292948e+003,9.491241e-002
4.296805e+003,8.661678e-002
4.300662e+003,8.632085e-002
4.304520e+003,9.456133e-002
4.308376e+003,9.827778e-002
4.312233e+003,9.636199e-002
4.316091e+003,8.914798e-002
4.319948e+003,8.651207e-002
4.323805e+003,9.766683e-002
4.327662e+003,9.979057e-002
4.331519e+003,9.507355e-002
4.335376e+003,8.960470e-002
4.339233e+003,8.881064e-002
4.343090e+003,9.328286e-002
4.346947e+003,9.188018e-002
4.350805e+003,9.003062e-002
4.354662e+003,8.741542e-002
4.358519e+003,8.634615e-002
4.362376e+003,9.490049e-002
4.366233e+003,9.340803e-002
4.370090e+003,8.059157e-002
4.373947e+003,7.816474e-002
4.377804e+003,7.891972e-002
4.381661e+003,7.998443e-002
4.385519e+003,8.481636e-002
4.389375e+003,9.215793e-002
4.393232e+003,9.965246e-002
4.397090e+003,1.020627e-001
4.400947e+003,9.412461e-002
4.404804e+003,8.709072e-002
4.408661e+003,8.528261e-002
4.412518e+003,8.855290e-002
4.416375e+003,9.182737e-002
4.420232e+003,9.640129e-002
4.424089e+003,9.278850e-002
4.427946e+003,8.701833e-002
4.431804e+003,7.988545e-002
4.435661e+003,9.174027e-002
4.439518e+003,9.950223e-002
4.443375e+003,9.275379e-002
4.447232e+003,9.178676e-002
4.451089e+003,1.031839e-001
4.454946e+003,1.068392e-001
4.458803e+003,1.030164e-001
4.462660e+003,9.519462e-002
4.466518e+003,9.404696e-002
4.470375e+003,9.378260e-002
4.474231e+003,9.863225e-002
4.478089e+003,9.638938e-002
4.481946e+003,8.210856e-002
4.485803e+003,8.324261e-002
4.489660e+003,9.466144e-002
4.493517e+003,9.079902e-002
4.497375e+003,8.768984e-002
4.501231e+003,8.802932e-002
4.505088e+003,8.583620e-002
4.508946e+003,8.458248e-002
4.512803e+003,8.528971e-002
4.516660e+003,8.658430e-002
4.520517e+003,8.833381e-002
4.524374e+003,8.020752e-002
4.528231e+003,7.644217e-002
4.532088e+003,8.918472e-002
4.535945e+003,9.467521e-002
4.539802e+003,9.161787e-002
4.543660e+003,8.743346e-002
4.547517e+003,8.925593e-002
4.551374e+003,9.441627e-002
4.555231e+003,9.139936e-002
4.559088e+003,8.223468e-002
4.562945e+003,8.088730e-002
4.566802e+003,9.219836e-002
4.570659e+003,9.269033e-002
4.574516e+003,8.645826e-002
4.578374e+003,9.020208e-002
4.582230e+003,8.532854e-002
4.586087e+003,7.543436e-002
4.589945e+003,8.150238e-002
4.593802e+003,8.581307e-002
4.597659e+003,8.223592e-002
4.601516e+003,8.446933e-002
4.605373e+003,8.504904e-002
4.609230e+003,8.379887e-002
4.613087e+003,8.424573e-002
4.616944e+003,8.129189e-002
4.620801e+003,8.281980e-002
4.624659e+003,8.954593e-002
4.628516e+003,8.428141e-002
4.632373e+003,7.978558e-002
4.636230e+003,8.634295e-002
4.640087e+003,8.684747e-002
4.643944e+003,8.647180e-002
4.647801e+003,8.799227e-002
4.651658e+003,8.748630e-002
4.655515e+003,8.706699e-002
4.659373e+003,9.053222e-002
4.663229e+003,9.229203e-002
4.667086e+003,9.361630e-002
4.670944e+003,9.179974e-002
4.674801e+003,8.743642e-002
4.678658e+003,8.434039e-002
4.682515e+003,8.192519e-002
4.686372e+003,8.038934e-002
4.690229e+003,6.980690e-002
4.694086e+003,5.967569e-002
4.697943e+003,7.209192e-002
4.701800e+003,9.088936e-002
4.705658e+003,9.361124e-002
4.709515e+003,8.073444e-002
4.713372e+003,6.497488e-002
4.717229e+003,6.746242e-002
4.721086e+003,7.930364e-002
4.724943e+003,8.428124e-002
4.728800e+003,8.748265e-002
4.732657e+003,8.647124e-002
4.736514e+003,9.328615e-002
4.740372e+003,8.974115e-002
4.744229e+003,8.388789e-002
4.748085e+003,8.143647e-002
4.751943e+003,8.383869e-002
4.755800e+003,9.493904e-002
4.759657e+003,9.945461e-002
4.763514e+003,9.231625e-002
4.767371e+003,8.159965e-002
4.771228e+003,7.649592e-002
4.775085e+003,7.382089e-002
4.778942e+003,8.225458e-002
4.782799e+003,8.645640e-002
4.786657e+003,7.853723e-002
4.790514e+003,7.940745e-002
4.794371e+003,7.575807e-002
4.798228e+003,7.222158e-002
4.802085e+003,8.476838e-002
4.805942e+003,8.972021e-002
4.809799e+003,8.370022e-002
4.813656e+003,8.011642e-002
4.817513e+003,7.934122e-002
4.821371e+003,8.243562e-002
4.825228e+003,9.005316e-002
4.829084e+003,8.746243e-002
4.832942e+003,7.572955e-002
4.836799e+003,7.737441e-002
4.840656e+003,8.583337e-002
4.844513e+003,8.837096e-002
4.848370e+003,8.733256e-002
4.852227e+003,8.719148e-002
4.856084e+003,9.485853e-002
4.859941e+003,8.968949e-002
4.863798e+003,6.778651e-002
4.867656e+003,6.503153e-002
4.871513e+003,7.829027e-002
4.875370e+003,9.446108e-002
4.879227e+003,8.350629e-002
4.883084e+003,7.237166e-002
4.886941e+003,7.195691e-002
4.890798e+003,7.307111e-002
4.894655e+003,7.200169e-002
4.898512e+003,7.653657e-002
4.902370e+003,7.512254e-002
4.906227e+003,7.516682e-002
4.910083e+003,7.143197e-002
4.913941e+003,7.421439e-002
4.917798e+003,7.769097e-002
4.921655e+003,8.036904e-002
4.925512e+003,8.940241e-002
4.929369e+003,8.173677e-002
4.933226e+003,7.772224e-002
4.937083e+003,8.613212e-002
4.940940e+003,9.290405e-002
4.944797e+003,8.266586e-002
4.948655e+003,7.690924e-002
4.952512e+003,8.026097e-002
4.956369e+003,8.359124e-002
4.960226e+003,7.768447e-002
4.964083e+003,7.985304e-002
4.967940e+003,7.895366e-002
4.971797e+003,7.325502e-002
4.975654e+003,8.138420e-002
4.979511e+003,8.488093e-002
4.983369e+003,7.633819e-002
4.987226e+003,7.461670e-002
4.991083e+003,8.287846e-002
4.994940e+003,9.056405e-002
4.998797e+003,8.964998e-002
5.002654e+003,8.145965e-002
5.006511e+003,8.148355e-002
5.010368e+003,8.362526e-002
5.014225e+003,8.040209e-002
5.018083e+003,8.767285e-002
5.021939e+003,9.764609e-002
5.025796e+003,9.402704e-002
5.029654e+003,8.467230e-002
5.033511e+003,7.970237e-002
5.037368e+003,8.526035e-002
5.041225e+003,8.425244e-002
5.045082e+003,8.202071e-002
5.048939e+003,8.845878e-002
5.052796e+003,1.008361e-001
5.056653e+003,9.027170e-002
5.060510e+003,7.530481e-002
5.064368e+003,9.134055e-002
5.068225e+003,1.099179e-001
5.072082e+003,1.063941e-001
5.075939e+003,9.664299e-002
5.079796e+003,8.645939e-002
5.083653e+003,8.544506e-002
5.087510e+003,8.547597e-002
5.091367e+003,8.485700e-002
5.095224e+003,8.147356e-002
5.099082e+003,7.684948e-002
5.102938e+003,7.861191e-002
5.106795e+003,7.797740e-002
5.110653e+003,7.102416e-002
5.114510e+003,7.212834e-002
5.118367e+003,7.811552e-002
5.122224e+003,8.034739e-002
5.126081e+003,7.111150e-002
5.129938e+003,6.175275e-002
5.133795e+003,7.059195e-002
5.137652e+003,8.293665e-002
5.141509e+003,7.204717e-002
5.145367e+003,6.548036e-002
5.149224e+003,6.915728e-002
5.153081e+003,7.652429e-002
5.156938e+003,8.339210e-002
5.160795e+003,8.899423e-002
5.164652e+003,8.498432e-002
5.168509e+003,7.768337e-002
5.172366e+003,8.939733e-002
5.176223e+003,9.560604e-002
5.180081e+003,8.829024e-002
5.183938e+003,8.436610e-002
5.187794e+003,7.905076e-002
5.191652e+003,7.416742e-002
5.195509e+003,7.517640e-002
5.199366e+003,7.866044e-002
5.203223e+003,8.296200e-002
5.207080e+003,9.056413e-002
5.210937e+003,8.202379e-002
5.214794e+003,7.403255e-002
5.218651e+003,8.344229e-002
5.222508e+003,9.022410e-002
5.226366e+003,8.719151e-002
5.230223e+003,8.934282e-002
5.234080e+003,9.234367e-002
5.237937e+003,8.697266e-002
5.241794e+003,8.958059e-002
5.245651e+003,9.321920e-002
5.249508e+003,9.490651e-002
5.253365e+003,9.753712e-002
5.257222e+003,9.819224e-002
5.261080e+003,9.419799e-002
5.264937e+003,9.282941e-002
5.268793e+003,8.547959e-002
5.272651e+003,7.628736e-002
5.276508e+003,7.717711e-002
5.280365e+003,8.544999e-002
5.284222e+003,8.912455e-002
5.288079e+003,8.713959e-002
5.291936e+003,7.740819e-002
5.295793e+003,7.447925e-002
5.299650e+003,7.771586e-002
5.303507e+003,7.833448e-002
5.307365e+003,8.295594e-002
5.311222e+003,8.328905e-002
5.315079e+003,7.931548e-002
5.318936e+003,7.847323e-002
5.322793e+003,8.006398e-002
5.326650e+003,7.850999e-002
5.330507e+003,7.323682e-002
5.334364e+003,7.306887e-002
5.338221e+003,7.676953e-002
5.342079e+003,8.565592e-002
5.345936e+003,9.502963e-002
5.349792e+003,9.394217e-002
5.353650e+003,8.362880e-002
5.357507e+003,7.113063e-002
5.361364e+003,7.080184e-002
5.365221e+003,8.061407e-002
5.369078e+003,8.313739e-002
5.372935e+003,8.372562e-002
5.376792e+003,8.754134e-002
5.380649e+003,9.804742e-002
5.384506e+003,1.082447e-001
5.388364e+003,1.030304e-001
5.392221e+003,8.322346e-002
5.396078e+003,7.326463e-002
5.399935e+003,8.143103e-002
5.403792e+003,8.981078e-002
5.407649e+003,8.243065e-002
5.411506e+003,7.854544e-002
5.415363e+003,8.750778e-002
5.419220e+003,9.785689e-002
5.423078e+003,8.735963e-002
5.426935e+003,6.606755e-002
5.430792e+003,6.571416e-002
5.434649e+003,7.407109e-002
5.438506e+003,7.820973e-002
5.442363e+003,8.896027e-002
5.446220e+003,8.235394e-002
5.450077e+003,8.138947e-002
5.453934e+003,8.673874e-002
5.457792e+003,7.205597e-002
5.461648e+003,6.536438e-002
5.465505e+003,8.575518e-002
5.469363e+003,8.479815e-002
5.473220e+003,6.535941e-002
5.477077e+003,6.353384e-002
5.480934e+003,7.166040e-002
5.484791e+003,7.900807e-002
5.488648e+003,8.250392e-002
5.492505e+003,7.762703e-002
5.496362e+003,6.838118e-002
5.500219e+003,8.482534e-002
5.504077e+003,1.039881e-001
5.507934e+003,1.022585e-001
5.511791e+003,9.006210e-002
5.515648e+003,9.652513e-002
5.519505e+003,1.084899e-001
5.523362e+003,1.029887e-001
5.527219e+003,8.889761e-002
5.531076e+003,8.306316e-002
5.534933e+003,8.526390e-002
5.538791e+003,7.901756e-002
5.542647e+003,7.550764e-002
5.546504e+003,8.211585e-002
5.550362e+003,8.843595e-002
5.554219e+003,9.021513e-002
5.558076e+003,8.746847e-002
5.561933e+003,9.422161e-002
5.565790e+003,1.013383e-001
5.569647e+003,9.281643e-002
5.573504e+003,8.992431e-002
5.577361e+003,9.364330e-002
5.581218e+003,9.021594e-002
5.585076e+003,8.060490e-002
5.588933e+003,7.806242e-002
5.592790e+003,7.677313e-002
5.596647e+003,8.693801e-002
5.600504e+003,9.429114e-002
5.604361e+003,8.378613e-002
5.608218e+003,7.922187e-002
5.612075e+003,8.781000e-002
5.615932e+003,8.647685e-002
5.619790e+003,9.360536e-002
5.623646e+003,1.042058e-001
5.627503e+003,1.103596e-001
5.631361e+003,1.053068e-001
5.635218e+003,7.666211e-002
5.639075e+003,6.207758e-002
5.642932e+003,7.749123e-002
5.646789e+003,9.457027e-002
5.650646e+003,1.113560e-001
5.654503e+003,1.041499e-001
5.658360e+003,8.412892e-002
5.662217e+003,8.450277e-002
5.666075e+003,9.376717e-002
5.669932e+003,9.870760e-002
5.673789e+003,9.495780e-002
5.677646e+003,9.279424e-002
5.681503e+003,9.842473e-002
5.685360e+003,8.913850e-002
5.689217e+003,7.434314e-002
5.693074e+003,7.715352e-002
5.696931e+003,8.123292e-002
5.700789e+003,7.688884e-002
5.704646e+003,9.231342e-002
5.708502e+003,1.069528e-001
5.712360e+003,9.313580e-002
5.716217e+003,8.536568e-002
5.720074e+003,9.371845e-002
5.723931e+003,9.444110e-002
5.727788e+003,8.763000e-002
5.731645e+003,8.766450e-002
5.735502e+003,8.403929e-002
5.739359e+003,7.758229e-002
5.743216e+003,8.788074e-002
5.747074e+003,1.023719e-001
5.750931e+003,1.084787e-001
5.754788e+003,9.185824e-002
5.758645e+003,8.089161e-002
5.762502e+003,8.550686e-002
5.766359e+003,9.297968e-002
5.770216e+003,1.041168e-001
5.774073e+003,1.094607e-001
5.777930e+003,1.105621e-001
5.781788e+003,1.092446e-001
5.785645e+003,9.966734e-002
5.789501e+003,9.820458e-002
5.793359e+003,9.285414e-002
5.797216e+003,8.078332e-002
5.801073e+003,8.620874e-002
5.804930e+003,1.050892e-001
5.808787e+003,1.054834e-001
5.812644e+003,9.115581e-002
5.816501e+003,8.682700e-002
5.820358e+003,8.211161e-002
5.824215e+003,8.612267e-002
5.828073e+003,9.492882e-002
5.831930e+003,9.577893e-002
5.835787e+003,1.064112e-001
5.839644e+003,1.145332e-001
5.843501e+003,1.136053e-001
5.847358e+003,1.180782e-001
5.851215e+003,1.124149e-001
5.855072e+003,9.410222e-002
5.858929e+003,1.038204e-001
5.862787e+003,1.188489e-001
5.866644e+003,1.216715e-001
5.870500e+003,1.278122e-001
5.874358e+003,1.198083e-001
5.878215e+003,1.053069e-001
5.882072e+003,1.025547e-001
5.885929e+003,1.061670e-001
5.889786e+003,1.020019e-001
5.893643e+003,9.806868e-002
5.897500e+003,1.054870e-001
5.901357e+003,1.056690e-001
5.905214e+003,9.837709e-002
5.909072e+003,8.753558e-002
5.912929e+003,8.761168e-002
5.916786e+003,1.011104e-001
5.920643e+003,1.003906e-001
5.924500e+003,9.176855e-002
5.928357e+003,9.903046e-002
5.932214e+003,9.982067e-002
5.936071e+003,8.846381e-002
5.939928e+003,8.709254e-002
5.943786e+003,8.500177e-002
5.947643e+003,8.827850e-002
5.951500e+003,9.584672e-002
5.955357e+003,8.986273e-002
5.959214e+003,9.425977e-002
5.963071e+003,9.743463e-002
5.966928e+003,9.936742e-002
5.970785e+003,9.589531e-002
5.974642e+003,9.955461e-002
5.978500e+003,1.047443e-001
5.982356e+003,1.111058e-001
5.986213e+003,1.022982e-001
5.990071e+003,8.862831e-002
5.993928e+003,7.821536e-002
5.997785e+003,8.429766e-002
6.001642e+003,1.035176e-001
6.005499e+003,1.087055e-001
6.009356e+003,1.034801e-001
6.013213e+003,1.023353e-001
6.017070e+003,1.219871e-001
6.020927e+003,1.256089e-001
6.024785e+003,1.168030e-001
6.028642e+003,1.079221e-001
6.032499e+003,1.014750e-001
6.036356e+003,1.034122e-001
6.040213e+003,1.120422e-001
6.044070e+003,1.145113e-001
6.047927e+003,1.103757e-001
6.051784e+003,1.098603e-001
6.055641e+003,1.205598e-001
6.059499e+003,1.165657e-001
6.063355e+003,1.041665e-001
6.067212e+003,9.926356e-002
6.071070e+003,1.009127e-001
6.074927e+003,9.945448e-002
6.078784e+003,9.096865e-002
6.082641e+003,9.701481e-002
6.086498e+003,1.088537e-001
6.090355e+003,9.922025e-002
6.094212e+003,1.042202e-001
6.098069e+003,9.558126e-002
6.101926e+003,9.054744e-002
6.105784e+003,9.841213e-002
6.109641e+003,1.030126e-001
6.113498e+003,1.145695e-001
6.117355e+003,1.090598e-001
6.121212e+003,1.053119e-001
6.125069e+003,9.484942e-002
6.128926e+003,7.728814e-002
6.132783e+003,1.046232e-001
6.136640e+003,1.228067e-001
6.140498e+003,1.017277e-001
6.144354e+003,1.060606e-001
6.148211e+003,1.064148e-001
6.152069e+003,1.016443e-001
6.155926e+003,1.165479e-001
6.159783e+003,1.335334e-001
6.163640e+003,1.324438e-001
6.167497e+003,1.212163e-001
6.171354e+003,1.057375e-001
6.175211e+003,1.083203e-001
6.179068e+003,1.218595e-001
6.182925e+003,1.195884e-001
6.186783e+003,1.060192e-001
6.190640e+003,1.198229e-001
6.194497e+003,1.350990e-001
6.198354e+003,1.328669e-001
6.202211e+003,1.275841e-001
6.206068e+003,1.124035e-001
6.209925e+003,9.924781e-002
6.213782e+003,9.956815e-002
6.217639e+003,1.200084e-001
6.221497e+003,1.084144e-001
6.225354e+003,9.386822e-002
6.229210e+003,1.069726e-001
6.233068e+003,1.292914e-001
6.236925e+003,1.254719e-001
6.240782e+003,1.130188e-001
6.244639e+003,8.527656e-002
6.248496e+003,9.747739e-002
6.252353e+003,1.200550e-001
6.256210e+003,1.189581e-001
6.260067e+003,1.274330e-001
6.263924e+003,1.196353e-001
6.267782e+003,1.028080e-001
6.271639e+003,9.358431e-002
6.275496e+003,8.443825e-002
6.279353e+003,9.990937e-002
6.283210e+003,1.060821e-001
6.287067e+003,9.441627e-002
6.290924e+003,7.067125e-002
6.294781e+003,8.566944e-002
6.298638e+003,1.117054e-001
6.302496e+003,1.229779e-001
6.306353e+003,1.269605e-001
6.310209e+003,1.265929e-001
6.314067e+003,1.275345e-001
6.317924e+003,1.162077e-001
6.321781e+003,1.347691e-001
6.325638e+003,1.510076e-001
6.329495e+003,1.282955e-001
6.333352e+003,1.177509e-001
6.337209e+003,1.060406e-001
6.341066e+003,1.055078e-001
6.344923e+003,1.210240e-001
6.348780e+003,1.164120e-001
6.352638e+003,1.117375e-001
6.356495e+003,1.147338e-001
6.360352e+003,1.196855e-001
6.364209e+003,1.242026e-001
6.368066e+003,1.324559e-001
6.371923e+003,1.386424e-001
6.375780e+003,1.230972e-001
6.379637e+003,1.087713e-001
6.383494e+003,1.194758e-001
6.387352e+003,1.326845e-001
6.391208e+003,1.282385e-001
6.395065e+003,1.055034e-001
6.398923e+003,1.090740e-001
6.402780e+003,1.047332e-001
6.406637e+003,1.310357e-001
6.410494e+003,1.511675e-001
6.414351e+003,1.187327e-001
6.418208e+003,1.103733e-001
6.422065e+003,1.159841e-001
6.425922e+003,1.185414e-001
6.429779e+003,1.139006e-001
6.433637e+003,8.902164e-002
6.437494e+003,8.104888e-002
6.441351e+003,9.546834e-002
6.445208e+003,1.051507e-001
6.449065e+003,1.036682e-001
6.452922e+003,1.176754e-001
6.456779e+003,1.266750e-001
6.460636e+003,1.420842e-001
6.464493e+003,1.612723e-001
6.468351e+003,1.558955e-001
6.472208e+003,1.398921e-001
6.476064e+003,1.212520e-001
6.479922e+003,1.108938e-001
6.483779e+003,1.084881e-001
6.487636e+003,1.035258e-001
6.491493e+003,1.201468e-001
6.495350e+003,1.293905e-001
6.499207e+003,1.136184e-001
6.503064e+003,1.241655e-001
6.506921e+003,1.545932e-001
6.510778e+003,1.459203e-001
6.514636e+003,1.186551e-001
6.518493e+003,1.358595e-001
6.522350e+003,1.343446e-001
6.526207e+003,1.168544e-001
6.530064e+003,1.455423e-001
6.533921e+003,1.535914e-001
6.537778e+003,1.316452e-001
6.541635e+003,1.285972e-001
6.545492e+003,1.525390e-001
6.549350e+003,1.674816e-001
6.553207e+003,1.627494e-001
6.557063e+003,1.508007e-001
6.560921e+003,1.193645e-001
6.564778e+003,9.081069e-002
6.568635e+003,1.215010e-001
6.572492e+003,1.412761e-001
6.576349e+003,1.192186e-001
6.580206e+003,1.476328e-001
6.584063e+003,1.735944e-001
6.587920e+003,1.626540e-001
6.591777e+003,1.560545e-001
6.595635e+003,1.599635e-001
6.599492e+003,1.460680e-001
6.603349e+003,1.365581e-001
6.607206e+003,1.339608e-001
6.611063e+003,1.280779e-001
6.614920e+003,1.430995e-001
6.618777e+003,1.459721e-001
6.622634e+003,1.212250e-001
6.626491e+003,1.088673e-001
6.630349e+003,1.178062e-001
6.634206e+003,1.200688e-001
6.638063e+003,1.203986e-001
6.641920e+003,1.121284e-001
6.645777e+003,1.241430e-001
6.649634e+003,1.443089e-001
6.653491e+003,1.282438e-001
6.657348e+003,1.165635e-001
6.661205e+003,1.347684e-001
6.665063e+003,1.317504e-001
6.668919e+003,1.120829e-001
6.672776e+003,1.295051e-001
6.676634e+003,1.508413e-001
6.680491e+003,1.657833e-001
6.684348e+003,1.421943e-001
6.688205e+003,1.224352e-001
6.692062e+003,1.407173e-001
6.695919e+003,1.375541e-001
6.699776e+003,1.342190e-001
6.703633e+003,1.487007e-001
6.707490e+003,1.459151e-001
6.711348e+003,1.191143e-001
6.715205e+003,1.548808e-001
6.719062e+003,1.727787e-001
6.722919e+003,1.242061e-001
6.726776e+003,1.267397e-001
6.730633e+003,1.678293e-001
6.734490e+003,1.807535e-001
6.738347e+003,1.727530e-001
6.742204e+003,1.478779e-001
6.746062e+003,1.360716e-001
6.749918e+003,1.151258e-001
6.753775e+003,1.196310e-001
6.757633e+003,1.113468e-001
6.761490e+003,1.098479e-001
6.765347e+003,1.226137e-001
6.769204e+003,1.160346e-001
6.773061e+003,1.363291e-001
6.776918e+003,1.376346e-001
6.780775e+003,1.422893e-001
6.784632e+003,1.539457e-001
6.788489e+003,1.478730e-001
6.792347e+003,1.490219e-001
6.796204e+003,1.603035e-001
6.800061e+003,1.653748e-001
6.803918e+003,1.705274e-001
6.807775e+003,1.659245e-001
6.811632e+003,1.662780e-001
6.815489e+003,1.605538e-001
6.819346e+003,1.244310e-001
6.823203e+003,1.101298e-001
6.827061e+003,1.263213e-001
6.830917e+003,1.481783e-001
6.834774e+003,1.339386e-001
6.838632e+003,1.290576e-001
6.842489e+003,1.363388e-001
6.846346e+003,1.396352e-001
6.850203e+003,1.689463e-001
6.854060e+003,1.595977e-001
6.857917e+003,1.544968e-001
6.861774e+003,1.938279e-001
6.865631e+003,2.273269e-001
6.869488e+003,2.325785e-001
6.873346e+003,1.539167e-001
6.877203e+003,1.281253e-001
6.881060e+003,1.496756e-001
6.884917e+003,1.422103e-001
6.888774e+003,1.371338e-001
6.892631e+003,1.286908e-001
6.896488e+003,1.046034e-001
6.900345e+003,1.026410e-001
6.904202e+003,1.296177e-001
6.908060e+003,1.612856e-001
6.911917e+003,2.017559e-001
6.915773e+003,1.878738e-001
6.919631e+003,1.681974e-001
6.923488e+003,1.718376e-001
6.927345e+003,1.556484e-001
6.931202e+003,1.203415e-001
6.935059e+003,9.441487e-002
6.938916e+003,1.133620e-001
6.942773e+003,1.372162e-001
6.946630e+003,1.206978e-001
6.950487e+003,1.490307e-001
6.954345e+003,2.030573e-001
6.958202e+003,1.955927e-001
6.962059e+003,1.290596e-001
6.965916e+003,1.177838e-001
6.969773e+003,1.523074e-001
6.973630e+003,1.528162e-001
6.977487e+003,1.333767e-001
6.981344e+003,1.312511e-001
6.985201e+003,1.495802e-001
6.989059e+003,1.778229e-001
6.992916e+003,1.679226e-001
6.996772e+003,1.424426e-001
7.000630e+003,1.344289e-001
7.004487e+003,1.565627e-001
7.008344e+003,1.450540e-001
7.012201e+003,1.100725e-001
7.016058e+003,1.261359e-001
7.019915e+003,1.478383e-001
7.023772e+003,1.546603e-001
7.027629e+003,1.582683e-001
7.031486e+003,1.959901e-001
7.035344e+003,1.986031e-001
7.039201e+003,2.162238e-001
7.043058e+003,1.994445e-001
7.046915e+003,1.450146e-001
7.050772e+003,1.354773e-001
7.054629e+003,1.429172e-001
7.058486e+003,1.324308e-001
7.062343e+003,1.261646e-001
7.066200e+003,1.199708e-001
7.070058e+003,1.371385e-001
7.073915e+003,1.391227e-001
7.077771e+003,1.185093e-001
7.081629e+003,9.040277e-002
7.085486e+003,1.005959e-001
7.089343e+003,1.073073e-001
7.093200e+003,1.270273e-001
7.097057e+003,1.531255e-001
7.100914e+003,1.416740e-001
7.104771e+003,1.030166e-001
7.108628e+003,1.167073e-001
7.112485e+003,1.357226e-001
7.116343e+003,1.484291e-001
7.120200e+003,1.198530e-001
7.124057e+003,8.083473e-002
7.127914e+003,9.648130e-002
7.131771e+003,1.084274e-001
7.135628e+003,1.192291e-001
7.139485e+003,1.172506e-001
7.143342e+003,1.108622e-001
7.147199e+003,1.578956e-001
7.151057e+003,2.180458e-001
7.154914e+003,1.869546e-001
7.158771e+003,1.238026e-001
7.162628e+003,1.377899e-001
7.166485e+003,1.980659e-001
7.170342e+003,2.171245e-001
7.174199e+003,2.002030e-001
7.178056e+003,1.840435e-001
7.181913e+003,1.830157e-001
7.185771e+003,1.769721e-001
7.189627e+003,1.432158e-001
7.193484e+003,1.505330e-001
7.197342e+003,1.879397e-001
7.201199e+003,1.690359e-001
7.205056e+003,1.153580e-001
7.208913e+003,1.198096e-001
7.212770e+003,1.893112e-001
7.216627e+003,2.233100e-001
7.220484e+003,1.840491e-001
7.224341e+003,1.865470e-001
7.228198e+003,2.119620e-001
7.232056e+003,1.833752e-001
7.235913e+003,2.029580e-001
7.239770e+003,1.995384e-001
7.243627e+003,1.533908e-001
7.247484e+003,1.298702e-001
7.251341e+003,1.330744e-001
7.255198e+003,1.150437e-001
7.259055e+003,7.951539e-002
7.262912e+003,1.201583e-001
7.266770e+003,1.446826e-001
7.270626e+003,1.615799e-001
7.274483e+003,1.631101e-001
7.278341e+003,1.430147e-001
7.282198e+003,1.077015e-001
7.286055e+003,1.145881e-001
7.289912e+003,1.470366e-001
7.293769e+003,1.217184e-001
7.297626e+003,1.551428e-001
7.301483e+003,2.279704e-001
7.305340e+003,2.628513e-001
7.309197e+003,1.941736e-001
7.313055e+003,1.660489e-001
7.316912e+003,1.614059e-001
7.320769e+003,1.832235e-001
7.324626e+003,2.301104e-001
7.328483e+003,1.926482e-001
7.332340e+003,1.536206e-001
7.336197e+003,1.310358e-001
7.340054e+003,1.155864e-001
7.343911e+003,1.027494e-001
7.347769e+003,1.021010e-001
7.351625e+003,1.151195e-001
7.355482e+003,1.738106e-001
7.359340e+003,1.659484e-001
7.363197e+003,1.274889e-001
7.367054e+003,1.496615e-001
7.370911e+003,1.526516e-001
7.374768e+003,1.349804e-001
7.378625e+003,1.473798e-001
7.382482e+003,1.248464e-001
7.386339e+003,1.298781e-001
7.390196e+003,1.164513e-001
7.394054e+003,9.517568e-002
7.397911e+003,9.653733e-002
7.401768e+003,1.566552e-001
7.405625e+003,1.772651e-001
7.409482e+003,1.582523e-001
7.413339e+003,2.003426e-001
7.417196e+003,2.102752e-001
7.421053e+003,2.027566e-001
7.424910e+003,2.287544e-001
7.428768e+003,1.916549e-001
7.432625e+003,1.248951e-001
7.436481e+003,1.434696e-001
7.440339e+003,1.359367e-001
7.444196e+003,1.244273e-001
7.448053e+003,1.030085e-001
7.451910e+003,1.367378e-001
7.455767e+003,1.458135e-001
7.459624e+003,7.854541e-002
7.463481e+003,6.280232e-002
7.467338e+003,1.254361e-001
7.471195e+003,1.099375e-001
7.475053e+003,9.672073e-002
7.478910e+003,1.441697e-001
7.482767e+003,1.210558e-001
7.486624e+003,3.710728e-002
7.490481e+003,6.190487e-002
7.494338e+003,7.956573e-002
7.498195e+003,1.117501e-001
7.502052e+003,1.647984e-001
7.505909e+003,1.286232e-001
7.509767e+003,8.136689e-002
7.513624e+003,1.216219e-001
7.517480e+003,1.537696e-001
7.521338e+003,1.482812e-001
7.525195e+003,2.477860e-001
7.529052e+003,2.745292e-001
7.532909e+003,1.823835e-001
7.536766e+003,7.914398e-002
7.540623e+003,9.733106e-002
7.544480e+003,1.689797e-001
7.548337e+003,1.411947e-001
7.552194e+003,1.558766e-001
7.556052e+003,2.475281e-001
7.559909e+003,2.268872e-001
7.563766e+003,1.932634e-001
7.567623e+003,1.577912e-001
7.571480e+003,1.023879e-001
7.575337e+003,9.389339e-002
7.579194e+003,7.568131e-002
7.583051e+003,4.552271e-003
7.586908e+003,4.197523e-002
7.590766e+003,1.097425e-001
7.594623e+003,9.635025e-002
7.598479e+003,1.220028e-001
7.602337e+003,2.040446e-001
7.606194e+003,2.873080e-001
7.610051e+003,2.751913e-001
7.613908e+003,1.841195e-001
7.617765e+003,1.828399e-001
7.621622e+003,1.421478e-001
7.625479e+003,1.262933e-001
7.629336e+003,1.406293e-001
7.633193e+003,1.602665e-001
7.637051e+003,1.376492e-001
7.640908e+003,1.190201e-001
7.644765e+003,1.341651e-001
7.648622e+003,9.816429e-002
7.652479e+003,8.902660e-002
7.656336e+003,1.052118e-001
7.660193e+003,1.808390e-001
7.664050e+003,2.153798e-001
7.667907e+003,1.481653e-001
7.671765e+003,1.432566e-001
7.675622e+003,1.342680e-001
7.679479e+003,1.311020e-001
7.683336e+003,7.341868e-002
7.687193e+003,5.731703e-002
7.691050e+003,1.222597e-001
7.694907e+003,2.510772e-001
7.698764e+003,2.111399e-001
7.702621e+003,1.604330e-001
7.706479e+003,1.876147e-001
7.710335e+003,1.330478e-001
7.714192e+003,1.064334e-001
7.718050e+003,1.396448e-001
7.721907e+003,1.661173e-001
7.725764e+003,1.321764e-001
7.729621e+003,1.636634e-001
7.733478e+003,2.187882e-001
7.737335e+003,1.013794e-001
7.741192e+003,3.267751e-002
7.745049e+003,1.110412e-001
7.748906e+003,1.236480e-001
7.752764e+003,5.943223e-002
7.756621e+003,3.352372e-002
7.760478e+003,6.761792e-002
7.764335e+003,9.336936e-002
7.768192e+003,1.340343e-001
7.772049e+003,2.497385e-001
7.775906e+003,2.982089e-001
7.779763e+003,2.525619e-001
7.783620e+003,2.122856e-001
7.787478e+003,3.268470e-001
7.791334e+003,3.129475e-001
7.795191e+003,2.294764e-001
7.799049e+003,7.609067e-002
7.802906e+003,-2.655824e-002
7.806763e+003,-1.582785e-002
7.810620e+003,1.367984e-001
7.814477e+003,2.641765e-001
7.818334e+003,3.197250e-001
7.822191e+003,2.960036e-001
7.826048e+003,1.196402e-001
7.829905e+003,3.410012e-002
7.833763e+003,4.761180e-002
7.837620e+003,1.752165e-001
7.841477e+003,2.707297e-001
7.845334e+003,1.326079e-001
7.849191e+003,3.194508e-002
7.853048e+003,2.012146e-003
7.856905e+003,5.676734e-002
7.860762e+003,1.275375e-001
7.864619e+003,1.399428e-001
7.868477e+003,1.379793e-001
7.872333e+003,7.047343e-002
7.876190e+003,4.723601e-002
7.880048e+003,1.296372e-002
7.883905e+003,1.451726e-001
7.887762e+003,2.222599e-001
7.891619e+003,1.881986e-001
7.895476e+003,1.051141e-001
7.899333e+003,3.890472e-002
7.903190e+003,2.999932e-002
7.907047e+003,1.108939e-001
7.910904e+003,1.360406e-001
7.914762e+003,8.477310e-002
7.918619e+003,2.343826e-001
7.922476e+003,3.058378e-001
7.926333e+003,2.478037e-001
7.930190e+003,1.571174e-001
7.934047e+003,1.334824e-001
7.937904e+003,6.084557e-002
7.941761e+003,8.647552e-002
7.945618e+003,1.675455e-001
7.949476e+003,1.667020e-001
7.953333e+003,1.891065e-001
7.957189e+003,1.836212e-001
7.961047e+003,1.492422e-001
7.964904e+003,3.737280e-002
7.968761e+003,7.858785e-002
7.972618e+003,1.951854e-001
7.976475e+003,3.443494e-001
7.980332e+003,4.161678e-001
7.984189e+003,3.179000e-001
7.988046e+003,2.618216e-001
7.991903e+003,1.678871e-001
7.995761e+003,5.389772e-002
7.999618e+003,1.301471e-001
