4.011380e+002,6.000000e+000
4.049951e+002,6.000000e+000
4.088522e+002,1.321754e+000
4.127093e+002,6.583014e-001
4.165664e+002,2.624527e-002
4.204235e+002,7.045179e-001
4.242806e+002,6.000000e+000
4.281377e+002,6.000000e+000
4.319948e+002,1.643456e+000
4.358519e+002,6.000000e+000
4.397090e+002,6.000000e+000
4.435661e+002,-5.968319e-002
4.474232e+002,-9.061839e-002
4.512803e+002,-3.205224e-002
4.551374e+002,2.836603e-001
4.589945e+002,6.000000e+000
4.628516e+002,6.000000e+000
4.667087e+002,6.000000e+000
4.705658e+002,6.000000e+000
4.744229e+002,6.000000e+000
4.782800e+002,6.784365e-001
4.821371e+002,2.774235e-001
4.859941e+002,3.806143e-001
4.898513e+002,4.793953e-001
4.937083e+002,3.226570e-001
4.975654e+002,6.000000e+000
5.014225e+002,6.000000e+000
5.052796e+002,6.000000e+000
5.091367e+002,6.000000e+000
5.129938e+002,-5.276521e-001
5.168509e+002,6.000000e+000
5.207080e+002,6.000000e+000
5.245651e+002,-1.455602e-001
5.284222e+002,-4.102007e-001
5.322793e+002,-1.159070e+000
5.361364e+002,6.000000e+000
5.399935e+002,6.000000e+000
5.438506e+002,7.454636e-001
5.477077e+002,5.275203e-001
5.515648e+002,6.000000e+000
5.554219e+002,6.000000e+000
5.592790e+002,6.000000e+000
5.631361e+002,6.000000e+000
5.669932e+002,6.000000e+000
5.708503e+002,6.000000e+000
5.747074e+002,-5.015108e-001
5.785645e+002,-5.625998e-001
5.824216e+002,6.000000e+000
5.862787e+002,6.000000e+000
5.901357e+002,6.000000e+000
5.939929e+002,6.000000e+000
5.978499e+002,-2.205220e+000
6.017070e+002,-1.274575e+000
6.055641e+002,6.000000e+000
6.094212e+002,6.000000e+000
6.132783e+002,9.655710e-001
6.171354e+002,6.000000e+000
6.209925e+002,-8.158085e-001
6.248496e+002,6.000000e+000
6.287067e+002,6.000000e+000
6.325638e+002,6.000000e+000
6.364209e+002,6.000000e+000
6.402780e+002,6.000000e+000
6.441351e+002,6.000000e+000
6.479922e+002,6.000000e+000
6.518493e+002,6.000000e+000
6.557064e+002,6.000000e+000
6.595635e+002,6.000000e+000
6.634205e+002,6.000000e+000
6.672777e+002,6.000000e+000
6.711348e+002,6.000000e+000
6.749918e+002,7.270204e-001
6.788490e+002,-2.681719e-001
6.827061e+002,-4.398190e-001
6.865631e+002,-5.500329e-001
6.904203e+002,-2.074216e-001
6.942773e+002,9.303181e-002
6.981344e+002,6.000000e+000
7.019916e+002,6.000000e+000
7.058486e+002,-6.179320e-001
7.097057e+002,5.712467e-001
7.135629e+002,1.741626e+000
7.174199e+002,6.855690e-001
7.212770e+002,6.000000e+000
7.251342e+002,6.000000e+000
7.289912e+002,6.000000e+000
7.328483e+002,6.000000e+000
7.367054e+002,-3.616899e-001
7.405625e+002,6.000000e+000
7.444196e+002,6.000000e+000
7.482767e+002,6.000000e+000
7.521338e+002,1.540602e-001
7.559908e+002,6.000000e+000
7.598480e+002,-5.264606e-001
7.637051e+002,-1.956241e+000
7.675621e+002,6.000000e+000
7.714193e+002,6.000000e+000
7.752764e+002,-7.473528e-001
7.791334e+002,-3.107711e-001
7.829905e+002,-1.083483e+000
7.868477e+002,6.000000e+000
7.907047e+002,-5.220402e-001
7.945618e+002,9.145775e-001
7.984189e+002,6.000000e+000
8.022760e+002,6.000000e+000
8.061331e+002,5.126894e-001
8.099902e+002,3.468345e-001
8.138473e+002,6.000000e+000
8.177044e+002,6.000000e+000
8.215615e+002,6.000000e+000
8.254186e+002,6.000000e+000
8.292757e+002,6.000000e+000
8.331328e+002,6.000000e+000
8.369899e+002,6.000000e+000
8.408470e+002,1.251104e+000
8.447041e+002,6.000000e+000
8.485612e+002,6.000000e+000
8.524183e+002,6.000000e+000
8.562754e+002,6.000000e+000
8.601324e+002,6.000000e+000
8.639896e+002,6.000000e+000
8.678467e+002,6.000000e+000
8.717037e+002,1.531545e+000
8.755609e+002,1.612120e+000
8.794180e+002,6.000000e+000
8.832750e+002,1.694025e+000
8.871321e+002,1.606910e+000
8.909893e+002,1.990344e+000
8.948463e+002,2.381853e+000
8.987034e+002,2.429933e+000
9.025605e+002,1.950792e+000
9.064176e+002,1.755059e+000
9.102747e+002,2.247033e+000
9.141318e+002,2.688626e+000
9.179889e+002,2.104419e+000
9.218461e+002,1.923587e+000
9.257031e+002,1.861461e+000
9.295602e+002,2.308232e+000
9.334174e+002,2.208673e+000
9.372744e+002,2.071873e+000
9.411315e+002,3.521692e+000
9.449886e+002,6.000000e+000
9.488457e+002,2.396254e+000
9.527028e+002,2.014418e+000
9.565599e+002,2.134311e+000
9.604170e+002,2.386343e+000
9.642740e+002,6.000000e+000
9.681312e+002,6.000000e+000
9.719883e+002,3.724498e+000
9.758453e+002,3.347654e+000
9.797025e+002,6.000000e+000
9.835596e+002,2.824772e+000
9.874166e+002,2.126842e+000
9.912738e+002,2.008699e+000
9.951309e+002,2.116955e+000
9.989879e+002,2.162538e+000
1.002845e+003,1.976913e+000
1.006702e+003,2.330166e+000
1.010559e+003,6.000000e+000
1.014416e+003,2.872082e+000
1.018273e+003,2.296505e+000
1.022130e+003,2.378457e+000
1.025988e+003,2.524995e+000
1.029845e+003,2.551006e+000
1.033702e+003,2.302648e+000
1.037559e+003,2.178885e+000
1.041416e+003,2.200632e+000
1.045273e+003,2.073875e+000
1.049130e+003,1.877223e+000
1.052987e+003,1.824225e+000
1.056844e+003,1.849252e+000
1.060702e+003,1.928433e+000
1.064559e+003,1.943528e+000
1.068416e+003,1.925505e+000
1.072273e+003,1.920565e+000
1.076130e+003,1.895591e+000
1.079987e+003,1.854673e+000
1.083844e+003,1.988778e+000
1.087701e+003,2.028905e+000
1.091558e+003,1.848226e+000
1.095415e+003,1.824005e+000
1.099272e+003,1.911193e+000
1.103130e+003,1.903631e+000
1.106987e+003,1.836728e+000
1.110844e+003,1.771861e+000
1.114701e+003,1.816296e+000
1.118558e+003,1.822061e+000
1.122415e+003,1.771483e+000
1.126272e+003,1.796434e+000
1.130129e+003,1.776583e+000
1.133986e+003,1.719848e+000
1.137843e+003,1.719096e+000
1.141701e+003,1.786840e+000
1.145558e+003,1.773449e+000
1.149415e+003,1.689250e+000
1.153272e+003,1.674704e+000
1.157129e+003,1.697541e+000
1.160986e+003,1.717585e+000
1.164843e+003,1.742889e+000
1.168700e+003,1.728082e+000
1.172557e+003,1.716387e+000
1.176414e+003,1.721264e+000
1.180271e+003,1.726474e+000
1.184129e+003,1.684429e+000
1.187986e+003,1.663790e+000
1.191843e+003,1.691428e+000
1.195700e+003,1.719055e+000
1.199557e+003,1.675438e+000
1.203414e+003,1.626603e+000
1.207271e+003,1.624494e+000
1.211128e+003,1.630824e+000
1.214985e+003,1.563511e+000
1.218842e+003,1.484469e+000
1.222699e+003,1.413551e+000
1.226557e+003,1.323202e+000
1.230414e+003,1.231031e+000
1.234271e+003,1.159355e+000
1.238128e+003,1.089581e+000
1.241985e+003,1.014793e+000
1.245842e+003,9.587331e-001
1.249699e+003,9.155596e-001
1.253556e+003,8.692435e-001
1.257413e+003,8.306966e-001
1.261271e+003,8.002885e-001
1.265128e+003,7.719467e-001
1.268985e+003,7.441506e-001
1.272842e+003,7.151038e-001
1.276699e+003,6.928735e-001
1.280556e+003,6.776685e-001
1.284413e+003,6.640156e-001
1.288270e+003,6.454852e-001
1.292127e+003,6.269709e-001
1.295984e+003,6.111094e-001
1.299841e+003,5.974236e-001
1.303698e+003,5.826311e-001
1.307556e+003,5.707428e-001
1.311413e+003,5.609776e-001
1.315270e+003,5.503693e-001
1.319127e+003,5.426242e-001
1.322984e+003,5.357943e-001
1.326841e+003,5.289149e-001
1.330698e+003,5.197587e-001
1.334555e+003,5.128978e-001
1.338412e+003,5.117474e-001
1.342270e+003,5.103918e-001
1.346127e+003,5.099799e-001
1.349984e+003,5.091525e-001
1.353841e+003,5.084241e-001
1.357698e+003,5.105007e-001
1.361555e+003,5.159186e-001
1.365412e+003,5.204489e-001
1.369269e+003,5.257699e-001
1.373126e+003,5.326977e-001
1.376983e+003,5.436425e-001
1.380840e+003,5.575744e-001
1.384698e+003,5.714117e-001
1.388555e+003,5.838583e-001
1.392412e+003,5.967718e-001
1.396269e+003,6.148362e-001
1.400126e+003,6.356581e-001
1.403983e+003,6.551481e-001
1.407840e+003,6.729573e-001
1.411697e+003,6.924115e-001
1.415554e+003,7.110177e-001
1.419411e+003,7.279208e-001
1.423269e+003,7.385843e-001
1.427126e+003,7.440076e-001
1.430983e+003,7.515450e-001
1.434840e+003,7.578550e-001
1.438697e+003,7.559559e-001
1.442554e+003,7.479522e-001
1.446411e+003,7.372575e-001
1.450268e+003,7.287028e-001
1.454125e+003,7.180209e-001
1.457982e+003,7.046179e-001
1.461839e+003,6.930606e-001
1.465697e+003,6.848068e-001
1.469554e+003,6.796237e-001
1.473411e+003,6.803694e-001
1.477268e+003,6.849997e-001
1.481125e+003,6.901245e-001
1.484982e+003,7.011296e-001
1.488839e+003,7.157417e-001
1.492696e+003,7.289668e-001
1.496553e+003,7.422252e-001
1.500411e+003,7.556602e-001
1.504268e+003,7.645423e-001
1.508125e+003,7.727236e-001
1.511982e+003,7.759858e-001
1.515839e+003,7.709567e-001
1.519696e+003,7.616009e-001
1.523553e+003,7.521020e-001
1.527410e+003,7.399126e-001
1.531267e+003,7.251025e-001
1.535124e+003,7.114774e-001
1.538981e+003,6.938672e-001
1.542839e+003,6.720105e-001
1.546696e+003,6.523909e-001
1.550553e+003,6.364050e-001
1.554410e+003,6.211247e-001
1.558267e+003,6.063383e-001
1.562124e+003,5.935533e-001
1.565981e+003,5.814033e-001
1.569838e+003,5.692289e-001
1.573695e+003,5.619991e-001
1.577552e+003,5.598106e-001
1.581410e+003,5.569176e-001
1.585267e+003,5.568796e-001
1.589124e+003,5.619982e-001
1.592981e+003,5.688857e-001
1.596838e+003,5.793599e-001
1.600695e+003,5.918460e-001
1.604552e+003,6.107912e-001
1.608409e+003,6.369590e-001
1.612266e+003,6.663373e-001
1.616123e+003,7.001468e-001
1.619980e+003,7.352580e-001
1.623838e+003,7.676253e-001
1.627695e+003,7.948196e-001
1.631552e+003,8.135507e-001
1.635409e+003,8.225530e-001
1.639266e+003,8.201937e-001
1.643123e+003,8.128768e-001
1.646980e+003,7.967600e-001
1.650837e+003,7.758061e-001
1.654694e+003,7.517108e-001
1.658551e+003,7.226850e-001
1.662409e+003,6.935393e-001
1.666266e+003,6.651421e-001
1.670123e+003,6.349031e-001
1.673980e+003,6.043004e-001
1.677837e+003,5.814313e-001
1.681694e+003,5.606131e-001
1.685551e+003,5.365639e-001
1.689408e+003,5.171707e-001
1.693265e+003,5.022246e-001
1.697122e+003,4.881838e-001
1.700979e+003,4.749920e-001
1.704837e+003,4.662252e-001
1.708694e+003,4.598997e-001
1.712551e+003,4.528242e-001
1.716408e+003,4.458081e-001
1.720265e+003,4.409675e-001
1.724122e+003,4.367063e-001
1.727979e+003,4.317432e-001
1.731836e+003,4.279129e-001
1.735693e+003,4.243492e-001
1.739550e+003,4.209564e-001
1.743408e+003,4.191022e-001
1.747265e+003,4.180213e-001
1.751122e+003,4.165768e-001
1.754979e+003,4.158841e-001
1.758836e+003,4.148608e-001
1.762693e+003,4.128156e-001
1.766550e+003,4.108637e-001
1.770407e+003,4.104401e-001
1.774264e+003,4.095832e-001
1.778121e+003,4.075041e-001
1.781979e+003,4.052111e-001
1.785836e+003,4.035483e-001
1.789693e+003,4.019867e-001
1.793550e+003,3.994586e-001
1.797407e+003,3.961244e-001
1.801264e+003,3.931303e-001
1.805121e+003,3.914235e-001
1.808978e+003,3.895215e-001
1.812835e+003,3.891580e-001
1.816692e+003,3.876981e-001
1.820549e+003,3.867595e-001
1.824407e+003,3.867387e-001
1.828264e+003,3.862019e-001
1.832121e+003,3.839975e-001
1.835978e+003,3.795404e-001
1.839835e+003,3.774308e-001
1.843692e+003,3.755779e-001
1.847549e+003,3.743033e-001
1.851406e+003,3.733160e-001
1.855263e+003,3.712208e-001
1.859120e+003,3.691729e-001
1.862978e+003,3.678437e-001
1.866835e+003,3.675194e-001
1.870692e+003,3.664433e-001
1.874549e+003,3.653884e-001
1.878406e+003,3.633828e-001
1.882263e+003,3.615442e-001
1.886120e+003,3.618281e-001
1.889977e+003,3.600291e-001
1.893834e+003,3.588015e-001
1.897691e+003,3.583068e-001
1.901548e+003,3.561212e-001
1.905406e+003,3.548448e-001
1.909263e+003,3.538458e-001
1.913120e+003,3.528088e-001
1.916977e+003,3.508778e-001
1.920834e+003,3.491138e-001
1.924691e+003,3.481941e-001
1.928548e+003,3.474805e-001
1.932405e+003,3.445531e-001
1.936262e+003,3.415686e-001
1.940119e+003,3.409916e-001
1.943977e+003,3.413537e-001
1.947834e+003,3.396230e-001
1.951691e+003,3.381168e-001
1.955548e+003,3.361028e-001
1.959405e+003,3.340813e-001
1.963262e+003,3.329936e-001
1.967119e+003,3.307756e-001
1.970976e+003,3.292510e-001
1.974833e+003,3.287056e-001
1.978690e+003,3.277917e-001
1.982547e+003,3.274406e-001
1.986405e+003,3.266109e-001
1.990262e+003,3.242463e-001
1.994119e+003,3.229270e-001
1.997976e+003,3.218288e-001
2.001833e+003,3.211391e-001
2.005690e+003,3.208396e-001
2.009547e+003,3.201996e-001
2.013404e+003,3.197735e-001
2.017261e+003,3.187661e-001
2.021118e+003,3.170570e-001
2.024976e+003,3.164045e-001
2.028833e+003,3.159509e-001
2.032690e+003,3.138829e-001
2.036547e+003,3.113140e-001
2.040404e+003,3.095585e-001
2.044261e+003,3.090688e-001
2.048118e+003,3.078015e-001
2.051975e+003,3.071844e-001
2.055832e+003,3.058794e-001
2.059689e+003,3.051785e-001
2.063546e+003,3.051577e-001
2.067404e+003,3.040514e-001
2.071261e+003,3.027745e-001
2.075118e+003,3.011802e-001
2.078975e+003,2.999431e-001
2.082832e+003,2.992848e-001
2.086689e+003,3.000812e-001
2.090546e+003,3.003049e-001
2.094403e+003,2.991159e-001
2.098260e+003,2.979946e-001
2.102117e+003,2.985513e-001
2.105975e+003,3.000337e-001
2.109832e+003,2.987115e-001
2.113689e+003,2.979617e-001
2.117546e+003,2.985164e-001
2.121403e+003,2.977222e-001
2.125260e+003,2.986683e-001
2.129117e+003,3.008930e-001
2.132974e+003,3.001450e-001
2.136831e+003,2.986476e-001
2.140688e+003,2.984902e-001
2.144545e+003,2.985902e-001
2.148403e+003,2.979183e-001
2.152260e+003,2.982082e-001
2.156117e+003,2.990063e-001
2.159974e+003,2.990820e-001
2.163831e+003,2.993056e-001
2.167688e+003,2.996188e-001
2.171545e+003,2.987345e-001
2.175402e+003,2.989368e-001
2.179259e+003,2.997265e-001
2.183116e+003,3.007967e-001
2.186974e+003,3.028641e-001
2.190831e+003,3.037590e-001
2.194688e+003,3.040362e-001
2.198545e+003,3.049198e-001
2.202402e+003,3.057908e-001
2.206259e+003,3.060256e-001
2.210116e+003,3.054057e-001
2.213973e+003,3.048234e-001
2.217830e+003,3.046724e-001
2.221688e+003,3.049714e-001
2.225544e+003,3.054695e-001
2.229402e+003,3.062705e-001
2.233259e+003,3.079802e-001
2.237116e+003,3.095644e-001
2.240973e+003,3.122136e-001
2.244830e+003,3.137873e-001
2.248687e+003,3.134971e-001
2.252544e+003,3.143513e-001
2.256401e+003,3.157205e-001
2.260258e+003,3.170210e-001
2.264115e+003,3.185903e-001
2.267973e+003,3.195010e-001
2.271830e+003,3.199067e-001
2.275687e+003,3.203341e-001
2.279544e+003,3.209898e-001
2.283401e+003,3.202091e-001
2.287258e+003,3.204045e-001
2.291115e+003,3.236110e-001
2.294972e+003,3.248082e-001
2.298829e+003,3.236051e-001
2.302687e+003,3.238984e-001
2.306543e+003,3.256291e-001
2.310401e+003,3.267837e-001
2.314258e+003,3.289538e-001
2.318115e+003,3.326067e-001
2.321972e+003,3.347593e-001
2.325829e+003,3.332932e-001
2.329686e+003,3.317874e-001
2.333543e+003,3.338113e-001
2.337400e+003,3.341742e-001
2.341257e+003,3.338864e-001
2.345115e+003,3.337576e-001
2.348972e+003,3.330765e-001
2.352829e+003,3.336293e-001
2.356686e+003,3.341798e-001
2.360543e+003,3.369392e-001
2.364400e+003,3.380478e-001
2.368257e+003,3.365935e-001
2.372114e+003,3.367267e-001
2.375971e+003,3.359006e-001
2.379828e+003,3.340633e-001
2.383686e+003,3.339748e-001
2.387542e+003,3.346290e-001
2.391400e+003,3.347602e-001
2.395257e+003,3.336978e-001
2.399114e+003,3.318917e-001
2.402971e+003,3.315612e-001
2.406828e+003,3.308452e-001
2.410685e+003,3.293163e-001
2.414542e+003,3.287442e-001
2.418399e+003,3.288433e-001
2.422256e+003,3.290801e-001
2.426114e+003,3.269119e-001
2.429971e+003,3.252827e-001
2.433828e+003,3.243847e-001
2.437685e+003,3.241952e-001
2.441542e+003,3.257378e-001
2.445399e+003,3.262921e-001
2.449256e+003,3.256333e-001
2.453113e+003,3.263190e-001
2.456970e+003,3.272305e-001
2.460827e+003,3.265651e-001
2.464684e+003,3.252637e-001
2.468542e+003,3.237270e-001
2.472399e+003,3.229256e-001
2.476256e+003,3.227828e-001
2.480113e+003,3.227156e-001
2.483970e+003,3.227205e-001
2.487827e+003,3.220670e-001
2.491684e+003,3.207494e-001
2.495541e+003,3.186662e-001
2.499398e+003,3.184676e-001
2.503255e+003,3.202043e-001
2.507113e+003,3.226249e-001
2.510969e+003,3.255991e-001
2.514827e+003,3.255409e-001
2.518684e+003,3.246432e-001
2.522541e+003,3.252601e-001
2.526398e+003,3.276504e-001
2.530255e+003,3.294635e-001
2.534112e+003,3.296582e-001
2.537969e+003,3.292787e-001
2.541826e+003,3.301793e-001
2.545683e+003,3.319118e-001
2.549541e+003,3.315214e-001
2.553398e+003,3.315694e-001
2.557255e+003,3.322248e-001
2.561112e+003,3.334261e-001
2.564969e+003,3.363548e-001
2.568826e+003,3.401664e-001
2.572683e+003,3.415683e-001
2.576540e+003,3.439627e-001
2.580397e+003,3.471906e-001
2.584254e+003,3.494482e-001
2.588112e+003,3.526706e-001
2.591969e+003,3.550260e-001
2.595826e+003,3.560957e-001
2.599683e+003,3.597100e-001
2.603540e+003,3.637131e-001
2.607397e+003,3.657857e-001
2.611254e+003,3.654162e-001
2.615111e+003,3.664242e-001
2.618968e+003,3.692587e-001
2.622825e+003,3.695093e-001
2.626682e+003,3.705444e-001
2.630540e+003,3.762625e-001
2.634397e+003,3.807366e-001
2.638254e+003,3.831798e-001
2.642111e+003,3.865918e-001
2.645968e+003,3.905768e-001
2.649825e+003,3.955845e-001
2.653682e+003,3.996573e-001
2.657539e+003,4.024658e-001
2.661396e+003,4.058834e-001
2.665253e+003,4.103808e-001
2.669111e+003,4.133413e-001
2.672968e+003,4.164094e-001
2.676825e+003,4.187288e-001
2.680682e+003,4.201786e-001
2.684539e+003,4.231925e-001
2.688396e+003,4.272172e-001
2.692253e+003,4.323859e-001
2.696110e+003,4.371021e-001
2.699967e+003,4.397373e-001
2.703824e+003,4.432895e-001
2.707681e+003,4.487782e-001
2.711539e+003,4.522438e-001
2.715396e+003,4.554225e-001
2.719253e+003,4.606267e-001
2.723110e+003,4.656058e-001
2.726967e+003,4.700167e-001
2.730824e+003,4.756941e-001
2.734681e+003,4.809080e-001
2.738538e+003,4.843032e-001
2.742395e+003,4.887823e-001
2.746252e+003,4.918200e-001
2.750110e+003,4.952992e-001
2.753967e+003,5.003919e-001
2.757824e+003,5.051196e-001
2.761681e+003,5.096223e-001
2.765538e+003,5.145094e-001
2.769395e+003,5.191690e-001
2.773252e+003,5.220065e-001
2.777109e+003,5.265657e-001
2.780966e+003,5.334401e-001
2.784823e+003,5.401786e-001
2.788680e+003,5.456268e-001
2.792538e+003,5.512782e-001
2.796395e+003,5.574167e-001
2.800252e+003,5.633721e-001
2.804109e+003,5.675901e-001
2.807966e+003,5.720319e-001
2.811823e+003,5.772702e-001
2.815680e+003,5.821876e-001
2.819537e+003,5.877518e-001
2.823394e+003,5.937001e-001
2.827251e+003,5.984441e-001
2.831109e+003,6.012142e-001
2.834966e+003,6.047616e-001
2.838823e+003,6.106416e-001
2.842680e+003,6.210729e-001
2.846537e+003,6.293591e-001
2.850394e+003,6.333066e-001
2.854251e+003,6.384223e-001
2.858108e+003,6.432845e-001
2.861965e+003,6.483276e-001
2.865823e+003,6.545689e-001
2.869679e+003,6.619638e-001
2.873537e+003,6.693354e-001
2.877394e+003,6.716012e-001
2.881251e+003,6.744236e-001
2.885108e+003,6.823282e-001
2.888965e+003,6.891454e-001
2.892822e+003,6.935481e-001
2.896679e+003,7.007523e-001
2.900536e+003,7.090299e-001
2.904393e+003,7.159881e-001
2.908250e+003,7.250178e-001
2.912108e+003,7.349804e-001
2.915965e+003,7.430729e-001
2.919822e+003,7.510844e-001
2.923679e+003,7.549725e-001
2.927536e+003,7.607834e-001
2.931393e+003,7.653263e-001
2.935250e+003,7.695628e-001
2.939107e+003,7.781015e-001
2.942964e+003,7.845317e-001
2.946822e+003,7.903548e-001
2.950678e+003,7.954719e-001
2.954536e+003,8.007985e-001
2.958393e+003,8.096256e-001
2.962250e+003,8.135965e-001
2.966107e+003,8.160903e-001
2.969964e+003,8.256185e-001
2.973821e+003,8.353220e-001
2.977678e+003,8.450853e-001
2.981535e+003,8.502960e-001
2.985392e+003,8.576608e-001
2.989250e+003,8.632515e-001
2.993107e+003,8.691819e-001
2.996964e+003,8.739890e-001
3.000821e+003,8.810717e-001
3.004678e+003,8.914862e-001
3.008535e+003,9.002333e-001
3.012392e+003,9.037228e-001
3.016249e+003,9.067342e-001
3.020106e+003,9.169019e-001
3.023963e+003,9.291613e-001
3.027821e+003,9.359812e-001
3.031677e+003,9.437513e-001
3.035535e+003,9.541755e-001
3.039392e+003,9.570384e-001
3.043249e+003,9.599621e-001
3.047106e+003,9.697743e-001
3.050963e+003,9.836235e-001
3.054820e+003,9.922647e-001
3.058677e+003,1.004323e+000
3.062534e+003,1.008486e+000
3.066391e+003,1.012109e+000
3.070249e+003,1.026178e+000
3.074106e+003,1.035332e+000
3.077963e+003,1.041579e+000
3.081820e+003,1.046816e+000
3.085677e+003,1.055463e+000
3.089534e+003,1.066323e+000
3.093391e+003,1.071555e+000
3.097248e+003,1.082599e+000
3.101105e+003,1.095781e+000
3.104962e+003,1.107891e+000
3.108820e+003,1.113791e+000
3.112677e+003,1.117688e+000
3.116534e+003,1.123498e+000
3.120391e+003,1.132148e+000
3.124248e+003,1.137872e+000
3.128105e+003,1.142231e+000
3.131962e+003,1.148170e+000
3.135819e+003,1.157875e+000
3.139676e+003,1.173634e+000
3.143533e+003,1.187003e+000
3.147390e+003,1.187941e+000
3.151248e+003,1.192636e+000
3.155105e+003,1.205954e+000
3.158962e+003,1.218194e+000
3.162819e+003,1.239716e+000
3.166676e+003,1.253213e+000
3.170533e+003,1.250313e+000
3.174390e+003,1.250699e+000
3.178247e+003,1.255808e+000
3.182104e+003,1.270271e+000
3.185961e+003,1.285732e+000
3.189819e+003,1.286787e+000
3.193676e+003,1.288570e+000
3.197533e+003,1.305183e+000
3.201390e+003,1.321555e+000
3.205247e+003,1.335973e+000
3.209104e+003,1.337367e+000
3.212961e+003,1.348763e+000
3.216818e+003,1.364820e+000
3.220675e+003,1.379426e+000
3.224532e+003,1.390844e+000
3.228389e+003,1.395717e+000
3.232247e+003,1.387589e+000
3.236104e+003,1.384624e+000
3.239961e+003,1.389627e+000
3.243818e+003,1.402908e+000
3.247675e+003,1.414232e+000
3.251532e+003,1.426960e+000
3.255389e+003,1.435158e+000
3.259246e+003,1.424076e+000
3.263103e+003,1.426613e+000
3.266960e+003,1.436553e+000
3.270818e+003,1.441557e+000
3.274675e+003,1.460350e+000
3.278532e+003,1.476373e+000
3.282389e+003,1.467739e+000
3.286246e+003,1.469818e+000
3.290103e+003,1.496264e+000
3.293960e+003,1.503332e+000
3.297817e+003,1.503454e+000
3.301674e+003,1.511665e+000
3.305531e+003,1.495855e+000
3.309388e+003,1.500143e+000
3.313246e+003,1.527921e+000
3.317103e+003,1.539065e+000
3.320960e+003,1.531197e+000
3.324817e+003,1.539880e+000
3.328674e+003,1.544779e+000
3.332531e+003,1.563492e+000
3.336388e+003,1.577679e+000
3.340245e+003,1.576851e+000
3.344102e+003,1.560976e+000
3.347959e+003,1.568332e+000
3.351817e+003,1.576410e+000
3.355674e+003,1.576083e+000
3.359531e+003,1.596277e+000
3.363388e+003,1.585310e+000
3.367245e+003,1.581355e+000
3.371102e+003,1.610339e+000
3.374959e+003,1.637828e+000
3.378816e+003,1.650865e+000
3.382673e+003,1.651784e+000
3.386530e+003,1.645073e+000
3.390387e+003,1.658473e+000
3.394245e+003,1.676094e+000
3.398102e+003,1.683403e+000
3.401959e+003,1.679881e+000
3.405816e+003,1.700387e+000
3.409673e+003,1.690659e+000
3.413530e+003,1.666178e+000
3.417387e+003,1.686976e+000
3.421244e+003,1.700596e+000
3.425101e+003,1.693098e+000
3.428958e+003,1.691745e+000
3.432815e+003,1.671132e+000
3.436673e+003,1.677355e+000
3.440530e+003,1.724024e+000
3.444387e+003,1.745748e+000
3.448244e+003,1.725086e+000
3.452101e+003,1.700743e+000
3.455958e+003,1.692280e+000
3.459815e+003,1.710346e+000
3.463672e+003,1.699516e+000
3.467529e+003,1.716321e+000
3.471386e+003,1.712462e+000
3.475244e+003,1.695981e+000
3.479101e+003,1.720690e+000
3.482958e+003,1.751393e+000
3.486815e+003,1.784418e+000
3.490672e+003,1.811594e+000
3.494529e+003,1.816890e+000
3.498386e+003,1.781281e+000
3.502243e+003,1.758480e+000
3.506100e+003,1.730308e+000
3.509958e+003,1.735652e+000
3.513814e+003,1.751056e+000
3.517672e+003,1.762191e+000
3.521529e+003,1.735538e+000
3.525386e+003,1.712425e+000
3.529243e+003,1.773500e+000
3.533100e+003,1.799770e+000
3.536957e+003,1.757656e+000
3.540814e+003,1.727778e+000
3.544671e+003,1.747867e+000
3.548528e+003,1.782749e+000
3.552385e+003,1.787626e+000
3.556243e+003,1.765086e+000
3.560100e+003,1.731739e+000
3.563957e+003,1.735712e+000
3.567814e+003,1.703600e+000
3.571671e+003,1.667570e+000
3.575528e+003,1.676071e+000
3.579385e+003,1.716014e+000
3.583242e+003,1.706467e+000
3.587099e+003,1.645898e+000
3.590957e+003,1.608837e+000
3.594813e+003,1.583678e+000
3.598671e+003,1.542508e+000
3.602528e+003,1.498391e+000
3.606385e+003,1.462224e+000
3.610242e+003,1.397294e+000
3.614099e+003,1.325979e+000
3.617956e+003,1.266494e+000
3.621813e+003,1.197882e+000
3.625670e+003,1.135474e+000
3.629527e+003,1.073713e+000
3.633385e+003,9.948595e-001
3.637242e+003,9.173235e-001
3.641099e+003,8.479549e-001
3.644956e+003,7.817386e-001
3.648813e+003,7.212927e-001
3.652670e+003,6.597586e-001
3.656527e+003,6.011696e-001
3.660384e+003,5.481524e-001
3.664241e+003,4.994101e-001
3.668098e+003,4.575224e-001
3.671956e+003,4.175198e-001
3.675813e+003,3.823479e-001
3.679670e+003,3.525127e-001
3.683527e+003,3.269995e-001
3.687384e+003,3.042624e-001
3.691241e+003,2.847905e-001
3.695098e+003,2.679642e-001
3.698955e+003,2.536850e-001
3.702812e+003,2.410053e-001
3.706669e+003,2.292601e-001
3.710526e+003,2.196038e-001
3.714384e+003,2.116338e-001
3.718241e+003,2.046304e-001
3.722098e+003,2.000190e-001
3.725955e+003,1.971139e-001
3.729812e+003,1.930363e-001
3.733669e+003,1.890458e-001
3.737526e+003,1.875148e-001
3.741383e+003,1.868810e-001
3.745240e+003,1.842266e-001
3.749097e+003,1.796155e-001
3.752955e+003,1.770067e-001
3.756812e+003,1.744677e-001
3.760669e+003,1.725135e-001
3.764526e+003,1.713892e-001
3.768383e+003,1.689181e-001
3.772240e+003,1.675803e-001
3.776097e+003,1.671499e-001
3.779954e+003,1.674931e-001
3.783811e+003,1.688633e-001
3.787668e+003,1.678461e-001
3.791525e+003,1.649813e-001
3.795383e+003,1.641288e-001
3.799240e+003,1.651960e-001
3.803097e+003,1.656782e-001
3.806954e+003,1.640348e-001
3.810811e+003,1.621424e-001
3.814668e+003,1.622976e-001
3.818525e+003,1.621090e-001
3.822382e+003,1.597690e-001
3.826239e+003,1.581592e-001
3.830096e+003,1.572856e-001
3.833954e+003,1.567832e-001
3.837811e+003,1.573963e-001
3.841668e+003,1.574067e-001
3.845525e+003,1.566581e-001
3.849382e+003,1.573281e-001
3.853239e+003,1.583345e-001
3.857096e+003,1.576197e-001
3.860953e+003,1.587348e-001
3.864810e+003,1.605967e-001
3.868667e+003,1.598532e-001
3.872524e+003,1.593747e-001
3.876382e+003,1.596580e-001
3.880239e+003,1.578702e-001
3.884096e+003,1.558486e-001
3.887953e+003,1.553173e-001
3.891810e+003,1.544601e-001
3.895667e+003,1.543479e-001
3.899524e+003,1.535198e-001
3.903381e+003,1.519003e-001
3.907238e+003,1.524877e-001
3.911095e+003,1.539089e-001
3.914953e+003,1.543006e-001
3.918810e+003,1.530487e-001
3.922667e+003,1.524327e-001
3.926524e+003,1.551062e-001
3.930381e+003,1.565221e-001
3.934238e+003,1.562668e-001
3.938095e+003,1.572101e-001
3.941952e+003,1.563946e-001
3.945809e+003,1.542867e-001
3.949667e+003,1.548616e-001
3.953523e+003,1.535562e-001
3.957381e+003,1.521050e-001
3.961238e+003,1.507788e-001
3.965095e+003,1.496961e-001
3.968952e+003,1.484627e-001
3.972809e+003,1.491135e-001
3.976666e+003,1.488888e-001
3.980523e+003,1.491700e-001
3.984380e+003,1.503207e-001
3.988237e+003,1.511159e-001
3.992094e+003,1.517851e-001
3.995952e+003,1.526349e-001
3.999809e+003,1.535372e-001
4.003666e+003,1.530753e-001
4.007523e+003,1.508178e-001
4.011380e+003,1.502573e-001
4.015237e+003,1.508797e-001
4.019094e+003,1.509566e-001
4.022951e+003,1.501434e-001
4.026808e+003,1.487376e-001
4.030666e+003,1.462609e-001
4.034522e+003,1.465411e-001
4.038380e+003,1.467180e-001
4.042237e+003,1.471380e-001
4.046094e+003,1.474459e-001
4.049951e+003,1.464133e-001
4.053808e+003,1.450004e-001
4.057665e+003,1.449411e-001
4.061522e+003,1.450891e-001
4.065379e+003,1.466287e-001
4.069236e+003,1.479144e-001
4.073094e+003,1.475337e-001
4.076951e+003,1.453963e-001
4.080808e+003,1.447027e-001
4.084665e+003,1.451827e-001
4.088522e+003,1.457821e-001
4.092379e+003,1.458334e-001
4.096236e+003,1.433863e-001
4.100093e+003,1.394559e-001
4.103950e+003,1.389180e-001
4.107808e+003,1.402320e-001
4.111665e+003,1.403048e-001
4.115521e+003,1.395477e-001
4.119379e+003,1.385877e-001
4.123236e+003,1.393132e-001
4.127093e+003,1.406143e-001
4.130950e+003,1.415773e-001
4.134807e+003,1.425441e-001
4.138664e+003,1.417870e-001
4.142521e+003,1.414645e-001
4.146378e+003,1.414972e-001
4.150235e+003,1.410197e-001
4.154093e+003,1.392274e-001
4.157950e+003,1.370739e-001
4.161807e+003,1.354986e-001
4.165664e+003,1.361316e-001
4.169521e+003,1.383242e-001
4.173378e+003,1.384142e-001
4.177235e+003,1.367850e-001
4.181092e+003,1.374677e-001
4.184949e+003,1.372884e-001
4.188807e+003,1.372090e-001
4.192664e+003,1.380385e-001
4.196521e+003,1.374978e-001
4.200378e+003,1.366732e-001
4.204235e+003,1.353088e-001
4.208092e+003,1.366653e-001
4.211949e+003,1.382077e-001
4.215806e+003,1.376897e-001
4.219663e+003,1.370628e-001
4.223521e+003,1.360150e-001
4.227377e+003,1.340014e-001
4.231234e+003,1.320179e-001
4.235092e+003,1.325687e-001
4.238949e+003,1.328629e-001
4.242806e+003,1.315326e-001
4.246663e+003,1.313173e-001
4.250520e+003,1.319411e-001
4.254377e+003,1.324552e-001
4.258234e+003,1.339928e-001
4.262091e+003,1.353872e-001
4.265948e+003,1.348578e-001
4.269806e+003,1.352776e-001
4.273663e+003,1.358029e-001
4.277520e+003,1.347681e-001
4.281377e+003,1.332893e-001
4.285234e+003,1.333118e-001
4.289091e+003,1.337426e-001
4.292948e+003,1.332250e-001
4.296805e+003,1.326636e-001
4.300662e+003,1.320913e-001
4.304520e+003,1.330169e-001
4.308376e+003,1.331645e-001
4.312233e+003,1.325317e-001
4.316091e+003,1.326312e-001
4.319948e+003,1.322599e-001
4.323805e+003,1.320342e-001
4.327662e+003,1.337093e-001
4.331519e+003,1.345451e-001
4.335376e+003,1.346750e-001
4.339233e+003,1.367214e-001
4.343090e+003,1.357002e-001
4.346947e+003,1.355245e-001
4.350805e+003,1.371486e-001
4.354662e+003,1.368778e-001
4.358519e+003,1.366022e-001
4.362376e+003,1.338288e-001
4.366233e+003,1.326670e-001
4.370090e+003,1.333678e-001
4.373947e+003,1.316086e-001
4.377804e+003,1.310659e-001
4.381661e+003,1.323268e-001
4.385519e+003,1.323025e-001
4.389375e+003,1.332970e-001
4.393232e+003,1.352175e-001
4.397090e+003,1.358889e-001
4.400947e+003,1.346478e-001
4.404804e+003,1.349271e-001
4.408661e+003,1.360919e-001
4.412518e+003,1.354735e-001
4.416375e+003,1.371854e-001
4.420232e+003,1.388301e-001
4.424089e+003,1.376486e-001
4.427946e+003,1.366373e-001
4.431804e+003,1.368266e-001
4.435661e+003,1.364914e-001
4.439518e+003,1.347547e-001
4.443375e+003,1.331640e-001
4.447232e+003,1.341076e-001
4.451089e+003,1.349798e-001
4.454946e+003,1.374844e-001
4.458803e+003,1.382207e-001
4.462660e+003,1.398903e-001
4.466518e+003,1.409111e-001
4.470375e+003,1.402824e-001
4.474231e+003,1.403900e-001
4.478089e+003,1.411064e-001
4.481946e+003,1.405545e-001
4.485803e+003,1.388651e-001
4.489660e+003,1.402687e-001
4.493517e+003,1.417064e-001
4.497375e+003,1.403493e-001
4.501231e+003,1.392621e-001
4.505088e+003,1.376083e-001
4.508946e+003,1.362252e-001
4.512803e+003,1.344040e-001
4.516660e+003,1.333667e-001
4.520517e+003,1.314930e-001
4.524374e+003,1.314723e-001
4.528231e+003,1.339708e-001
4.532088e+003,1.340975e-001
4.535945e+003,1.344401e-001
4.539802e+003,1.345723e-001
4.543660e+003,1.340984e-001
4.547517e+003,1.342017e-001
4.551374e+003,1.358470e-001
4.555231e+003,1.361196e-001
4.559088e+003,1.357927e-001
4.562945e+003,1.356728e-001
4.566802e+003,1.345055e-001
4.570659e+003,1.330413e-001
4.574516e+003,1.320782e-001
4.578374e+003,1.304384e-001
4.582230e+003,1.305621e-001
4.586087e+003,1.306965e-001
4.589945e+003,1.289437e-001
4.593802e+003,1.265366e-001
4.597659e+003,1.254908e-001
4.601516e+003,1.270816e-001
4.605373e+003,1.289877e-001
4.609230e+003,1.321983e-001
4.613087e+003,1.313291e-001
4.616944e+003,1.294155e-001
4.620801e+003,1.303927e-001
4.624659e+003,1.314130e-001
4.628516e+003,1.315761e-001
4.632373e+003,1.313609e-001
4.636230e+003,1.296493e-001
4.640087e+003,1.282055e-001
4.643944e+003,1.284374e-001
4.647801e+003,1.279360e-001
4.651658e+003,1.263177e-001
4.655515e+003,1.242894e-001
4.659373e+003,1.237459e-001
4.663229e+003,1.240131e-001
4.667086e+003,1.254576e-001
4.670944e+003,1.261597e-001
4.674801e+003,1.252130e-001
4.678658e+003,1.250703e-001
4.682515e+003,1.277780e-001
4.686372e+003,1.296174e-001
4.690229e+003,1.306461e-001
4.694086e+003,1.318215e-001
4.697943e+003,1.295090e-001
4.701800e+003,1.259579e-001
4.705658e+003,1.259485e-001
4.709515e+003,1.265629e-001
4.713372e+003,1.264900e-001
4.717229e+003,1.261092e-001
4.721086e+003,1.256633e-001
4.724943e+003,1.254814e-001
4.728800e+003,1.262551e-001
4.732657e+003,1.275066e-001
4.736514e+003,1.247636e-001
4.740372e+003,1.255391e-001
4.744229e+003,1.280601e-001
4.748085e+003,1.277716e-001
4.751943e+003,1.275743e-001
4.755800e+003,1.282086e-001
4.759657e+003,1.307407e-001
4.763514e+003,1.299920e-001
4.767371e+003,1.273392e-001
4.771228e+003,1.253865e-001
4.775085e+003,1.262590e-001
4.778942e+003,1.282517e-001
4.782799e+003,1.294069e-001
4.786657e+003,1.274120e-001
4.790514e+003,1.260505e-001
4.794371e+003,1.258591e-001
4.798228e+003,1.265059e-001
4.802085e+003,1.278785e-001
4.805942e+003,1.291576e-001
4.809799e+003,1.294590e-001
4.813656e+003,1.292602e-001
4.817513e+003,1.275138e-001
4.821371e+003,1.264824e-001
4.825228e+003,1.278001e-001
4.829084e+003,1.292259e-001
4.832942e+003,1.311112e-001
4.836799e+003,1.300480e-001
4.840656e+003,1.288565e-001
4.844513e+003,1.289310e-001
4.848370e+003,1.268422e-001
4.852227e+003,1.258731e-001
4.856084e+003,1.279443e-001
4.859941e+003,1.291308e-001
4.863798e+003,1.263732e-001
4.867656e+003,1.256828e-001
4.871513e+003,1.260354e-001
4.875370e+003,1.275931e-001
4.879227e+003,1.284376e-001
4.883084e+003,1.271241e-001
4.886941e+003,1.292729e-001
4.890798e+003,1.319856e-001
4.894655e+003,1.325785e-001
4.898512e+003,1.331831e-001
4.902370e+003,1.324078e-001
4.906227e+003,1.305404e-001
4.910083e+003,1.279296e-001
4.913941e+003,1.289446e-001
4.917798e+003,1.294153e-001
4.921655e+003,1.293958e-001
4.925512e+003,1.285273e-001
4.929369e+003,1.258172e-001
4.933226e+003,1.277428e-001
4.937083e+003,1.282708e-001
4.940940e+003,1.267573e-001
4.944797e+003,1.267644e-001
4.948655e+003,1.284117e-001
4.952512e+003,1.298605e-001
4.956369e+003,1.282487e-001
4.960226e+003,1.273151e-001
4.964083e+003,1.305940e-001
4.967940e+003,1.332203e-001
4.971797e+003,1.341848e-001
4.975654e+003,1.322742e-001
4.979511e+003,1.293570e-001
4.983369e+003,1.281495e-001
4.987226e+003,1.273577e-001
4.991083e+003,1.272203e-001
4.994940e+003,1.302296e-001
4.998797e+003,1.322245e-001
5.002654e+003,1.344739e-001
5.006511e+003,1.342275e-001
5.010368e+003,1.295072e-001
5.014225e+003,1.273854e-001
5.018083e+003,1.307407e-001
5.021939e+003,1.295419e-001
5.025796e+003,1.277221e-001
5.029654e+003,1.311485e-001
5.033511e+003,1.325090e-001
5.037368e+003,1.317124e-001
5.041225e+003,1.334847e-001
5.045082e+003,1.315137e-001
5.048939e+003,1.317971e-001
5.052796e+003,1.319185e-001
5.056653e+003,1.294653e-001
5.060510e+003,1.285138e-001
5.064368e+003,1.309056e-001
5.068225e+003,1.294282e-001
5.072082e+003,1.305253e-001
5.075939e+003,1.313811e-001
5.079796e+003,1.275566e-001
5.083653e+003,1.271148e-001
5.087510e+003,1.310038e-001
5.091367e+003,1.341906e-001
5.095224e+003,1.347134e-001
5.099082e+003,1.336620e-001
5.102938e+003,1.341401e-001
5.106795e+003,1.347744e-001
5.110653e+003,1.337484e-001
5.114510e+003,1.326649e-001
5.118367e+003,1.313981e-001
5.122224e+003,1.313399e-001
5.126081e+003,1.318522e-001
5.129938e+003,1.325995e-001
5.133795e+003,1.314373e-001
5.137652e+003,1.300799e-001
5.141509e+003,1.304462e-001
5.145367e+003,1.307280e-001
5.149224e+003,1.314427e-001
5.153081e+003,1.339158e-001
5.156938e+003,1.361438e-001
5.160795e+003,1.362062e-001
5.164652e+003,1.362506e-001
5.168509e+003,1.366973e-001
5.172366e+003,1.368452e-001
5.176223e+003,1.382334e-001
5.180081e+003,1.371457e-001
5.183938e+003,1.362573e-001
5.187794e+003,1.362421e-001
5.191652e+003,1.360738e-001
5.195509e+003,1.356497e-001
5.199366e+003,1.338512e-001
5.203223e+003,1.335877e-001
5.207080e+003,1.353121e-001
5.210937e+003,1.356235e-001
5.214794e+003,1.359890e-001
5.218651e+003,1.341224e-001
5.222508e+003,1.320083e-001
5.226366e+003,1.327888e-001
5.230223e+003,1.353523e-001
5.234080e+003,1.341586e-001
5.237937e+003,1.334977e-001
5.241794e+003,1.349286e-001
5.245651e+003,1.341233e-001
5.249508e+003,1.328993e-001
5.253365e+003,1.330310e-001
5.257222e+003,1.312546e-001
5.261080e+003,1.264584e-001
5.264937e+003,1.275569e-001
5.268793e+003,1.265027e-001
5.272651e+003,1.254265e-001
5.276508e+003,1.265836e-001
5.280365e+003,1.255373e-001
5.284222e+003,1.243624e-001
5.288079e+003,1.243076e-001
5.291936e+003,1.235660e-001
5.295793e+003,1.214474e-001
5.299650e+003,1.228015e-001
5.303507e+003,1.245875e-001
5.307365e+003,1.259273e-001
5.311222e+003,1.245669e-001
5.315079e+003,1.227929e-001
5.318936e+003,1.233873e-001
5.322793e+003,1.241203e-001
5.326650e+003,1.238822e-001
5.330507e+003,1.246482e-001
5.334364e+003,1.239634e-001
5.338221e+003,1.187678e-001
5.342079e+003,1.175486e-001
5.345936e+003,1.191524e-001
5.349792e+003,1.200770e-001
5.353650e+003,1.186193e-001
5.357507e+003,1.185764e-001
5.361364e+003,1.209306e-001
5.365221e+003,1.210992e-001
5.369078e+003,1.210398e-001
5.372935e+003,1.222912e-001
5.376792e+003,1.214769e-001
5.380649e+003,1.192824e-001
5.384506e+003,1.178637e-001
5.388364e+003,1.183764e-001
5.392221e+003,1.208615e-001
5.396078e+003,1.214425e-001
5.399935e+003,1.213740e-001
5.403792e+003,1.214875e-001
5.407649e+003,1.188155e-001
5.411506e+003,1.174903e-001
5.415363e+003,1.199406e-001
5.419220e+003,1.200522e-001
5.423078e+003,1.185624e-001
5.426935e+003,1.187576e-001
5.430792e+003,1.216644e-001
5.434649e+003,1.223345e-001
5.438506e+003,1.181526e-001
5.442363e+003,1.168924e-001
5.446220e+003,1.189006e-001
5.450077e+003,1.187305e-001
5.453934e+003,1.185445e-001
5.457792e+003,1.169200e-001
5.461648e+003,1.174444e-001
5.465505e+003,1.197956e-001
5.469363e+003,1.179377e-001
5.473220e+003,1.165767e-001
5.477077e+003,1.183579e-001
5.480934e+003,1.173272e-001
5.484791e+003,1.190112e-001
5.488648e+003,1.223173e-001
5.492505e+003,1.205582e-001
5.496362e+003,1.167745e-001
5.500219e+003,1.165322e-001
5.504077e+003,1.208605e-001
5.507934e+003,1.209337e-001
5.511791e+003,1.192030e-001
5.515648e+003,1.183400e-001
5.519505e+003,1.145739e-001
5.523362e+003,1.134697e-001
5.527219e+003,1.145210e-001
5.531076e+003,1.163790e-001
5.534933e+003,1.143228e-001
5.538791e+003,1.143234e-001
5.542647e+003,1.197167e-001
5.546504e+003,1.207203e-001
5.550362e+003,1.209311e-001
5.554219e+003,1.178417e-001
5.558076e+003,1.140594e-001
5.561933e+003,1.138041e-001
5.565790e+003,1.128138e-001
5.569647e+003,1.137517e-001
5.573504e+003,1.150369e-001
5.577361e+003,1.152724e-001
5.581218e+003,1.165897e-001
5.585076e+003,1.143060e-001
5.588933e+003,1.125152e-001
5.592790e+003,1.151067e-001
5.596647e+003,1.148807e-001
5.600504e+003,1.147657e-001
5.604361e+003,1.138804e-001
5.608218e+003,1.135654e-001
5.612075e+003,1.163791e-001
5.615932e+003,1.147228e-001
5.619790e+003,1.117319e-001
5.623646e+003,1.128049e-001
5.627503e+003,1.112042e-001
5.631361e+003,1.103565e-001
5.635218e+003,1.120782e-001
5.639075e+003,1.136478e-001
5.642932e+003,1.138584e-001
5.646789e+003,1.127537e-001
5.650646e+003,1.112720e-001
5.654503e+003,1.133361e-001
5.658360e+003,1.131100e-001
5.662217e+003,1.145261e-001
5.666075e+003,1.164212e-001
5.669932e+003,1.144516e-001
5.673789e+003,1.130044e-001
5.677646e+003,1.133868e-001
5.681503e+003,1.130971e-001
5.685360e+003,1.143458e-001
5.689217e+003,1.145240e-001
5.693074e+003,1.128563e-001
5.696931e+003,1.119389e-001
5.700789e+003,1.087635e-001
5.704646e+003,1.112743e-001
5.708502e+003,1.133611e-001
5.712360e+003,1.119771e-001
5.716217e+003,1.095384e-001
5.720074e+003,1.076677e-001
5.723931e+003,1.074376e-001
5.727788e+003,1.094174e-001
5.731645e+003,1.106558e-001
5.735502e+003,1.120543e-001
5.739359e+003,1.098005e-001
5.743216e+003,1.103216e-001
5.747074e+003,1.143739e-001
5.750931e+003,1.131273e-001
5.754788e+003,1.113911e-001
5.758645e+003,1.129943e-001
5.762502e+003,1.097839e-001
5.766359e+003,1.056568e-001
5.770216e+003,1.084377e-001
5.774073e+003,1.113441e-001
5.777930e+003,1.067006e-001
5.781788e+003,1.061553e-001
5.785645e+003,1.099433e-001
5.789501e+003,1.107547e-001
5.793359e+003,1.093022e-001
5.797216e+003,1.061349e-001
5.801073e+003,1.050354e-001
5.804930e+003,1.084886e-001
5.808787e+003,1.112587e-001
5.812644e+003,1.087066e-001
5.816501e+003,1.095571e-001
5.820358e+003,1.096821e-001
5.824215e+003,1.036979e-001
5.828073e+003,1.014950e-001
5.831930e+003,1.050705e-001
5.835787e+003,1.037263e-001
5.839644e+003,1.048615e-001
5.843501e+003,1.066457e-001
5.847358e+003,1.015422e-001
5.851215e+003,9.656709e-002
5.855072e+003,1.006996e-001
5.858929e+003,1.024598e-001
5.862787e+003,1.032389e-001
5.866644e+003,1.059983e-001
5.870500e+003,1.082274e-001
5.874358e+003,1.080192e-001
5.878215e+003,1.012863e-001
5.882072e+003,9.477048e-002
5.885929e+003,1.006221e-001
5.889786e+003,1.067605e-001
5.893643e+003,1.068262e-001
5.897500e+003,1.047591e-001
5.901357e+003,1.003938e-001
5.905214e+003,9.672400e-002
5.909072e+003,9.848857e-002
5.912929e+003,1.017692e-001
5.916786e+003,1.027025e-001
5.920643e+003,1.014923e-001
5.924500e+003,1.031692e-001
5.928357e+003,1.063414e-001
5.932214e+003,1.093363e-001
5.936071e+003,1.102897e-001
5.939928e+003,1.047431e-001
5.943786e+003,1.033834e-001
5.947643e+003,1.024661e-001
5.951500e+003,1.015764e-001
5.955357e+003,1.089207e-001
5.959214e+003,1.074050e-001
5.963071e+003,1.050954e-001
5.966928e+003,1.075020e-001
5.970785e+003,1.041000e-001
5.974642e+003,9.656183e-002
5.978500e+003,9.610308e-002
5.982356e+003,9.972624e-002
5.986213e+003,9.949615e-002
5.990071e+003,9.827982e-002
5.993928e+003,9.923107e-002
5.997785e+003,1.022796e-001
6.001642e+003,1.017445e-001
6.005499e+003,1.051228e-001
6.009356e+003,1.047291e-001
6.013213e+003,9.723891e-002
6.017070e+003,9.404486e-002
6.020927e+003,9.521863e-002
6.024785e+003,9.575909e-002
6.028642e+003,9.854382e-002
6.032499e+003,9.939658e-002
6.036356e+003,9.727717e-002
6.040213e+003,9.449374e-002
6.044070e+003,9.436064e-002
6.047927e+003,9.779543e-002
6.051784e+003,9.740395e-002
6.055641e+003,9.801058e-002
6.059499e+003,1.020949e-001
6.063355e+003,1.005458e-001
6.067212e+003,9.921788e-002
6.071070e+003,1.001639e-001
6.074927e+003,9.678611e-002
6.078784e+003,9.971790e-002
6.082641e+003,1.068051e-001
6.086498e+003,1.070434e-001
6.090355e+003,1.014343e-001
6.094212e+003,9.594473e-002
6.098069e+003,9.539574e-002
6.101926e+003,9.923498e-002
6.105784e+003,1.009803e-001
6.109641e+003,1.001553e-001
6.113498e+003,1.015678e-001
6.117355e+003,1.035493e-001
6.121212e+003,9.862784e-002
6.125069e+003,9.729897e-002
6.128926e+003,9.786196e-002
6.132783e+003,9.716041e-002
6.136640e+003,9.709150e-002
6.140498e+003,9.807267e-002
6.144354e+003,1.013708e-001
6.148211e+003,1.069082e-001
6.152069e+003,1.066750e-001
6.155926e+003,1.019558e-001
6.159783e+003,9.333318e-002
6.163640e+003,9.601486e-002
6.167497e+003,1.001791e-001
6.171354e+003,1.002122e-001
6.175211e+003,1.004360e-001
6.179068e+003,9.781809e-002
6.182925e+003,9.619854e-002
6.186783e+003,9.685916e-002
6.190640e+003,9.970402e-002
6.194497e+003,1.026098e-001
6.198354e+003,1.021783e-001
6.202211e+003,9.784664e-002
6.206068e+003,9.292990e-002
6.209925e+003,9.287101e-002
6.213782e+003,9.561607e-002
6.217639e+003,9.710414e-002
6.221497e+003,1.007176e-001
6.225354e+003,1.026298e-001
6.229210e+003,9.698511e-002
6.233068e+003,9.370040e-002
6.236925e+003,9.562800e-002
6.240782e+003,9.590358e-002
6.244639e+003,9.554996e-002
6.248496e+003,9.397874e-002
6.252353e+003,9.105572e-002
6.256210e+003,9.111527e-002
6.260067e+003,9.378864e-002
6.263924e+003,9.828069e-002
6.267782e+003,9.465708e-002
6.271639e+003,9.222336e-002
6.275496e+003,9.171637e-002
6.279353e+003,9.005643e-002
6.283210e+003,9.431107e-002
6.287067e+003,9.815789e-002
6.290924e+003,9.876218e-002
6.294781e+003,9.637647e-002
6.298638e+003,9.675642e-002
6.302496e+003,1.001322e-001
6.306353e+003,9.677269e-002
6.310209e+003,9.048055e-002
6.314067e+003,9.334065e-002
6.317924e+003,9.199058e-002
6.321781e+003,8.944797e-002
6.325638e+003,9.099603e-002
6.329495e+003,9.280758e-002
6.333352e+003,9.700818e-002
6.337209e+003,9.662524e-002
6.341066e+003,8.900004e-002
6.344923e+003,8.544304e-002
6.348780e+003,9.048459e-002
6.352638e+003,9.740971e-002
6.356495e+003,9.804476e-002
6.360352e+003,9.879795e-002
6.364209e+003,9.991717e-002
6.368066e+003,9.740590e-002
6.371923e+003,9.614603e-002
6.375780e+003,9.972987e-002
6.379637e+003,9.627997e-002
6.383494e+003,9.269944e-002
6.387352e+003,9.298551e-002
6.391208e+003,9.792916e-002
6.395065e+003,9.572931e-002
6.398923e+003,9.424915e-002
6.402780e+003,9.692944e-002
6.406637e+003,9.281939e-002
6.410494e+003,9.676979e-002
6.414351e+003,9.500213e-002
6.418208e+003,9.117061e-002
6.422065e+003,9.063426e-002
6.425922e+003,9.067971e-002
6.429779e+003,9.427871e-002
6.433637e+003,1.008901e-001
6.437494e+003,1.061753e-001
6.441351e+003,1.082930e-001
6.445208e+003,1.018385e-001
6.449065e+003,9.844746e-002
6.452922e+003,9.651338e-002
6.456779e+003,9.751853e-002
6.460636e+003,9.420494e-002
6.464493e+003,8.949015e-002
6.468351e+003,9.046426e-002
6.472208e+003,8.958523e-002
6.476064e+003,9.375122e-002
6.479922e+003,9.762431e-002
6.483779e+003,9.609200e-002
6.487636e+003,9.673572e-002
6.491493e+003,9.700520e-002
6.495350e+003,9.524965e-002
6.499207e+003,9.380365e-002
6.503064e+003,9.348182e-002
6.506921e+003,9.102034e-002
6.510778e+003,9.332620e-002
6.514636e+003,9.369880e-002
6.518493e+003,9.073242e-002
6.522350e+003,8.985740e-002
6.526207e+003,9.210308e-002
6.530064e+003,9.666398e-002
6.533921e+003,9.556260e-002
6.537778e+003,9.614640e-002
6.541635e+003,9.673444e-002
6.545492e+003,9.447030e-002
6.549350e+003,9.370480e-002
6.553207e+003,9.468176e-002
6.557063e+003,9.283892e-002
6.560921e+003,9.584263e-002
6.564778e+003,9.932506e-002
6.568635e+003,9.869962e-002
6.572492e+003,9.565955e-002
6.576349e+003,8.856408e-002
6.580206e+003,9.498889e-002
6.584063e+003,1.013616e-001
6.587920e+003,9.954669e-002
6.591777e+003,8.992554e-002
6.595635e+003,8.707092e-002
6.599492e+003,9.102835e-002
6.603349e+003,9.936401e-002
6.607206e+003,9.932481e-002
6.611063e+003,9.233499e-002
6.614920e+003,9.471563e-002
6.618777e+003,1.014977e-001
6.622634e+003,1.002852e-001
6.626491e+003,9.569681e-002
6.630349e+003,8.566549e-002
6.634206e+003,8.567546e-002
6.638063e+003,9.013026e-002
6.641920e+003,9.023063e-002
6.645777e+003,9.249743e-002
6.649634e+003,9.695193e-002
6.653491e+003,1.015942e-001
6.657348e+003,1.054110e-001
6.661205e+003,1.060541e-001
6.665063e+003,1.078955e-001
6.668919e+003,1.085984e-001
6.672776e+003,1.036139e-001
6.676634e+003,9.902750e-002
6.680491e+003,1.002331e-001
6.684348e+003,9.555554e-002
6.688205e+003,9.532183e-002
6.692062e+003,9.984998e-002
6.695919e+003,1.008018e-001
6.699776e+003,9.975313e-002
6.703633e+003,9.516615e-002
6.707490e+003,9.578971e-002
6.711348e+003,1.010545e-001
6.715205e+003,1.021586e-001
6.719062e+003,9.848449e-002
6.722919e+003,9.791850e-002
6.726776e+003,9.467335e-002
6.730633e+003,8.929268e-002
6.734490e+003,9.426595e-002
6.738347e+003,1.031843e-001
6.742204e+003,1.003607e-001
6.746062e+003,1.053668e-001
6.749918e+003,1.086462e-001
6.753775e+003,1.041060e-001
6.757633e+003,1.045830e-001
6.761490e+003,1.041226e-001
6.765347e+003,9.945595e-002
6.769204e+003,1.046824e-001
6.773061e+003,1.009644e-001
6.776918e+003,9.532211e-002
6.780775e+003,9.651300e-002
6.784632e+003,9.932382e-002
6.788489e+003,1.040843e-001
6.792347e+003,1.036527e-001
6.796204e+003,1.037734e-001
6.800061e+003,1.139525e-001
6.803918e+003,1.115980e-001
6.807775e+003,1.034627e-001
6.811632e+003,1.011449e-001
6.815489e+003,1.028212e-001
6.819346e+003,1.038559e-001
6.823203e+003,1.002024e-001
6.827061e+003,9.459705e-002
6.830917e+003,1.010306e-001
6.834774e+003,1.054706e-001
6.838632e+003,1.051810e-001
6.842489e+003,1.044939e-001
6.846346e+003,1.017997e-001
6.850203e+003,1.041280e-001
6.854060e+003,1.104266e-001
6.857917e+003,1.042370e-001
6.861774e+003,1.045521e-001
6.865631e+003,1.181128e-001
6.869488e+003,1.117614e-001
6.873346e+003,1.001724e-001
6.877203e+003,9.842792e-002
6.881060e+003,1.013061e-001
6.884917e+003,1.107971e-001
6.888774e+003,1.078118e-001
6.892631e+003,9.643865e-002
6.896488e+003,1.089288e-001
6.900345e+003,1.163763e-001
6.904202e+003,1.091231e-001
6.908060e+003,1.085140e-001
6.911917e+003,1.043941e-001
6.915773e+003,1.036637e-001
6.919631e+003,1.041116e-001
6.923488e+003,1.010396e-001
6.927345e+003,9.865911e-002
6.931202e+003,1.105798e-001
6.935059e+003,1.255680e-001
6.938916e+003,1.235663e-001
6.942773e+003,1.120391e-001
6.946630e+003,1.146647e-001
6.950487e+003,1.136421e-001
6.954345e+003,1.138543e-001
6.958202e+003,1.177897e-001
6.962059e+003,1.192914e-001
6.965916e+003,1.112210e-001
6.969773e+003,1.116475e-001
6.973630e+003,1.164058e-001
6.977487e+003,1.165704e-001
6.981344e+003,1.255088e-001
6.985201e+003,1.346364e-001
6.989059e+003,1.270658e-001
6.992916e+003,1.087162e-001
6.996772e+003,1.098476e-001
7.000630e+003,1.233011e-001
7.004487e+003,1.251640e-001
7.008344e+003,1.176097e-001
7.012201e+003,1.129018e-001
7.016058e+003,1.114429e-001
7.019915e+003,1.175018e-001
7.023772e+003,1.178456e-001
7.027629e+003,1.122628e-001
7.031486e+003,1.103071e-001
7.035344e+003,1.137877e-001
7.039201e+003,1.225336e-001
7.043058e+003,1.190608e-001
7.046915e+003,1.157101e-001
7.050772e+003,1.164157e-001
7.054629e+003,1.064806e-001
7.058486e+003,1.043113e-001
7.062343e+003,1.121574e-001
7.066200e+003,1.213942e-001
7.070058e+003,1.192429e-001
7.073915e+003,1.078415e-001
7.077771e+003,1.063767e-001
7.081629e+003,1.148650e-001
7.085486e+003,1.171186e-001
7.089343e+003,1.145727e-001
7.093200e+003,1.149268e-001
7.097057e+003,1.145560e-001
7.100914e+003,1.035617e-001
7.104771e+003,9.935868e-002
7.108628e+003,1.071469e-001
7.112485e+003,1.053916e-001
7.116343e+003,1.113497e-001
7.120200e+003,1.223240e-001
7.124057e+003,1.293053e-001
7.127914e+003,1.343260e-001
7.131771e+003,1.345888e-001
7.135628e+003,1.191235e-001
7.139485e+003,1.159577e-001
7.143342e+003,1.371583e-001
7.147199e+003,1.370641e-001
7.151057e+003,1.260297e-001
7.154914e+003,1.244154e-001
7.158771e+003,1.276888e-001
7.162628e+003,1.239467e-001
7.166485e+003,1.190055e-001
7.170342e+003,1.163970e-001
7.174199e+003,1.089751e-001
7.178056e+003,1.091238e-001
7.181913e+003,1.085829e-001
7.185771e+003,1.167931e-001
7.189627e+003,1.274640e-001
7.193484e+003,1.278338e-001
7.197342e+003,1.356125e-001
7.201199e+003,1.339192e-001
7.205056e+003,1.195432e-001
7.208913e+003,1.203741e-001
7.212770e+003,1.233091e-001
7.216627e+003,1.266405e-001
7.220484e+003,1.268713e-001
7.224341e+003,1.233494e-001
7.228198e+003,1.352775e-001
7.232056e+003,1.274902e-001
7.235913e+003,1.142344e-001
7.239770e+003,1.231297e-001
7.243627e+003,1.412186e-001
7.247484e+003,1.362099e-001
7.251341e+003,1.216500e-001
7.255198e+003,1.035327e-001
7.259055e+003,1.089569e-001
7.262912e+003,1.250480e-001
7.266770e+003,1.285071e-001
7.270626e+003,1.265272e-001
7.274483e+003,1.296923e-001
7.278341e+003,1.355061e-001
7.282198e+003,1.276524e-001
7.286055e+003,1.306510e-001
7.289912e+003,1.419507e-001
7.293769e+003,1.451431e-001
7.297626e+003,1.377990e-001
7.301483e+003,1.264012e-001
7.305340e+003,1.180497e-001
7.309197e+003,1.239805e-001
7.313055e+003,1.430062e-001
7.316912e+003,1.522907e-001
7.320769e+003,1.421261e-001
7.324626e+003,1.320437e-001
7.328483e+003,1.249415e-001
7.332340e+003,1.271862e-001
7.336197e+003,1.466426e-001
7.340054e+003,1.517126e-001
7.343911e+003,1.403546e-001
7.347769e+003,1.461078e-001
7.351625e+003,1.424606e-001
7.355482e+003,1.306883e-001
7.359340e+003,1.248744e-001
7.363197e+003,1.154312e-001
7.367054e+003,1.132457e-001
7.370911e+003,1.248662e-001
7.374768e+003,1.320312e-001
7.378625e+003,1.350014e-001
7.382482e+003,1.369077e-001
7.386339e+003,1.280188e-001
7.390196e+003,1.384276e-001
7.394054e+003,1.379265e-001
7.397911e+003,1.247252e-001
7.401768e+003,1.182084e-001
7.405625e+003,1.136460e-001
7.409482e+003,1.105480e-001
7.413339e+003,1.115968e-001
7.417196e+003,1.200591e-001
7.421053e+003,1.102663e-001
7.424910e+003,1.040612e-001
7.428768e+003,1.187170e-001
7.432625e+003,1.200715e-001
7.436481e+003,1.139340e-001
7.440339e+003,1.134716e-001
7.444196e+003,1.284973e-001
7.448053e+003,1.440553e-001
7.451910e+003,1.369611e-001
7.455767e+003,1.239560e-001
7.459624e+003,1.287988e-001
7.463481e+003,1.360926e-001
7.467338e+003,1.369136e-001
7.471195e+003,1.426593e-001
7.475053e+003,1.361465e-001
7.478910e+003,1.437514e-001
7.482767e+003,1.371764e-001
7.486624e+003,1.201634e-001
7.490481e+003,1.203172e-001
7.494338e+003,1.323691e-001
7.498195e+003,1.350243e-001
7.502052e+003,1.394299e-001
7.505909e+003,1.402601e-001
7.509767e+003,1.396107e-001
7.513624e+003,1.382321e-001
7.517480e+003,1.282190e-001
7.521338e+003,1.195394e-001
7.525195e+003,1.341813e-001
7.529052e+003,1.265379e-001
7.532909e+003,1.192303e-001
7.536766e+003,1.341752e-001
7.540623e+003,1.282686e-001
7.544480e+003,1.349929e-001
7.548337e+003,1.269945e-001
7.552194e+003,1.237035e-001
7.556052e+003,1.257120e-001
7.559909e+003,1.214350e-001
7.563766e+003,1.249558e-001
7.567623e+003,1.473765e-001
7.571480e+003,1.492778e-001
7.575337e+003,1.389303e-001
7.579194e+003,1.411747e-001
7.583051e+003,1.426034e-001
7.586908e+003,1.326434e-001
7.590766e+003,1.326723e-001
7.594623e+003,1.269375e-001
7.598479e+003,1.473528e-001
7.602337e+003,1.600408e-001
7.606194e+003,1.486847e-001
7.610051e+003,1.418318e-001
7.613908e+003,1.341482e-001
7.617765e+003,1.343193e-001
7.621622e+003,1.446197e-001
7.625479e+003,1.399822e-001
7.629336e+003,1.389326e-001
7.633193e+003,1.257653e-001
7.637051e+003,1.277840e-001
7.640908e+003,1.236754e-001
7.644765e+003,1.365717e-001
7.648622e+003,1.469130e-001
7.652479e+003,1.335790e-001
7.656336e+003,1.263580e-001
7.660193e+003,1.271608e-001
7.664050e+003,1.490355e-001
7.667907e+003,1.692726e-001
7.671765e+003,1.843633e-001
7.675622e+003,1.827369e-001
7.679479e+003,1.849447e-001
7.683336e+003,1.835173e-001
7.687193e+003,1.715645e-001
7.691050e+003,1.663992e-001
7.694907e+003,1.518845e-001
7.698764e+003,1.332152e-001
7.702621e+003,1.093927e-001
7.706479e+003,1.136449e-001
7.710335e+003,1.420988e-001
7.714192e+003,1.873359e-001
7.718050e+003,1.959668e-001
7.721907e+003,1.732473e-001
7.725764e+003,1.668712e-001
7.729621e+003,1.746411e-001
7.733478e+003,1.737943e-001
7.737335e+003,1.631413e-001
7.741192e+003,1.561210e-001
7.745049e+003,1.674211e-001
7.748906e+003,1.561862e-001
7.752764e+003,1.459836e-001
7.756621e+003,1.482728e-001
7.760478e+003,1.533113e-001
7.764335e+003,1.507156e-001
7.768192e+003,1.410023e-001
7.772049e+003,1.492543e-001
7.775906e+003,1.492092e-001
7.779763e+003,1.404277e-001
7.783620e+003,1.388069e-001
7.787478e+003,1.405144e-001
7.791334e+003,1.702949e-001
7.795191e+003,1.870240e-001
7.799049e+003,1.598715e-001
7.802906e+003,1.309351e-001
7.806763e+003,1.427652e-001
7.810620e+003,1.502222e-001
7.814477e+003,1.512272e-001
7.818334e+003,1.272649e-001
7.822191e+003,1.175586e-001
7.826048e+003,1.565772e-001
7.829905e+003,1.953524e-001
7.833763e+003,1.669205e-001
7.837620e+003,1.475818e-001
7.841477e+003,1.499746e-001
7.845334e+003,1.514627e-001
7.849191e+003,1.554972e-001
7.853048e+003,1.554518e-001
7.856905e+003,1.611888e-001
7.860762e+003,1.495591e-001
7.864619e+003,1.438408e-001
7.868477e+003,1.540944e-001
7.872333e+003,1.472067e-001
7.876190e+003,1.543525e-001
7.880048e+003,1.931467e-001
7.883905e+003,2.014098e-001
7.887762e+003,1.622975e-001
7.891619e+003,1.523071e-001
7.895476e+003,1.591513e-001
7.899333e+003,1.425801e-001
7.903190e+003,1.482597e-001
7.907047e+003,1.329076e-001
7.910904e+003,1.308271e-001
7.914762e+003,1.326403e-001
7.918619e+003,1.379962e-001
7.922476e+003,1.274797e-001
7.926333e+003,9.966051e-002
7.930190e+003,1.009066e-001
7.934047e+003,1.406990e-001
7.937904e+003,1.594077e-001
7.941761e+003,1.343499e-001
7.945618e+003,1.029464e-001
7.949476e+003,1.133674e-001
7.953333e+003,1.794293e-001
7.957189e+003,2.420521e-001
7.961047e+003,2.520036e-001
7.964904e+003,2.489966e-001
7.968761e+003,2.223723e-001
7.972618e+003,1.914792e-001
7.976475e+003,1.916813e-001
7.980332e+003,1.984530e-001
7.984189e+003,1.691482e-001
7.988046e+003,1.578800e-001
7.991903e+003,1.696481e-001
7.995761e+003,1.629566e-001
7.999618e+003,1.472368e-001
