4.011380e+002,6.000000e+000
4.049951e+002,6.000000e+000
4.088522e+002,6.000000e+000
4.127093e+002,6.000000e+000
4.165664e+002,-1.898756e-001
4.204235e+002,3.944727e-001
4.242806e+002,3.636459e-001
4.281377e+002,6.000000e+000
4.319948e+002,6.894862e-001
4.358519e+002,9.883607e-003
4.397090e+002,6.000000e+000
4.435661e+002,6.000000e+000
4.474232e+002,6.828119e-001
4.512803e+002,9.167520e-002
4.551374e+002,8.565933e-001
4.589945e+002,6.000000e+000
4.628516e+002,6.000000e+000
4.667087e+002,1.528817e-001
4.705658e+002,2.267281e-001
4.744229e+002,6.000000e+000
4.782800e+002,6.000000e+000
4.821371e+002,6.000000e+000
4.859941e+002,6.000000e+000
4.898513e+002,6.000000e+000
4.937083e+002,6.000000e+000
4.975654e+002,1.101000e-001
5.014225e+002,-1.363709e-001
5.052796e+002,-1.033171e+000
5.091367e+002,6.000000e+000
5.129938e+002,6.000000e+000
5.168509e+002,-4.365833e-001
5.207080e+002,6.000000e+000
5.245651e+002,1.490837e+000
5.284222e+002,7.747004e-002
5.322793e+002,-1.620005e-001
5.361364e+002,2.291502e-001
5.399935e+002,5.648938e-001
5.438506e+002,2.614536e-001
5.477077e+002,-5.874335e-001
5.515648e+002,6.000000e+000
5.554219e+002,6.000000e+000
5.592790e+002,6.000000e+000
5.631361e+002,6.000000e+000
5.669932e+002,6.000000e+000
5.708503e+002,6.000000e+000
5.747074e+002,6.000000e+000
5.785645e+002,-7.181002e-001
5.824216e+002,-2.345020e-001
5.862787e+002,-8.073961e-001
5.901357e+002,-3.229173e-001
5.939929e+002,-3.872820e-001
5.978499e+002,-4.167902e-001
6.017070e+002,6.000000e+000
6.055641e+002,6.000000e+000
6.094212e+002,1.179263e-001
6.132783e+002,6.000000e+000
6.171354e+002,6.000000e+000
6.209925e+002,6.000000e+000
6.248496e+002,6.000000e+000
6.287067e+002,6.000000e+000
6.325638e+002,6.000000e+000
6.364209e+002,1.902390e-001
6.402780e+002,7.129700e-002
6.441351e+002,6.000000e+000
6.479922e+002,4.238213e-002
6.518493e+002,-6.524762e-001
6.557064e+002,6.000000e+000
6.595635e+002,6.000000e+000
6.634205e+002,6.000000e+000
6.672777e+002,6.000000e+000
6.711348e+002,6.000000e+000
6.749918e+002,6.000000e+000
6.788490e+002,-5.644575e-001
6.827061e+002,5.846422e-001
6.865631e+002,6.000000e+000
6.904203e+002,6.000000e+000
6.942773e+002,6.000000e+000
6.981344e+002,-9.867237e-001
7.019916e+002,-4.993571e-001
7.058486e+002,6.000000e+000
7.097057e+002,6.000000e+000
7.135629e+002,6.000000e+000
7.174199e+002,6.000000e+000
7.212770e+002,6.000000e+000
7.251342e+002,-9.777334e-002
7.289912e+002,6.000000e+000
7.328483e+002,6.000000e+000
7.367054e+002,6.000000e+000
7.405625e+002,6.000000e+000
7.444196e+002,6.000000e+000
7.482767e+002,6.000000e+000
7.521338e+002,6.000000e+000
7.559908e+002,-2.225454e-001
7.598480e+002,1.217948e+000
7.637051e+002,6.000000e+000
7.675621e+002,2.359140e-002
7.714193e+002,7.941505e-001
7.752764e+002,7.622824e-002
7.791334e+002,1.464820e-001
7.829905e+002,-3.803495e-002
7.868477e+002,6.000000e+000
7.907047e+002,1.261524e-002
7.945618e+002,6.000000e+000
7.984189e+002,-1.020581e-001
8.022760e+002,6.000000e+000
8.061331e+002,6.000000e+000
8.099902e+002,6.000000e+000
8.138473e+002,-7.070571e-001
8.177044e+002,6.000000e+000
8.215615e+002,6.000000e+000
8.254186e+002,6.000000e+000
8.292757e+002,5.745462e-001
8.331328e+002,5.633193e-001
8.369899e+002,9.626514e-001
8.408470e+002,8.442494e-001
8.447041e+002,6.000000e+000
8.485612e+002,6.000000e+000
8.524183e+002,6.000000e+000
8.562754e+002,6.000000e+000
8.601324e+002,6.000000e+000
8.639896e+002,1.887185e+000
8.678467e+002,1.128377e+000
8.717037e+002,1.471375e+000
8.755609e+002,6.000000e+000
8.794180e+002,6.000000e+000
8.832750e+002,2.087548e+000
8.871321e+002,2.058537e+000
8.909893e+002,1.753338e+000
8.948463e+002,1.239285e+000
8.987034e+002,1.580421e+000
9.025605e+002,1.645066e+000
9.064176e+002,1.216415e+000
9.102747e+002,1.324734e+000
9.141318e+002,1.679341e+000
9.179889e+002,1.904418e+000
9.218461e+002,2.666239e+000
9.257031e+002,6.000000e+000
9.295602e+002,2.393073e+000
9.334174e+002,6.000000e+000
9.372744e+002,2.321716e+000
9.411315e+002,2.294793e+000
9.449886e+002,6.000000e+000
9.488457e+002,6.000000e+000
9.527028e+002,2.707819e+000
9.565599e+002,6.000000e+000
9.604170e+002,6.000000e+000
9.642740e+002,6.000000e+000
9.681312e+002,6.000000e+000
9.719883e+002,6.000000e+000
9.758453e+002,6.000000e+000
9.797025e+002,6.000000e+000
9.835596e+002,6.000000e+000
9.874166e+002,6.000000e+000
9.912738e+002,6.000000e+000
9.951309e+002,3.315946e+000
9.989879e+002,3.089663e+000
1.002845e+003,2.451098e+000
1.006702e+003,2.529084e+000
1.010559e+003,2.454419e+000
1.014416e+003,2.882334e+000
1.018273e+003,2.969188e+000
1.022130e+003,2.540721e+000
1.025988e+003,2.606406e+000
1.029845e+003,2.140946e+000
1.033702e+003,2.186094e+000
1.037559e+003,2.149832e+000
1.041416e+003,1.973685e+000
1.045273e+003,2.024238e+000
1.049130e+003,2.109864e+000
1.052987e+003,2.067157e+000
1.056844e+003,1.927927e+000
1.060702e+003,1.970481e+000
1.064559e+003,2.399785e+000
1.068416e+003,2.141589e+000
1.072273e+003,1.911555e+000
1.076130e+003,1.934349e+000
1.079987e+003,2.071507e+000
1.083844e+003,2.081601e+000
1.087701e+003,1.926545e+000
1.091558e+003,2.014603e+000
1.095415e+003,2.065185e+000
1.099272e+003,1.923273e+000
1.103130e+003,1.860477e+000
1.106987e+003,1.764251e+000
1.110844e+003,1.758707e+000
1.114701e+003,1.868944e+000
1.118558e+003,1.861370e+000
1.122415e+003,1.838873e+000
1.126272e+003,1.865483e+000
1.130129e+003,1.839228e+000
1.133986e+003,1.844114e+000
1.137843e+003,1.765690e+000
1.141701e+003,1.688701e+000
1.145558e+003,1.667347e+000
1.149415e+003,1.650268e+000
1.153272e+003,1.690627e+000
1.157129e+003,1.672968e+000
1.160986e+003,1.627168e+000
1.164843e+003,1.652822e+000
1.168700e+003,1.629289e+000
1.172557e+003,1.666094e+000
1.176414e+003,1.674516e+000
1.180271e+003,1.654824e+000
1.184129e+003,1.619230e+000
1.187986e+003,1.602479e+000
1.191843e+003,1.615003e+000
1.195700e+003,1.606819e+000
1.199557e+003,1.577760e+000
1.203414e+003,1.591649e+000
1.207271e+003,1.637776e+000
1.211128e+003,1.591228e+000
1.214985e+003,1.550296e+000
1.218842e+003,1.514782e+000
1.222699e+003,1.388707e+000
1.226557e+003,1.296145e+000
1.230414e+003,1.227975e+000
1.234271e+003,1.147284e+000
1.238128e+003,1.072908e+000
1.241985e+003,1.006873e+000
1.245842e+003,9.609103e-001
1.249699e+003,9.239795e-001
1.253556e+003,8.875223e-001
1.257413e+003,8.436403e-001
1.261271e+003,8.062963e-001
1.265128e+003,7.745836e-001
1.268985e+003,7.528697e-001
1.272842e+003,7.369424e-001
1.276699e+003,7.102511e-001
1.280556e+003,6.868579e-001
1.284413e+003,6.684713e-001
1.288270e+003,6.511105e-001
1.292127e+003,6.387579e-001
1.295984e+003,6.261445e-001
1.299841e+003,6.135282e-001
1.303698e+003,5.974258e-001
1.307556e+003,5.797820e-001
1.311413e+003,5.693165e-001
1.315270e+003,5.644990e-001
1.319127e+003,5.562860e-001
1.322984e+003,5.454449e-001
1.326841e+003,5.388765e-001
1.330698e+003,5.323327e-001
1.334555e+003,5.290281e-001
1.338412e+003,5.255170e-001
1.342270e+003,5.197950e-001
1.346127e+003,5.156620e-001
1.349984e+003,5.151665e-001
1.353841e+003,5.167273e-001
1.357698e+003,5.177930e-001
1.361555e+003,5.209071e-001
1.365412e+003,5.306596e-001
1.369269e+003,5.383332e-001
1.373126e+003,5.421076e-001
1.376983e+003,5.500551e-001
1.380840e+003,5.630559e-001
1.384698e+003,5.759398e-001
1.388555e+003,5.912911e-001
1.392412e+003,6.068122e-001
1.396269e+003,6.254163e-001
1.400126e+003,6.471768e-001
1.403983e+003,6.685079e-001
1.407840e+003,6.833442e-001
1.411697e+003,6.975525e-001
1.415554e+003,7.128532e-001
1.419411e+003,7.300293e-001
1.423269e+003,7.426030e-001
1.427126e+003,7.596111e-001
1.430983e+003,7.673982e-001
1.434840e+003,7.624778e-001
1.438697e+003,7.607828e-001
1.442554e+003,7.539229e-001
1.446411e+003,7.421177e-001
1.450268e+003,7.267694e-001
1.454125e+003,7.132991e-001
1.457982e+003,7.093485e-001
1.461839e+003,7.037709e-001
1.465697e+003,6.905109e-001
1.469554e+003,6.821805e-001
1.473411e+003,6.830090e-001
1.477268e+003,6.899117e-001
1.481125e+003,6.986955e-001
1.484982e+003,7.068120e-001
1.488839e+003,7.172353e-001
1.492696e+003,7.291471e-001
1.496553e+003,7.432140e-001
1.500411e+003,7.619509e-001
1.504268e+003,7.774826e-001
1.508125e+003,7.824859e-001
1.511982e+003,7.834702e-001
1.515839e+003,7.760651e-001
1.519696e+003,7.631683e-001
1.523553e+003,7.571269e-001
1.527410e+003,7.505182e-001
1.531267e+003,7.377464e-001
1.535124e+003,7.212841e-001
1.538981e+003,7.055954e-001
1.542839e+003,6.870682e-001
1.546696e+003,6.670597e-001
1.550553e+003,6.474550e-001
1.554410e+003,6.365147e-001
1.558267e+003,6.186957e-001
1.562124e+003,6.007980e-001
1.565981e+003,5.916620e-001
1.569838e+003,5.815073e-001
1.573695e+003,5.746039e-001
1.577552e+003,5.698013e-001
1.581410e+003,5.661097e-001
1.585267e+003,5.632529e-001
1.589124e+003,5.664292e-001
1.592981e+003,5.749147e-001
1.596838e+003,5.835306e-001
1.600695e+003,5.985066e-001
1.604552e+003,6.159042e-001
1.608409e+003,6.353630e-001
1.612266e+003,6.660227e-001
1.616123e+003,7.018797e-001
1.619980e+003,7.353200e-001
1.623838e+003,7.659084e-001
1.627695e+003,7.962828e-001
1.631552e+003,8.182200e-001
1.635409e+003,8.227650e-001
1.639266e+003,8.213398e-001
1.643123e+003,8.172687e-001
1.646980e+003,8.034013e-001
1.650837e+003,7.853206e-001
1.654694e+003,7.625660e-001
1.658551e+003,7.343482e-001
1.662409e+003,7.016615e-001
1.666266e+003,6.688170e-001
1.670123e+003,6.391102e-001
1.673980e+003,6.111972e-001
1.677837e+003,5.868442e-001
1.681694e+003,5.638132e-001
1.685551e+003,5.439641e-001
1.689408e+003,5.254774e-001
1.693265e+003,5.081775e-001
1.697122e+003,4.929817e-001
1.700979e+003,4.823078e-001
1.704837e+003,4.743838e-001
1.708694e+003,4.672365e-001
1.712551e+003,4.579399e-001
1.716408e+003,4.481486e-001
1.720265e+003,4.445850e-001
1.724122e+003,4.436722e-001
1.727979e+003,4.389045e-001
1.731836e+003,4.348491e-001
1.735693e+003,4.315239e-001
1.739550e+003,4.276294e-001
1.743408e+003,4.242765e-001
1.747265e+003,4.216580e-001
1.751122e+003,4.211642e-001
1.754979e+003,4.208335e-001
1.758836e+003,4.200843e-001
1.762693e+003,4.197560e-001
1.766550e+003,4.187406e-001
1.770407e+003,4.175956e-001
1.774264e+003,4.172176e-001
1.778121e+003,4.158735e-001
1.781979e+003,4.109960e-001
1.785836e+003,4.068207e-001
1.789693e+003,4.062099e-001
1.793550e+003,4.029464e-001
1.797407e+003,3.990361e-001
1.801264e+003,3.970713e-001
1.805121e+003,3.958392e-001
1.808978e+003,3.947039e-001
1.812835e+003,3.926286e-001
1.816692e+003,3.895237e-001
1.820549e+003,3.879160e-001
1.824407e+003,3.876026e-001
1.828264e+003,3.856139e-001
1.832121e+003,3.843182e-001
1.835978e+003,3.848093e-001
1.839835e+003,3.832712e-001
1.843692e+003,3.807861e-001
1.847549e+003,3.789125e-001
1.851406e+003,3.782816e-001
1.855263e+003,3.759773e-001
1.859120e+003,3.742673e-001
1.862978e+003,3.716968e-001
1.866835e+003,3.690319e-001
1.870692e+003,3.675562e-001
1.874549e+003,3.670247e-001
1.878406e+003,3.665840e-001
1.882263e+003,3.671365e-001
1.886120e+003,3.657966e-001
1.889977e+003,3.628390e-001
1.893834e+003,3.604711e-001
1.897691e+003,3.599420e-001
1.901548e+003,3.616267e-001
1.905406e+003,3.614522e-001
1.909263e+003,3.593524e-001
1.913120e+003,3.581811e-001
1.916977e+003,3.556202e-001
1.920834e+003,3.556026e-001
1.924691e+003,3.555524e-001
1.928548e+003,3.518601e-001
1.932405e+003,3.484796e-001
1.936262e+003,3.459849e-001
1.940119e+003,3.429217e-001
1.943977e+003,3.424757e-001
1.947834e+003,3.422447e-001
1.951691e+003,3.405626e-001
1.955548e+003,3.393486e-001
1.959405e+003,3.393446e-001
1.963262e+003,3.374865e-001
1.967119e+003,3.364877e-001
1.970976e+003,3.369890e-001
1.974833e+003,3.363353e-001
1.978690e+003,3.340381e-001
1.982547e+003,3.323613e-001
1.986405e+003,3.309883e-001
1.990262e+003,3.292848e-001
1.994119e+003,3.265138e-001
1.997976e+003,3.257795e-001
2.001833e+003,3.271100e-001
2.005690e+003,3.257942e-001
2.009547e+003,3.246376e-001
2.013404e+003,3.237852e-001
2.017261e+003,3.207401e-001
2.021118e+003,3.196106e-001
2.024976e+003,3.207600e-001
2.028833e+003,3.199831e-001
2.032690e+003,3.181740e-001
2.036547e+003,3.176901e-001
2.040404e+003,3.164034e-001
2.044261e+003,3.145734e-001
2.048118e+003,3.134437e-001
2.051975e+003,3.118524e-001
2.055832e+003,3.107364e-001
2.059689e+003,3.107885e-001
2.063546e+003,3.090306e-001
2.067404e+003,3.065547e-001
2.071261e+003,3.070177e-001
2.075118e+003,3.064503e-001
2.078975e+003,3.039901e-001
2.082832e+003,3.019530e-001
2.086689e+003,3.022027e-001
2.090546e+003,3.028029e-001
2.094403e+003,3.029359e-001
2.098260e+003,3.025517e-001
2.102117e+003,3.027081e-001
2.105975e+003,3.025760e-001
2.109832e+003,3.035237e-001
2.113689e+003,3.051169e-001
2.117546e+003,3.040182e-001
2.121403e+003,3.020203e-001
2.125260e+003,3.011307e-001
2.129117e+003,3.021542e-001
2.132974e+003,3.037389e-001
2.136831e+003,3.025253e-001
2.140688e+003,3.004025e-001
2.144545e+003,2.990842e-001
2.148403e+003,2.983394e-001
2.152260e+003,3.007707e-001
2.156117e+003,3.023492e-001
2.159974e+003,3.015307e-001
2.163831e+003,3.018014e-001
2.167688e+003,3.030381e-001
2.171545e+003,3.042780e-001
2.175402e+003,3.049763e-001
2.179259e+003,3.058983e-001
2.183116e+003,3.071806e-001
2.186974e+003,3.086210e-001
2.190831e+003,3.095655e-001
2.194688e+003,3.089417e-001
2.198545e+003,3.070601e-001
2.202402e+003,3.061075e-001
2.206259e+003,3.063792e-001
2.210116e+003,3.067141e-001
2.213973e+003,3.059255e-001
2.217830e+003,3.053021e-001
2.221688e+003,3.080980e-001
2.225544e+003,3.100233e-001
2.229402e+003,3.110717e-001
2.233259e+003,3.124401e-001
2.237116e+003,3.152575e-001
2.240973e+003,3.181390e-001
2.244830e+003,3.204289e-001
2.248687e+003,3.205539e-001
2.252544e+003,3.215444e-001
2.256401e+003,3.216837e-001
2.260258e+003,3.233250e-001
2.264115e+003,3.228924e-001
2.267973e+003,3.213613e-001
2.271830e+003,3.212617e-001
2.275687e+003,3.226778e-001
2.279544e+003,3.227082e-001
2.283401e+003,3.215129e-001
2.287258e+003,3.220190e-001
2.291115e+003,3.255356e-001
2.294972e+003,3.271374e-001
2.298829e+003,3.264108e-001
2.302687e+003,3.280435e-001
2.306543e+003,3.306675e-001
2.310401e+003,3.307014e-001
2.314258e+003,3.309369e-001
2.318115e+003,3.323629e-001
2.321972e+003,3.340768e-001
2.325829e+003,3.375445e-001
2.329686e+003,3.376343e-001
2.333543e+003,3.352465e-001
2.337400e+003,3.364799e-001
2.341257e+003,3.377122e-001
2.345115e+003,3.365698e-001
2.348972e+003,3.349908e-001
2.352829e+003,3.345279e-001
2.356686e+003,3.378644e-001
2.360543e+003,3.398196e-001
2.364400e+003,3.386396e-001
2.368257e+003,3.383614e-001
2.372114e+003,3.406160e-001
2.375971e+003,3.399362e-001
2.379828e+003,3.385276e-001
2.383686e+003,3.387182e-001
2.387542e+003,3.403616e-001
2.391400e+003,3.399134e-001
2.395257e+003,3.374867e-001
2.399114e+003,3.352449e-001
2.402971e+003,3.343222e-001
2.406828e+003,3.338037e-001
2.410685e+003,3.338329e-001
2.414542e+003,3.326769e-001
2.418399e+003,3.318197e-001
2.422256e+003,3.306123e-001
2.426114e+003,3.286137e-001
2.429971e+003,3.280382e-001
2.433828e+003,3.296033e-001
2.437685e+003,3.298630e-001
2.441542e+003,3.290196e-001
2.445399e+003,3.311355e-001
2.449256e+003,3.323994e-001
2.453113e+003,3.319123e-001
2.456970e+003,3.320937e-001
2.460827e+003,3.306540e-001
2.464684e+003,3.289129e-001
2.468542e+003,3.288780e-001
2.472399e+003,3.280489e-001
2.476256e+003,3.262306e-001
2.480113e+003,3.244919e-001
2.483970e+003,3.238917e-001
2.487827e+003,3.229323e-001
2.491684e+003,3.238032e-001
2.495541e+003,3.234923e-001
2.499398e+003,3.222758e-001
2.503255e+003,3.252730e-001
2.507113e+003,3.278504e-001
2.510969e+003,3.291268e-001
2.514827e+003,3.291730e-001
2.518684e+003,3.314959e-001
2.522541e+003,3.340320e-001
2.526398e+003,3.350605e-001
2.530255e+003,3.352222e-001
2.534112e+003,3.332463e-001
2.537969e+003,3.313860e-001
2.541826e+003,3.310348e-001
2.545683e+003,3.327079e-001
2.549541e+003,3.334152e-001
2.553398e+003,3.357117e-001
2.557255e+003,3.371476e-001
2.561112e+003,3.378022e-001
2.564969e+003,3.393258e-001
2.568826e+003,3.430147e-001
2.572683e+003,3.453333e-001
2.576540e+003,3.465488e-001
2.580397e+003,3.507399e-001
2.584254e+003,3.542010e-001
2.588112e+003,3.552415e-001
2.591969e+003,3.592202e-001
2.595826e+003,3.625053e-001
2.599683e+003,3.647825e-001
2.603540e+003,3.655915e-001
2.607397e+003,3.667939e-001
2.611254e+003,3.674053e-001
2.615111e+003,3.695461e-001
2.618968e+003,3.737538e-001
2.622825e+003,3.746193e-001
2.626682e+003,3.746485e-001
2.630540e+003,3.774534e-001
2.634397e+003,3.816522e-001
2.638254e+003,3.870943e-001
2.642111e+003,3.932038e-001
2.645968e+003,3.982049e-001
2.649825e+003,4.021974e-001
2.653682e+003,4.068755e-001
2.657539e+003,4.104255e-001
2.661396e+003,4.118425e-001
2.665253e+003,4.149918e-001
2.669111e+003,4.200725e-001
2.672968e+003,4.206115e-001
2.676825e+003,4.195067e-001
2.680682e+003,4.231074e-001
2.684539e+003,4.265370e-001
2.688396e+003,4.277693e-001
2.692253e+003,4.318871e-001
2.696110e+003,4.363766e-001
2.699967e+003,4.409679e-001
2.703824e+003,4.476390e-001
2.707681e+003,4.532990e-001
2.711539e+003,4.587390e-001
2.715396e+003,4.644145e-001
2.719253e+003,4.658563e-001
2.723110e+003,4.687643e-001
2.726967e+003,4.736587e-001
2.730824e+003,4.781207e-001
2.734681e+003,4.827968e-001
2.738538e+003,4.869550e-001
2.742395e+003,4.912276e-001
2.746252e+003,4.958894e-001
2.750110e+003,5.006054e-001
2.753967e+003,5.049422e-001
2.757824e+003,5.075070e-001
2.761681e+003,5.108281e-001
2.765538e+003,5.156978e-001
2.769395e+003,5.214350e-001
2.773252e+003,5.279604e-001
2.777109e+003,5.325300e-001
2.780966e+003,5.379493e-001
2.784823e+003,5.447322e-001
2.788680e+003,5.512386e-001
2.792538e+003,5.576976e-001
2.796395e+003,5.619644e-001
2.800252e+003,5.608880e-001
2.804109e+003,5.621421e-001
2.807966e+003,5.674526e-001
2.811823e+003,5.753400e-001
2.815680e+003,5.810999e-001
2.819537e+003,5.856119e-001
2.823394e+003,5.883827e-001
2.827251e+003,5.957879e-001
2.831109e+003,6.045197e-001
2.834966e+003,6.102365e-001
2.838823e+003,6.168249e-001
2.842680e+003,6.241534e-001
2.846537e+003,6.342788e-001
2.850394e+003,6.412013e-001
2.854251e+003,6.443613e-001
2.858108e+003,6.499840e-001
2.861965e+003,6.547852e-001
2.865823e+003,6.592155e-001
2.869679e+003,6.652494e-001
2.873537e+003,6.722226e-001
2.877394e+003,6.761248e-001
2.881251e+003,6.788703e-001
2.885108e+003,6.838473e-001
2.888965e+003,6.932428e-001
2.892822e+003,7.007126e-001
2.896679e+003,7.086153e-001
2.900536e+003,7.131350e-001
2.904393e+003,7.186731e-001
2.908250e+003,7.271632e-001
2.912108e+003,7.387569e-001
2.915965e+003,7.514516e-001
2.919822e+003,7.586890e-001
2.923679e+003,7.618439e-001
2.927536e+003,7.687470e-001
2.931393e+003,7.704473e-001
2.935250e+003,7.735458e-001
2.939107e+003,7.818419e-001
2.942964e+003,7.921569e-001
2.946822e+003,8.021280e-001
2.950678e+003,8.041161e-001
2.954536e+003,8.075994e-001
2.958393e+003,8.114052e-001
2.962250e+003,8.085064e-001
2.966107e+003,8.167543e-001
2.969964e+003,8.302795e-001
2.973821e+003,8.393473e-001
2.977678e+003,8.475135e-001
2.981535e+003,8.523276e-001
2.985392e+003,8.551719e-001
2.989250e+003,8.653417e-001
2.993107e+003,8.781960e-001
2.996964e+003,8.844162e-001
3.000821e+003,8.936414e-001
3.004678e+003,9.050581e-001
3.008535e+003,9.092299e-001
3.012392e+003,9.114275e-001
3.016249e+003,9.145960e-001
3.020106e+003,9.173899e-001
3.023963e+003,9.240658e-001
3.027821e+003,9.320394e-001
3.031677e+003,9.372488e-001
3.035535e+003,9.479272e-001
3.039392e+003,9.625000e-001
3.043249e+003,9.741991e-001
3.047106e+003,9.767264e-001
3.050963e+003,9.774327e-001
3.054820e+003,9.804854e-001
3.058677e+003,9.950073e-001
3.062534e+003,1.010558e+000
3.066391e+003,1.019579e+000
3.070249e+003,1.026131e+000
3.074106e+003,1.029771e+000
3.077963e+003,1.038751e+000
3.081820e+003,1.045919e+000
3.085677e+003,1.050499e+000
3.089534e+003,1.059376e+000
3.093391e+003,1.079418e+000
3.097248e+003,1.090700e+000
3.101105e+003,1.089791e+000
3.104962e+003,1.103217e+000
3.108820e+003,1.114214e+000
3.112677e+003,1.115287e+000
3.116534e+003,1.122313e+000
3.120391e+003,1.137386e+000
3.124248e+003,1.149238e+000
3.128105e+003,1.157372e+000
3.131962e+003,1.167626e+000
3.135819e+003,1.184598e+000
3.139676e+003,1.198491e+000
3.143533e+003,1.205037e+000
3.147390e+003,1.214228e+000
3.151248e+003,1.224297e+000
3.155105e+003,1.229307e+000
3.158962e+003,1.232277e+000
3.162819e+003,1.247647e+000
3.166676e+003,1.263230e+000
3.170533e+003,1.271676e+000
3.174390e+003,1.257164e+000
3.178247e+003,1.246862e+000
3.182104e+003,1.271320e+000
3.185961e+003,1.291301e+000
3.189819e+003,1.312904e+000
3.193676e+003,1.318314e+000
3.197533e+003,1.321649e+000
3.201390e+003,1.332041e+000
3.205247e+003,1.335077e+000
3.209104e+003,1.338363e+000
3.212961e+003,1.350774e+000
3.216818e+003,1.362813e+000
3.220675e+003,1.361036e+000
3.224532e+003,1.368307e+000
3.228389e+003,1.384680e+000
3.232247e+003,1.376524e+000
3.236104e+003,1.350550e+000
3.239961e+003,1.343784e+000
3.243818e+003,1.362633e+000
3.247675e+003,1.387228e+000
3.251532e+003,1.416590e+000
3.255389e+003,1.423204e+000
3.259246e+003,1.438007e+000
3.263103e+003,1.425598e+000
3.266960e+003,1.406395e+000
3.270818e+003,1.431599e+000
3.274675e+003,1.455478e+000
3.278532e+003,1.470438e+000
3.282389e+003,1.482448e+000
3.286246e+003,1.474994e+000
3.290103e+003,1.463755e+000
3.293960e+003,1.463088e+000
3.297817e+003,1.462583e+000
3.301674e+003,1.479816e+000
3.305531e+003,1.495203e+000
3.309388e+003,1.506989e+000
3.313246e+003,1.513062e+000
3.317103e+003,1.544698e+000
3.320960e+003,1.558144e+000
3.324817e+003,1.558512e+000
3.328674e+003,1.549577e+000
3.332531e+003,1.551408e+000
3.336388e+003,1.560854e+000
3.340245e+003,1.570962e+000
3.344102e+003,1.589121e+000
3.347959e+003,1.596774e+000
3.351817e+003,1.596865e+000
3.355674e+003,1.620027e+000
3.359531e+003,1.617777e+000
3.363388e+003,1.593145e+000
3.367245e+003,1.614517e+000
3.371102e+003,1.597608e+000
3.374959e+003,1.573147e+000
3.378816e+003,1.591446e+000
3.382673e+003,1.637612e+000
3.386530e+003,1.652822e+000
3.390387e+003,1.654212e+000
3.394245e+003,1.655780e+000
3.398102e+003,1.652538e+000
3.401959e+003,1.618828e+000
3.405816e+003,1.629707e+000
3.409673e+003,1.712304e+000
3.413530e+003,1.733073e+000
3.417387e+003,1.674896e+000
3.421244e+003,1.645113e+000
3.425101e+003,1.661489e+000
3.428958e+003,1.702425e+000
3.432815e+003,1.707362e+000
3.436673e+003,1.638143e+000
3.440530e+003,1.625439e+000
3.444387e+003,1.654997e+000
3.448244e+003,1.746997e+000
3.452101e+003,1.775890e+000
3.455958e+003,1.748446e+000
3.459815e+003,1.715664e+000
3.463672e+003,1.724611e+000
3.467529e+003,1.742955e+000
3.471386e+003,1.760113e+000
3.475244e+003,1.781683e+000
3.479101e+003,1.783680e+000
3.482958e+003,1.757475e+000
3.486815e+003,1.754611e+000
3.490672e+003,1.750198e+000
3.494529e+003,1.724213e+000
3.498386e+003,1.695378e+000
3.502243e+003,1.737438e+000
3.506100e+003,1.740588e+000
3.509958e+003,1.696657e+000
3.513814e+003,1.715443e+000
3.517672e+003,1.757897e+000
3.521529e+003,1.759188e+000
3.525386e+003,1.754036e+000
3.529243e+003,1.739300e+000
3.533100e+003,1.735119e+000
3.536957e+003,1.681837e+000
3.540814e+003,1.738670e+000
3.544671e+003,1.811321e+000
3.548528e+003,1.757724e+000
3.552385e+003,1.700996e+000
3.556243e+003,1.721413e+000
3.560100e+003,1.734818e+000
3.563957e+003,1.728971e+000
3.567814e+003,1.679185e+000
3.571671e+003,1.655376e+000
3.575528e+003,1.684406e+000
3.579385e+003,1.673200e+000
3.583242e+003,1.647070e+000
3.587099e+003,1.625189e+000
3.590957e+003,1.604491e+000
3.594813e+003,1.554834e+000
3.598671e+003,1.501447e+000
3.602528e+003,1.483005e+000
3.606385e+003,1.443691e+000
3.610242e+003,1.383729e+000
3.614099e+003,1.330489e+000
3.617956e+003,1.257415e+000
3.621813e+003,1.180155e+000
3.625670e+003,1.122621e+000
3.629527e+003,1.063206e+000
3.633385e+003,9.945653e-001
3.637242e+003,9.239457e-001
3.641099e+003,8.496135e-001
3.644956e+003,7.848591e-001
3.648813e+003,7.249557e-001
3.652670e+003,6.655674e-001
3.656527e+003,6.044954e-001
3.660384e+003,5.471039e-001
3.664241e+003,5.005640e-001
3.668098e+003,4.596933e-001
3.671956e+003,4.207788e-001
3.675813e+003,3.882427e-001
3.679670e+003,3.601764e-001
3.683527e+003,3.341366e-001
3.687384e+003,3.110328e-001
3.691241e+003,2.904610e-001
3.695098e+003,2.726555e-001
3.698955e+003,2.581831e-001
3.702812e+003,2.470028e-001
3.706669e+003,2.359215e-001
3.710526e+003,2.241864e-001
3.714384e+003,2.139950e-001
3.718241e+003,2.095077e-001
3.722098e+003,2.067815e-001
3.725955e+003,2.023920e-001
3.729812e+003,1.988904e-001
3.733669e+003,1.958001e-001
3.737526e+003,1.913932e-001
3.741383e+003,1.875887e-001
3.745240e+003,1.867250e-001
3.749097e+003,1.857679e-001
3.752955e+003,1.826702e-001
3.756812e+003,1.794605e-001
3.760669e+003,1.789517e-001
3.764526e+003,1.747309e-001
3.768383e+003,1.713938e-001
3.772240e+003,1.709974e-001
3.776097e+003,1.723366e-001
3.779954e+003,1.732296e-001
3.783811e+003,1.709154e-001
3.787668e+003,1.707019e-001
3.791525e+003,1.715804e-001
3.795383e+003,1.711783e-001
3.799240e+003,1.716720e-001
3.803097e+003,1.723483e-001
3.806954e+003,1.712666e-001
3.810811e+003,1.696833e-001
3.814668e+003,1.678045e-001
3.818525e+003,1.678602e-001
3.822382e+003,1.675248e-001
3.826239e+003,1.632093e-001
3.830096e+003,1.623915e-001
3.833954e+003,1.651795e-001
3.837811e+003,1.630176e-001
3.841668e+003,1.609992e-001
3.845525e+003,1.623427e-001
3.849382e+003,1.615639e-001
3.853239e+003,1.616796e-001
3.857096e+003,1.623850e-001
3.860953e+003,1.627483e-001
3.864810e+003,1.650793e-001
3.868667e+003,1.645394e-001
3.872524e+003,1.648653e-001
3.876382e+003,1.667418e-001
3.880239e+003,1.651141e-001
3.884096e+003,1.612817e-001
3.887953e+003,1.593310e-001
3.891810e+003,1.574944e-001
3.895667e+003,1.569066e-001
3.899524e+003,1.570838e-001
3.903381e+003,1.563109e-001
3.907238e+003,1.573873e-001
3.911095e+003,1.576133e-001
3.914953e+003,1.578147e-001
3.918810e+003,1.596171e-001
3.922667e+003,1.605584e-001
3.926524e+003,1.594921e-001
3.930381e+003,1.570303e-001
3.934238e+003,1.573324e-001
3.938095e+003,1.570464e-001
3.941952e+003,1.553054e-001
3.945809e+003,1.553946e-001
3.949667e+003,1.571471e-001
3.953523e+003,1.572174e-001
3.957381e+003,1.563757e-001
3.961238e+003,1.547180e-001
3.965095e+003,1.540843e-001
3.968952e+003,1.570107e-001
3.972809e+003,1.579658e-001
3.976666e+003,1.559101e-001
3.980523e+003,1.570048e-001
3.984380e+003,1.556259e-001
3.988237e+003,1.549352e-001
3.992094e+003,1.560535e-001
3.995952e+003,1.566913e-001
3.999809e+003,1.574021e-001
4.003666e+003,1.552337e-001
4.007523e+003,1.526290e-001
4.011380e+003,1.546691e-001
4.015237e+003,1.564747e-001
4.019094e+003,1.544593e-001
4.022951e+003,1.533474e-001
4.026808e+003,1.528578e-001
4.030666e+003,1.511944e-001
4.034522e+003,1.498768e-001
4.038380e+003,1.496841e-001
4.042237e+003,1.494781e-001
4.046094e+003,1.499919e-001
4.049951e+003,1.520510e-001
4.053808e+003,1.514912e-001
4.057665e+003,1.519416e-001
4.061522e+003,1.543334e-001
4.065379e+003,1.542445e-001
4.069236e+003,1.523466e-001
4.073094e+003,1.505062e-001
4.076951e+003,1.495485e-001
4.080808e+003,1.503502e-001
4.084665e+003,1.494363e-001
4.088522e+003,1.473298e-001
4.092379e+003,1.469750e-001
4.096236e+003,1.459388e-001
4.100093e+003,1.447122e-001
4.103950e+003,1.453612e-001
4.107808e+003,1.448443e-001
4.111665e+003,1.430855e-001
4.115521e+003,1.440107e-001
4.119379e+003,1.435586e-001
4.123236e+003,1.453182e-001
4.127093e+003,1.466335e-001
4.130950e+003,1.463321e-001
4.134807e+003,1.469560e-001
4.138664e+003,1.475549e-001
4.142521e+003,1.464494e-001
4.146378e+003,1.448313e-001
4.150235e+003,1.436917e-001
4.154093e+003,1.423887e-001
4.157950e+003,1.432573e-001
4.161807e+003,1.422713e-001
4.165664e+003,1.381765e-001
4.169521e+003,1.366511e-001
4.173378e+003,1.388593e-001
4.177235e+003,1.407496e-001
4.181092e+003,1.406596e-001
4.184949e+003,1.397469e-001
4.188807e+003,1.388702e-001
4.192664e+003,1.397519e-001
4.196521e+003,1.402095e-001
4.200378e+003,1.422059e-001
4.204235e+003,1.422843e-001
4.208092e+003,1.403891e-001
4.211949e+003,1.395755e-001
4.215806e+003,1.387751e-001
4.219663e+003,1.385967e-001
4.223521e+003,1.394791e-001
4.227377e+003,1.402933e-001
4.231234e+003,1.382328e-001
4.235092e+003,1.375918e-001
4.238949e+003,1.362168e-001
4.242806e+003,1.357280e-001
4.246663e+003,1.366854e-001
4.250520e+003,1.349843e-001
4.254377e+003,1.355937e-001
4.258234e+003,1.379032e-001
4.262091e+003,1.398690e-001
4.265948e+003,1.401358e-001
4.269806e+003,1.378783e-001
4.273663e+003,1.379896e-001
4.277520e+003,1.394331e-001
4.281377e+003,1.417839e-001
4.285234e+003,1.410067e-001
4.289091e+003,1.379872e-001
4.292948e+003,1.386982e-001
4.296805e+003,1.383617e-001
4.300662e+003,1.337516e-001
4.304520e+003,1.336295e-001
4.308376e+003,1.359385e-001
4.312233e+003,1.348347e-001
4.316091e+003,1.362001e-001
4.319948e+003,1.379953e-001
4.323805e+003,1.380770e-001
4.327662e+003,1.387330e-001
4.331519e+003,1.397614e-001
4.335376e+003,1.405139e-001
4.339233e+003,1.381243e-001
4.343090e+003,1.392145e-001
4.346947e+003,1.427277e-001
4.350805e+003,1.416209e-001
4.354662e+003,1.396912e-001
4.358519e+003,1.413102e-001
4.362376e+003,1.416923e-001
4.366233e+003,1.389074e-001
4.370090e+003,1.385947e-001
4.373947e+003,1.391123e-001
4.377804e+003,1.389317e-001
4.381661e+003,1.371479e-001
4.385519e+003,1.385152e-001
4.389375e+003,1.424150e-001
4.393232e+003,1.433155e-001
4.397090e+003,1.449618e-001
4.400947e+003,1.442441e-001
4.404804e+003,1.412971e-001
4.408661e+003,1.425625e-001
4.412518e+003,1.446449e-001
4.416375e+003,1.438642e-001
4.420232e+003,1.423901e-001
4.424089e+003,1.416897e-001
4.427946e+003,1.431870e-001
4.431804e+003,1.436200e-001
4.435661e+003,1.441872e-001
4.439518e+003,1.449438e-001
4.443375e+003,1.441494e-001
4.447232e+003,1.408395e-001
4.451089e+003,1.393119e-001
4.454946e+003,1.383428e-001
4.458803e+003,1.417405e-001
4.462660e+003,1.426185e-001
4.466518e+003,1.391467e-001
4.470375e+003,1.408246e-001
4.474231e+003,1.418737e-001
4.478089e+003,1.397447e-001
4.481946e+003,1.409253e-001
4.485803e+003,1.420643e-001
4.489660e+003,1.430462e-001
4.493517e+003,1.426305e-001
4.497375e+003,1.388534e-001
4.501231e+003,1.368468e-001
4.505088e+003,1.371165e-001
4.508946e+003,1.399871e-001
4.512803e+003,1.407422e-001
4.516660e+003,1.383104e-001
4.520517e+003,1.375732e-001
4.524374e+003,1.377891e-001
4.528231e+003,1.366195e-001
4.532088e+003,1.339946e-001
4.535945e+003,1.350480e-001
4.539802e+003,1.405733e-001
4.543660e+003,1.427935e-001
4.547517e+003,1.417170e-001
4.551374e+003,1.410404e-001
4.555231e+003,1.419334e-001
4.559088e+003,1.392444e-001
4.562945e+003,1.334637e-001
4.566802e+003,1.342380e-001
4.570659e+003,1.366619e-001
4.574516e+003,1.383144e-001
4.578374e+003,1.366190e-001
4.582230e+003,1.321785e-001
4.586087e+003,1.302620e-001
4.589945e+003,1.309650e-001
4.593802e+003,1.343423e-001
4.597659e+003,1.346884e-001
4.601516e+003,1.320426e-001
4.605373e+003,1.315573e-001
4.609230e+003,1.328945e-001
4.613087e+003,1.325533e-001
4.616944e+003,1.310960e-001
4.620801e+003,1.316113e-001
4.624659e+003,1.303486e-001
4.628516e+003,1.304044e-001
4.632373e+003,1.313874e-001
4.636230e+003,1.330551e-001
4.640087e+003,1.372049e-001
4.643944e+003,1.338938e-001
4.647801e+003,1.291678e-001
4.651658e+003,1.282907e-001
4.655515e+003,1.287760e-001
4.659373e+003,1.305082e-001
4.663229e+003,1.298710e-001
4.667086e+003,1.256101e-001
4.670944e+003,1.270040e-001
4.674801e+003,1.335352e-001
4.678658e+003,1.343734e-001
4.682515e+003,1.316825e-001
4.686372e+003,1.306553e-001
4.690229e+003,1.336153e-001
4.694086e+003,1.349472e-001
4.697943e+003,1.318728e-001
4.701800e+003,1.321792e-001
4.705658e+003,1.343315e-001
4.709515e+003,1.300865e-001
4.713372e+003,1.251292e-001
4.717229e+003,1.302476e-001
4.721086e+003,1.349023e-001
4.724943e+003,1.305685e-001
4.728800e+003,1.295344e-001
4.732657e+003,1.312726e-001
4.736514e+003,1.288375e-001
4.740372e+003,1.268121e-001
4.744229e+003,1.256905e-001
4.748085e+003,1.300626e-001
4.751943e+003,1.316003e-001
4.755800e+003,1.336971e-001
4.759657e+003,1.354131e-001
4.763514e+003,1.340462e-001
4.767371e+003,1.378135e-001
4.771228e+003,1.387103e-001
4.775085e+003,1.371616e-001
4.778942e+003,1.353859e-001
4.782799e+003,1.334981e-001
4.786657e+003,1.336644e-001
4.790514e+003,1.334334e-001
4.794371e+003,1.354057e-001
4.798228e+003,1.359323e-001
4.802085e+003,1.303947e-001
4.805942e+003,1.279269e-001
4.809799e+003,1.308356e-001
4.813656e+003,1.294158e-001
4.817513e+003,1.298542e-001
4.821371e+003,1.348782e-001
4.825228e+003,1.380721e-001
4.829084e+003,1.352141e-001
4.832942e+003,1.340717e-001
4.836799e+003,1.374228e-001
4.840656e+003,1.357594e-001
4.844513e+003,1.306803e-001
4.848370e+003,1.336856e-001
4.852227e+003,1.375777e-001
4.856084e+003,1.365956e-001
4.859941e+003,1.313329e-001
4.863798e+003,1.295156e-001
4.867656e+003,1.278613e-001
4.871513e+003,1.275874e-001
4.875370e+003,1.335904e-001
4.879227e+003,1.361652e-001
4.883084e+003,1.301941e-001
4.886941e+003,1.296795e-001
4.890798e+003,1.331176e-001
4.894655e+003,1.323025e-001
4.898512e+003,1.303130e-001
4.902370e+003,1.321817e-001
4.906227e+003,1.348105e-001
4.910083e+003,1.334847e-001
4.913941e+003,1.307832e-001
4.917798e+003,1.297036e-001
4.921655e+003,1.332840e-001
4.925512e+003,1.367914e-001
4.929369e+003,1.370729e-001
4.933226e+003,1.365061e-001
4.937083e+003,1.372156e-001
4.940940e+003,1.360761e-001
4.944797e+003,1.395304e-001
4.948655e+003,1.379716e-001
4.952512e+003,1.312837e-001
4.956369e+003,1.309843e-001
4.960226e+003,1.313633e-001
4.964083e+003,1.342825e-001
4.967940e+003,1.356464e-001
4.971797e+003,1.320260e-001
4.975654e+003,1.362881e-001
4.979511e+003,1.424308e-001
4.983369e+003,1.388123e-001
4.987226e+003,1.344596e-001
4.991083e+003,1.351817e-001
4.994940e+003,1.356262e-001
4.998797e+003,1.347038e-001
5.002654e+003,1.321826e-001
5.006511e+003,1.321004e-001
5.010368e+003,1.311155e-001
5.014225e+003,1.295972e-001
5.018083e+003,1.345643e-001
5.021939e+003,1.381325e-001
5.025796e+003,1.386484e-001
5.029654e+003,1.410335e-001
5.033511e+003,1.425709e-001
5.037368e+003,1.425045e-001
5.041225e+003,1.361375e-001
5.045082e+003,1.338260e-001
5.048939e+003,1.374563e-001
5.052796e+003,1.372003e-001
5.056653e+003,1.406072e-001
5.060510e+003,1.420327e-001
5.064368e+003,1.376808e-001
5.068225e+003,1.387287e-001
5.072082e+003,1.371860e-001
5.075939e+003,1.336254e-001
5.079796e+003,1.365992e-001
5.083653e+003,1.342813e-001
5.087510e+003,1.335147e-001
5.091367e+003,1.336585e-001
5.095224e+003,1.331685e-001
5.099082e+003,1.341880e-001
5.102938e+003,1.355246e-001
5.106795e+003,1.382088e-001
5.110653e+003,1.394390e-001
5.114510e+003,1.400207e-001
5.118367e+003,1.386084e-001
5.122224e+003,1.368172e-001
5.126081e+003,1.383047e-001
5.129938e+003,1.422405e-001
5.133795e+003,1.416820e-001
5.137652e+003,1.356938e-001
5.141509e+003,1.357262e-001
5.145367e+003,1.378562e-001
5.149224e+003,1.393069e-001
5.153081e+003,1.377230e-001
5.156938e+003,1.362122e-001
5.160795e+003,1.366816e-001
5.164652e+003,1.369308e-001
5.168509e+003,1.433879e-001
5.172366e+003,1.417883e-001
5.176223e+003,1.386893e-001
5.180081e+003,1.395711e-001
5.183938e+003,1.386581e-001
5.187794e+003,1.402085e-001
5.191652e+003,1.413302e-001
5.195509e+003,1.365521e-001
5.199366e+003,1.348170e-001
5.203223e+003,1.398498e-001
5.207080e+003,1.391430e-001
5.210937e+003,1.400145e-001
5.214794e+003,1.405592e-001
5.218651e+003,1.349140e-001
5.222508e+003,1.338905e-001
5.226366e+003,1.360998e-001
5.230223e+003,1.336639e-001
5.234080e+003,1.319326e-001
5.237937e+003,1.341462e-001
5.241794e+003,1.340202e-001
5.245651e+003,1.309492e-001
5.249508e+003,1.348689e-001
5.253365e+003,1.382495e-001
5.257222e+003,1.379359e-001
5.261080e+003,1.329480e-001
5.264937e+003,1.314176e-001
5.268793e+003,1.333393e-001
5.272651e+003,1.314485e-001
5.276508e+003,1.296613e-001
5.280365e+003,1.278019e-001
5.284222e+003,1.287610e-001
5.288079e+003,1.291451e-001
5.291936e+003,1.235131e-001
5.295793e+003,1.229161e-001
5.299650e+003,1.278955e-001
5.303507e+003,1.271490e-001
5.307365e+003,1.259436e-001
5.311222e+003,1.232146e-001
5.315079e+003,1.259238e-001
5.318936e+003,1.292646e-001
5.322793e+003,1.305919e-001
5.326650e+003,1.297998e-001
5.330507e+003,1.293945e-001
5.334364e+003,1.290335e-001
5.338221e+003,1.259576e-001
5.342079e+003,1.216886e-001
5.345936e+003,1.211751e-001
5.349792e+003,1.276154e-001
5.353650e+003,1.251635e-001
5.357507e+003,1.233513e-001
5.361364e+003,1.270504e-001
5.365221e+003,1.272716e-001
5.369078e+003,1.258448e-001
5.372935e+003,1.253285e-001
5.376792e+003,1.235601e-001
5.380649e+003,1.279830e-001
5.384506e+003,1.314312e-001
5.388364e+003,1.282918e-001
5.392221e+003,1.246281e-001
5.396078e+003,1.217205e-001
5.399935e+003,1.222000e-001
5.403792e+003,1.248962e-001
5.407649e+003,1.269738e-001
5.411506e+003,1.272796e-001
5.415363e+003,1.253039e-001
5.419220e+003,1.211105e-001
5.423078e+003,1.151115e-001
5.426935e+003,1.138919e-001
5.430792e+003,1.189848e-001
5.434649e+003,1.220389e-001
5.438506e+003,1.225786e-001
5.442363e+003,1.223673e-001
5.446220e+003,1.257334e-001
5.450077e+003,1.284666e-001
5.453934e+003,1.244492e-001
5.457792e+003,1.284738e-001
5.461648e+003,1.311895e-001
5.465505e+003,1.270974e-001
5.469363e+003,1.260704e-001
5.473220e+003,1.261119e-001
5.477077e+003,1.232617e-001
5.480934e+003,1.204104e-001
5.484791e+003,1.176912e-001
5.488648e+003,1.186734e-001
5.492505e+003,1.230275e-001
5.496362e+003,1.259405e-001
5.500219e+003,1.264492e-001
5.504077e+003,1.222807e-001
5.507934e+003,1.218056e-001
5.511791e+003,1.272855e-001
5.515648e+003,1.289199e-001
5.519505e+003,1.233051e-001
5.523362e+003,1.196786e-001
5.527219e+003,1.244937e-001
5.531076e+003,1.247878e-001
5.534933e+003,1.197601e-001
5.538791e+003,1.199266e-001
5.542647e+003,1.231000e-001
5.546504e+003,1.227080e-001
5.550362e+003,1.204300e-001
5.554219e+003,1.205056e-001
5.558076e+003,1.208662e-001
5.561933e+003,1.185824e-001
5.565790e+003,1.134498e-001
5.569647e+003,1.152953e-001
5.573504e+003,1.190865e-001
5.577361e+003,1.212663e-001
5.581218e+003,1.184817e-001
5.585076e+003,1.161956e-001
5.588933e+003,1.192445e-001
5.592790e+003,1.217774e-001
5.596647e+003,1.212932e-001
5.600504e+003,1.160341e-001
5.604361e+003,1.137303e-001
5.608218e+003,1.169239e-001
5.612075e+003,1.171549e-001
5.615932e+003,1.181657e-001
5.619790e+003,1.190711e-001
5.623646e+003,1.197425e-001
5.627503e+003,1.177292e-001
5.631361e+003,1.178535e-001
5.635218e+003,1.240585e-001
5.639075e+003,1.232215e-001
5.642932e+003,1.198457e-001
5.646789e+003,1.245286e-001
5.650646e+003,1.290423e-001
5.654503e+003,1.233149e-001
5.658360e+003,1.165943e-001
5.662217e+003,1.180290e-001
5.666075e+003,1.209102e-001
5.669932e+003,1.197007e-001
5.673789e+003,1.204413e-001
5.677646e+003,1.192927e-001
5.681503e+003,1.184567e-001
5.685360e+003,1.180445e-001
5.689217e+003,1.180012e-001
5.693074e+003,1.208986e-001
5.696931e+003,1.168666e-001
5.700789e+003,1.169785e-001
5.704646e+003,1.215961e-001
5.708502e+003,1.200049e-001
5.712360e+003,1.147186e-001
5.716217e+003,1.134684e-001
5.720074e+003,1.140580e-001
5.723931e+003,1.129924e-001
5.727788e+003,1.108796e-001
5.731645e+003,1.114446e-001
5.735502e+003,1.114301e-001
5.739359e+003,1.143106e-001
5.743216e+003,1.133705e-001
5.747074e+003,1.157763e-001
5.750931e+003,1.172177e-001
5.754788e+003,1.116243e-001
5.758645e+003,1.087205e-001
5.762502e+003,1.086643e-001
5.766359e+003,1.103992e-001
5.770216e+003,1.099776e-001
5.774073e+003,1.067919e-001
5.777930e+003,1.083222e-001
5.781788e+003,1.085800e-001
5.785645e+003,1.083692e-001
5.789501e+003,1.100125e-001
5.793359e+003,1.106400e-001
5.797216e+003,1.100234e-001
5.801073e+003,1.117205e-001
5.804930e+003,1.138955e-001
5.808787e+003,1.172693e-001
5.812644e+003,1.136239e-001
5.816501e+003,1.070854e-001
5.820358e+003,1.057020e-001
5.824215e+003,1.105725e-001
5.828073e+003,1.121700e-001
5.831930e+003,1.091719e-001
5.835787e+003,1.076595e-001
5.839644e+003,1.128850e-001
5.843501e+003,1.177648e-001
5.847358e+003,1.135431e-001
5.851215e+003,1.077056e-001
5.855072e+003,1.043180e-001
5.858929e+003,1.075429e-001
5.862787e+003,1.128909e-001
5.866644e+003,1.126258e-001
5.870500e+003,1.124711e-001
5.874358e+003,1.047943e-001
5.878215e+003,1.030966e-001
5.882072e+003,1.091587e-001
5.885929e+003,1.103954e-001
5.889786e+003,1.090548e-001
5.893643e+003,1.090245e-001
5.897500e+003,1.047298e-001
5.901357e+003,1.018146e-001
5.905214e+003,1.027829e-001
5.909072e+003,1.015687e-001
5.912929e+003,1.044086e-001
5.916786e+003,1.100704e-001
5.920643e+003,1.111932e-001
5.924500e+003,1.072640e-001
5.928357e+003,1.030965e-001
5.932214e+003,9.907566e-002
5.936071e+003,9.765492e-002
5.939928e+003,1.037589e-001
5.943786e+003,1.077716e-001
5.947643e+003,1.056288e-001
5.951500e+003,1.069383e-001
5.955357e+003,1.079414e-001
5.959214e+003,1.080001e-001
5.963071e+003,1.113552e-001
5.966928e+003,1.096056e-001
5.970785e+003,1.015789e-001
5.974642e+003,9.791597e-002
5.978500e+003,9.618419e-002
5.982356e+003,1.000728e-001
5.986213e+003,1.011557e-001
5.990071e+003,1.010584e-001
5.993928e+003,1.060743e-001
5.997785e+003,1.083691e-001
6.001642e+003,1.062675e-001
6.005499e+003,1.067367e-001
6.009356e+003,1.098308e-001
6.013213e+003,1.088011e-001
6.017070e+003,1.101760e-001
6.020927e+003,1.115433e-001
6.024785e+003,1.053843e-001
6.028642e+003,1.066589e-001
6.032499e+003,1.099629e-001
6.036356e+003,1.037706e-001
6.040213e+003,1.018456e-001
6.044070e+003,1.020466e-001
6.047927e+003,1.051967e-001
6.051784e+003,1.049283e-001
6.055641e+003,1.063418e-001
6.059499e+003,1.086251e-001
6.063355e+003,1.110120e-001
6.067212e+003,1.108689e-001
6.071070e+003,1.055835e-001
6.074927e+003,1.045683e-001
6.078784e+003,1.106397e-001
6.082641e+003,1.094088e-001
6.086498e+003,1.092293e-001
6.090355e+003,1.046700e-001
6.094212e+003,1.002553e-001
6.098069e+003,1.045887e-001
6.101926e+003,1.041855e-001
6.105784e+003,9.974591e-002
6.109641e+003,1.009831e-001
6.113498e+003,1.004694e-001
6.117355e+003,1.024336e-001
6.121212e+003,1.009980e-001
6.125069e+003,1.003416e-001
6.128926e+003,1.028873e-001
6.132783e+003,1.023142e-001
6.136640e+003,1.047442e-001
6.140498e+003,1.087935e-001
6.144354e+003,1.077271e-001
6.148211e+003,1.075325e-001
6.152069e+003,1.085027e-001
6.155926e+003,1.031357e-001
6.159783e+003,9.989615e-002
6.163640e+003,9.980195e-002
6.167497e+003,1.036894e-001
6.171354e+003,1.003330e-001
6.175211e+003,1.011952e-001
6.179068e+003,1.009748e-001
6.182925e+003,1.011176e-001
6.186783e+003,1.022710e-001
6.190640e+003,9.963508e-002
6.194497e+003,9.927488e-002
6.198354e+003,9.994152e-002
6.202211e+003,9.788276e-002
6.206068e+003,1.018273e-001
6.209925e+003,1.043089e-001
6.213782e+003,9.900836e-002
6.217639e+003,8.454169e-002
6.221497e+003,7.847982e-002
6.225354e+003,8.888333e-002
6.229210e+003,9.387101e-002
6.233068e+003,9.873950e-002
6.236925e+003,9.887820e-002
6.240782e+003,9.565811e-002
6.244639e+003,1.023561e-001
6.248496e+003,1.006645e-001
6.252353e+003,9.921463e-002
6.256210e+003,9.930091e-002
6.260067e+003,9.592568e-002
6.263924e+003,1.008882e-001
6.267782e+003,1.071133e-001
6.271639e+003,1.048931e-001
6.275496e+003,1.032849e-001
6.279353e+003,1.027023e-001
6.283210e+003,9.713700e-002
6.287067e+003,9.459804e-002
6.290924e+003,9.953064e-002
6.294781e+003,1.023866e-001
6.298638e+003,9.950169e-002
6.302496e+003,9.999750e-002
6.306353e+003,1.018673e-001
6.310209e+003,9.265723e-002
6.314067e+003,8.764094e-002
6.317924e+003,9.895135e-002
6.321781e+003,9.786706e-002
6.325638e+003,9.429472e-002
6.329495e+003,9.991296e-002
6.333352e+003,1.020637e-001
6.337209e+003,9.589688e-002
6.341066e+003,9.545918e-002
6.344923e+003,1.043222e-001
6.348780e+003,1.085796e-001
6.352638e+003,1.099439e-001
6.356495e+003,1.076728e-001
6.360352e+003,1.026473e-001
6.364209e+003,1.036592e-001
6.368066e+003,1.006032e-001
6.371923e+003,9.030715e-002
6.375780e+003,8.429383e-002
6.379637e+003,8.493137e-002
6.383494e+003,8.762886e-002
6.387352e+003,9.684499e-002
6.391208e+003,1.068489e-001
6.395065e+003,1.078826e-001
6.398923e+003,1.036629e-001
6.402780e+003,9.843653e-002
6.406637e+003,9.593800e-002
6.410494e+003,9.415004e-002
6.414351e+003,9.532773e-002
6.418208e+003,9.972132e-002
6.422065e+003,9.728061e-002
6.425922e+003,9.883006e-002
6.429779e+003,1.036029e-001
6.433637e+003,9.945928e-002
6.437494e+003,9.886152e-002
6.441351e+003,1.030409e-001
6.445208e+003,1.048268e-001
6.449065e+003,1.048660e-001
6.452922e+003,1.021858e-001
6.456779e+003,9.510890e-002
6.460636e+003,9.314287e-002
6.464493e+003,9.519734e-002
6.468351e+003,1.048219e-001
6.472208e+003,1.071790e-001
6.476064e+003,1.026866e-001
6.479922e+003,9.559600e-002
6.483779e+003,9.654664e-002
6.487636e+003,1.067619e-001
6.491493e+003,1.052934e-001
6.495350e+003,9.462803e-002
6.499207e+003,1.001028e-001
6.503064e+003,1.148719e-001
6.506921e+003,1.114098e-001
6.510778e+003,9.643707e-002
6.514636e+003,9.944203e-002
6.518493e+003,1.059686e-001
6.522350e+003,1.034667e-001
6.526207e+003,1.048524e-001
6.530064e+003,1.037822e-001
6.533921e+003,9.893000e-002
6.537778e+003,9.681982e-002
6.541635e+003,1.004773e-001
6.545492e+003,9.916504e-002
6.549350e+003,8.901375e-002
6.553207e+003,1.006953e-001
6.557063e+003,1.049247e-001
6.560921e+003,9.828959e-002
6.564778e+003,9.925544e-002
6.568635e+003,1.021970e-001
6.572492e+003,1.031949e-001
6.576349e+003,1.098421e-001
6.580206e+003,1.111436e-001
6.584063e+003,1.084695e-001
6.587920e+003,1.042387e-001
6.591777e+003,1.040860e-001
6.595635e+003,9.946032e-002
6.599492e+003,9.846488e-002
6.603349e+003,1.057920e-001
6.607206e+003,9.300952e-002
6.611063e+003,8.469795e-002
6.614920e+003,9.305258e-002
6.618777e+003,8.928043e-002
6.622634e+003,8.563489e-002
6.626491e+003,9.082364e-002
6.630349e+003,9.298050e-002
6.634206e+003,9.211180e-002
6.638063e+003,8.716839e-002
6.641920e+003,8.505363e-002
6.645777e+003,8.793607e-002
6.649634e+003,1.024833e-001
6.653491e+003,1.107942e-001
6.657348e+003,1.091230e-001
6.661205e+003,1.066752e-001
6.665063e+003,1.058459e-001
6.668919e+003,9.783427e-002
6.672776e+003,9.576505e-002
6.676634e+003,9.610936e-002
6.680491e+003,1.032699e-001
6.684348e+003,1.064955e-001
6.688205e+003,1.084545e-001
6.692062e+003,1.093716e-001
6.695919e+003,1.045540e-001
6.699776e+003,1.015042e-001
6.703633e+003,1.028048e-001
6.707490e+003,1.074918e-001
6.711348e+003,9.674235e-002
6.715205e+003,9.131365e-002
6.719062e+003,1.053515e-001
6.722919e+003,1.066252e-001
6.726776e+003,9.025465e-002
6.730633e+003,9.377355e-002
6.734490e+003,1.076926e-001
6.738347e+003,1.113459e-001
6.742204e+003,1.125227e-001
6.746062e+003,1.091357e-001
6.749918e+003,1.054023e-001
6.753775e+003,1.054197e-001
6.757633e+003,1.026444e-001
6.761490e+003,9.854215e-002
6.765347e+003,9.929095e-002
6.769204e+003,1.014138e-001
6.773061e+003,1.093352e-001
6.776918e+003,1.108847e-001
6.780775e+003,9.761307e-002
6.784632e+003,9.689477e-002
6.788489e+003,1.000629e-001
6.792347e+003,1.139370e-001
6.796204e+003,1.080906e-001
6.800061e+003,1.048809e-001
6.803918e+003,1.142177e-001
6.807775e+003,1.083805e-001
6.811632e+003,1.011955e-001
6.815489e+003,1.050741e-001
6.819346e+003,1.098836e-001
6.823203e+003,1.079771e-001
6.827061e+003,1.093247e-001
6.830917e+003,1.186235e-001
6.834774e+003,1.196315e-001
6.838632e+003,1.083167e-001
6.842489e+003,1.043315e-001
6.846346e+003,1.123269e-001
6.850203e+003,1.145543e-001
6.854060e+003,1.056117e-001
6.857917e+003,1.029622e-001
6.861774e+003,1.029849e-001
6.865631e+003,1.083678e-001
6.869488e+003,1.106810e-001
6.873346e+003,9.882465e-002
6.877203e+003,1.065278e-001
6.881060e+003,1.175866e-001
6.884917e+003,1.066895e-001
6.888774e+003,9.901211e-002
6.892631e+003,1.029275e-001
6.896488e+003,9.741266e-002
6.900345e+003,9.770380e-002
6.904202e+003,9.670086e-002
6.908060e+003,1.074132e-001
6.911917e+003,1.112417e-001
6.915773e+003,1.028754e-001
6.919631e+003,1.047344e-001
6.923488e+003,1.138232e-001
6.927345e+003,1.149964e-001
6.931202e+003,1.100765e-001
6.935059e+003,1.027516e-001
6.938916e+003,8.856176e-002
6.942773e+003,9.794440e-002
6.946630e+003,1.251921e-001
6.950487e+003,1.111045e-001
6.954345e+003,1.011326e-001
6.958202e+003,1.072016e-001
6.962059e+003,1.126545e-001
6.965916e+003,1.120904e-001
6.969773e+003,1.133830e-001
6.973630e+003,1.115603e-001
6.977487e+003,1.079370e-001
6.981344e+003,1.072273e-001
6.985201e+003,1.096159e-001
6.989059e+003,1.132041e-001
6.992916e+003,1.099248e-001
6.996772e+003,1.092982e-001
7.000630e+003,1.121369e-001
7.004487e+003,1.105366e-001
7.008344e+003,1.152564e-001
7.012201e+003,1.300541e-001
7.016058e+003,1.298309e-001
7.019915e+003,1.231627e-001
7.023772e+003,1.299947e-001
7.027629e+003,1.214322e-001
7.031486e+003,1.122409e-001
7.035344e+003,1.196366e-001
7.039201e+003,1.145154e-001
7.043058e+003,1.099951e-001
7.046915e+003,1.215119e-001
7.050772e+003,1.181500e-001
7.054629e+003,1.078235e-001
7.058486e+003,1.392026e-001
7.062343e+003,1.381030e-001
7.066200e+003,1.245606e-001
7.070058e+003,1.204529e-001
7.073915e+003,1.092308e-001
7.077771e+003,1.272507e-001
7.081629e+003,1.394911e-001
7.085486e+003,1.248197e-001
7.089343e+003,1.164027e-001
7.093200e+003,1.285618e-001
7.097057e+003,1.201870e-001
7.100914e+003,1.164122e-001
7.104771e+003,1.157223e-001
7.108628e+003,1.160128e-001
7.112485e+003,1.189106e-001
7.116343e+003,1.196497e-001
7.120200e+003,1.127206e-001
7.124057e+003,1.065485e-001
7.127914e+003,1.034823e-001
7.131771e+003,1.123134e-001
7.135628e+003,1.266280e-001
7.139485e+003,1.233596e-001
7.143342e+003,1.169650e-001
7.147199e+003,1.233917e-001
7.151057e+003,1.359171e-001
7.154914e+003,1.455574e-001
7.158771e+003,1.410147e-001
7.162628e+003,1.424610e-001
7.166485e+003,1.545907e-001
7.170342e+003,1.479065e-001
7.174199e+003,1.259673e-001
7.178056e+003,1.153894e-001
7.181913e+003,1.078553e-001
7.185771e+003,1.075653e-001
7.189627e+003,1.067617e-001
7.193484e+003,1.088806e-001
7.197342e+003,1.256865e-001
7.201199e+003,1.227494e-001
7.205056e+003,1.103350e-001
7.208913e+003,1.176441e-001
7.212770e+003,1.479716e-001
7.216627e+003,1.490516e-001
7.220484e+003,1.327120e-001
7.224341e+003,1.234314e-001
7.228198e+003,1.254697e-001
7.232056e+003,1.167814e-001
7.235913e+003,1.199184e-001
7.239770e+003,1.345009e-001
7.243627e+003,1.417412e-001
7.247484e+003,1.392580e-001
7.251341e+003,1.309809e-001
7.255198e+003,1.365506e-001
7.259055e+003,1.334793e-001
7.262912e+003,1.207157e-001
7.266770e+003,1.337754e-001
7.270626e+003,1.439469e-001
7.274483e+003,1.389934e-001
7.278341e+003,1.310092e-001
7.282198e+003,1.173504e-001
7.286055e+003,1.163865e-001
7.289912e+003,1.179298e-001
7.293769e+003,1.263354e-001
7.297626e+003,1.350551e-001
7.301483e+003,1.300815e-001
7.305340e+003,1.296003e-001
7.309197e+003,1.329652e-001
7.313055e+003,1.194118e-001
7.316912e+003,1.163409e-001
7.320769e+003,1.086303e-001
7.324626e+003,1.317649e-001
7.328483e+003,1.271759e-001
7.332340e+003,1.275299e-001
7.336197e+003,1.387455e-001
7.340054e+003,1.309997e-001
7.343911e+003,1.320133e-001
7.347769e+003,1.425018e-001
7.351625e+003,1.458618e-001
7.355482e+003,1.265375e-001
7.359340e+003,1.189849e-001
7.363197e+003,1.151656e-001
7.367054e+003,1.195526e-001
7.370911e+003,1.343393e-001
7.374768e+003,1.283242e-001
7.378625e+003,1.279918e-001
7.382482e+003,1.246883e-001
7.386339e+003,1.178548e-001
7.390196e+003,1.134175e-001
7.394054e+003,1.133062e-001
7.397911e+003,1.163759e-001
7.401768e+003,1.124887e-001
7.405625e+003,1.264381e-001
7.409482e+003,1.526743e-001
7.413339e+003,1.451082e-001
7.417196e+003,1.288166e-001
7.421053e+003,1.206840e-001
7.424910e+003,1.200401e-001
7.428768e+003,1.240718e-001
7.432625e+003,1.277337e-001
7.436481e+003,1.170870e-001
7.440339e+003,8.975240e-002
7.444196e+003,1.001160e-001
7.448053e+003,1.229014e-001
7.451910e+003,1.305470e-001
7.455767e+003,1.616242e-001
7.459624e+003,1.455386e-001
7.463481e+003,1.017321e-001
7.467338e+003,7.629316e-002
7.471195e+003,7.922509e-002
7.475053e+003,1.206916e-001
7.478910e+003,1.452758e-001
7.482767e+003,1.664974e-001
7.486624e+003,1.924753e-001
7.490481e+003,1.700264e-001
7.494338e+003,1.524690e-001
7.498195e+003,1.393532e-001
7.502052e+003,1.493801e-001
7.505909e+003,1.695084e-001
7.509767e+003,1.524906e-001
7.513624e+003,1.329392e-001
7.517480e+003,1.167618e-001
7.521338e+003,1.227696e-001
7.525195e+003,1.566491e-001
7.529052e+003,1.747309e-001
7.532909e+003,1.658174e-001
7.536766e+003,1.384221e-001
7.540623e+003,1.354937e-001
7.544480e+003,1.616810e-001
7.548337e+003,1.765773e-001
7.552194e+003,1.412232e-001
7.556052e+003,1.108463e-001
7.559909e+003,1.395202e-001
7.563766e+003,1.564198e-001
7.567623e+003,1.606351e-001
7.571480e+003,1.903150e-001
7.575337e+003,2.016352e-001
7.579194e+003,1.627661e-001
7.583051e+003,1.109716e-001
7.586908e+003,9.715063e-002
7.590766e+003,1.117319e-001
7.594623e+003,1.307732e-001
7.598479e+003,1.451704e-001
7.602337e+003,1.540042e-001
7.606194e+003,1.314958e-001
7.610051e+003,1.360464e-001
7.613908e+003,1.561031e-001
7.617765e+003,1.100167e-001
7.621622e+003,7.476640e-002
7.625479e+003,1.016984e-001
7.629336e+003,1.392583e-001
7.633193e+003,1.614557e-001
7.637051e+003,1.722128e-001
7.640908e+003,1.475916e-001
7.644765e+003,1.165236e-001
7.648622e+003,1.129247e-001
7.652479e+003,1.146451e-001
7.656336e+003,1.453909e-001
7.660193e+003,1.492900e-001
7.664050e+003,1.151050e-001
7.667907e+003,9.291529e-002
7.671765e+003,9.660885e-002
7.675622e+003,9.474880e-002
7.679479e+003,7.150286e-002
7.683336e+003,1.030978e-001
7.687193e+003,1.394137e-001
7.691050e+003,1.407855e-001
7.694907e+003,1.454923e-001
7.698764e+003,1.338801e-001
7.702621e+003,1.603812e-001
7.706479e+003,1.810271e-001
7.710335e+003,1.523757e-001
7.714192e+003,1.405756e-001
7.718050e+003,1.070407e-001
7.721907e+003,7.381323e-002
7.725764e+003,1.044347e-001
7.729621e+003,1.528309e-001
7.733478e+003,1.254933e-001
7.737335e+003,1.084997e-001
7.741192e+003,1.442688e-001
7.745049e+003,1.850088e-001
7.748906e+003,1.741503e-001
7.752764e+003,1.831054e-001
7.756621e+003,1.788039e-001
7.760478e+003,1.301050e-001
7.764335e+003,1.123752e-001
7.768192e+003,1.250335e-001
7.772049e+003,1.131329e-001
7.775906e+003,1.053126e-001
7.779763e+003,1.336043e-001
7.783620e+003,1.443088e-001
7.787478e+003,1.273012e-001
7.791334e+003,1.143877e-001
7.795191e+003,1.868769e-001
7.799049e+003,2.050324e-001
7.802906e+003,1.382816e-001
7.806763e+003,1.271381e-001
7.810620e+003,1.245270e-001
7.814477e+003,1.035977e-001
7.818334e+003,9.726407e-002
7.822191e+003,1.246798e-001
7.826048e+003,1.558956e-001
7.829905e+003,1.815846e-001
7.833763e+003,1.477458e-001
7.837620e+003,1.484783e-001
7.841477e+003,1.934163e-001
7.845334e+003,1.716118e-001
7.849191e+003,1.720340e-001
7.853048e+003,1.516034e-001
7.856905e+003,1.305389e-001
7.860762e+003,1.065503e-001
7.864619e+003,7.803362e-002
7.868477e+003,1.072363e-001
7.872333e+003,1.520993e-001
7.876190e+003,1.866149e-001
7.880048e+003,1.884394e-001
7.883905e+003,1.710930e-001
7.887762e+003,1.667555e-001
7.891619e+003,1.218529e-001
7.895476e+003,1.035878e-001
7.899333e+003,9.768393e-002
7.903190e+003,1.207777e-001
7.907047e+003,1.439488e-001
7.910904e+003,1.681372e-001
7.914762e+003,1.558208e-001
7.918619e+003,1.530525e-001
7.922476e+003,1.989807e-001
7.926333e+003,2.366770e-001
7.930190e+003,1.672927e-001
7.934047e+003,1.423769e-001
7.937904e+003,1.850635e-001
7.941761e+003,2.155235e-001
7.945618e+003,2.294182e-001
7.949476e+003,2.039915e-001
7.953333e+003,1.838604e-001
7.957189e+003,1.580043e-001
7.961047e+003,1.185371e-001
7.964904e+003,1.743097e-001
7.968761e+003,2.108851e-001
7.972618e+003,1.959504e-001
7.976475e+003,2.056711e-001
7.980332e+003,1.675124e-001
7.984189e+003,6.917208e-002
7.988046e+003,8.803674e-002
7.991903e+003,1.801735e-001
7.995761e+003,2.195980e-001
7.999618e+003,2.079665e-001
