4.011380e+002,-9.345180e-002
4.049951e+002,6.000000e+000
4.088522e+002,-6.657208e-001
4.127093e+002,4.153308e-001
4.165664e+002,7.557287e-001
4.204235e+002,4.766007e-001
4.242806e+002,1.143094e-001
4.281377e+002,6.000000e+000
4.319948e+002,8.196799e-001
4.358519e+002,6.000000e+000
4.397090e+002,6.000000e+000
4.435661e+002,6.000000e+000
4.474232e+002,-3.671993e-001
4.512803e+002,-7.292912e-001
4.551374e+002,6.000000e+000
4.589945e+002,6.000000e+000
4.628516e+002,6.000000e+000
4.667087e+002,6.000000e+000
4.705658e+002,6.000000e+000
4.744229e+002,6.000000e+000
4.782800e+002,1.189206e+000
4.821371e+002,4.394528e-001
4.859941e+002,-5.186608e-001
4.898513e+002,-6.748336e-001
4.937083e+002,6.000000e+000
4.975654e+002,6.000000e+000
5.014225e+002,5.514418e-001
5.052796e+002,5.837427e-001
5.091367e+002,6.000000e+000
5.129938e+002,-1.317303e+000
5.168509e+002,6.000000e+000
5.207080e+002,2.324920e-001
5.245651e+002,2.797529e-001
5.284222e+002,6.000000e+000
5.322793e+002,6.000000e+000
5.361364e+002,-1.847554e+000
5.399935e+002,-4.901481e-001
5.438506e+002,-3.871386e-001
5.477077e+002,1.118879e-002
5.515648e+002,-3.889849e-001
5.554219e+002,-8.887193e-001
5.592790e+002,2.136288e-001
5.631361e+002,1.108148e-001
5.669932e+002,1.264156e+000
5.708503e+002,3.247775e-001
5.747074e+002,9.683803e-002
5.785645e+002,6.000000e+000
5.824216e+002,6.000000e+000
5.862787e+002,2.125062e-001
5.901357e+002,5.637682e-001
5.939929e+002,6.000000e+000
5.978499e+002,-8.632113e-002
6.017070e+002,-1.953519e-001
6.055641e+002,1.019018e-002
6.094212e+002,6.000000e+000
6.132783e+002,6.000000e+000
6.171354e+002,7.772134e-003
6.209925e+002,-6.892647e-002
6.248496e+002,-1.154492e+000
6.287067e+002,-2.410640e-001
6.325638e+002,6.000000e+000
6.364209e+002,1.953814e-001
6.402780e+002,-2.018799e-001
6.441351e+002,7.244982e-001
6.479922e+002,-5.636146e-001
6.518493e+002,-2.853934e-001
6.557064e+002,6.000000e+000
6.595635e+002,9.471781e-001
6.634205e+002,5.525055e-001
6.672777e+002,-4.789623e-003
6.711348e+002,-1.024666e-001
6.749918e+002,-5.703548e-001
6.788490e+002,6.000000e+000
6.827061e+002,5.397170e-001
6.865631e+002,2.729356e-001
6.904203e+002,6.000000e+000
6.942773e+002,6.000000e+000
6.981344e+002,6.000000e+000
7.019916e+002,-4.628331e-001
7.058486e+002,6.000000e+000
7.097057e+002,6.000000e+000
7.135629e+002,-7.504050e-001
7.174199e+002,6.000000e+000
7.212770e+002,6.000000e+000
7.251342e+002,-2.768203e+000
7.289912e+002,6.000000e+000
7.328483e+002,4.479855e-001
7.367054e+002,-1.125550e-001
7.405625e+002,6.000000e+000
7.444196e+002,-6.288254e-001
7.482767e+002,-5.326624e-002
7.521338e+002,6.000000e+000
7.559908e+002,-7.687541e-001
7.598480e+002,6.000000e+000
7.637051e+002,6.000000e+000
7.675621e+002,-5.639336e-001
7.714193e+002,6.000000e+000
7.752764e+002,6.000000e+000
7.791334e+002,6.000000e+000
7.829905e+002,6.000000e+000
7.868477e+002,6.000000e+000
7.907047e+002,6.000000e+000
7.945618e+002,5.754800e-001
7.984189e+002,6.000000e+000
8.022760e+002,6.000000e+000
8.061331e+002,6.000000e+000
8.099902e+002,6.000000e+000
8.138473e+002,6.000000e+000
8.177044e+002,6.000000e+000
8.215615e+002,1.163749e+000
8.254186e+002,6.000000e+000
8.292757e+002,6.000000e+000
8.331328e+002,1.864515e+000
8.369899e+002,1.376296e+000
8.408470e+002,1.113446e+000
8.447041e+002,8.465714e-001
8.485612e+002,1.366695e+000
8.524183e+002,1.166085e+000
8.562754e+002,1.248529e+000
8.601324e+002,1.125916e+000
8.639896e+002,1.933018e+000
8.678467e+002,6.000000e+000
8.717037e+002,1.267865e+000
8.755609e+002,1.242927e+000
8.794180e+002,1.794806e+000
8.832750e+002,6.000000e+000
8.871321e+002,6.000000e+000
8.909893e+002,2.424223e+000
8.948463e+002,6.000000e+000
8.987034e+002,1.891485e+000
9.025605e+002,1.876069e+000
9.064176e+002,2.152107e+000
9.102747e+002,1.526109e+000
9.141318e+002,1.379752e+000
9.179889e+002,1.493747e+000
9.218461e+002,1.621732e+000
9.257031e+002,1.297059e+000
9.295602e+002,1.233827e+000
9.334174e+002,1.417838e+000
9.372744e+002,1.483150e+000
9.411315e+002,2.447573e+000
9.449886e+002,6.000000e+000
9.488457e+002,6.000000e+000
9.527028e+002,6.000000e+000
9.565599e+002,1.956084e+000
9.604170e+002,2.369834e+000
9.642740e+002,6.000000e+000
9.681312e+002,6.000000e+000
9.719883e+002,6.000000e+000
9.758453e+002,2.327811e+000
9.797025e+002,6.000000e+000
9.835596e+002,6.000000e+000
9.874166e+002,6.000000e+000
9.912738e+002,2.302298e+000
9.951309e+002,1.815573e+000
9.989879e+002,1.805555e+000
1.002845e+003,1.936307e+000
1.006702e+003,2.387449e+000
1.010559e+003,6.000000e+000
1.014416e+003,6.000000e+000
1.018273e+003,2.238888e+000
1.022130e+003,2.286825e+000
1.025988e+003,2.022278e+000
1.029845e+003,1.863333e+000
1.033702e+003,2.152431e+000
1.037559e+003,2.497511e+000
1.041416e+003,2.415442e+000
1.045273e+003,2.805333e+000
1.049130e+003,2.237096e+000
1.052987e+003,1.936239e+000
1.056844e+003,1.895218e+000
1.060702e+003,2.042775e+000
1.064559e+003,2.189011e+000
1.068416e+003,2.204354e+000
1.072273e+003,2.134260e+000
1.076130e+003,2.072691e+000
1.079987e+003,2.071598e+000
1.083844e+003,2.133173e+000
1.087701e+003,2.739433e+000
1.091558e+003,6.000000e+000
1.095415e+003,2.515020e+000
1.099272e+003,2.324656e+000
1.103130e+003,2.070570e+000
1.106987e+003,1.859918e+000
1.110844e+003,1.857840e+000
1.114701e+003,1.791721e+000
1.118558e+003,1.735236e+000
1.122415e+003,1.883290e+000
1.126272e+003,1.896901e+000
1.130129e+003,1.748675e+000
1.133986e+003,1.793859e+000
1.137843e+003,1.782143e+000
1.141701e+003,1.705886e+000
1.145558e+003,1.685513e+000
1.149415e+003,1.671573e+000
1.153272e+003,1.710745e+000
1.157129e+003,1.831882e+000
1.160986e+003,1.882311e+000
1.164843e+003,1.868285e+000
1.168700e+003,1.813023e+000
1.172557e+003,1.755731e+000
1.176414e+003,1.725846e+000
1.180271e+003,1.698377e+000
1.184129e+003,1.730450e+000
1.187986e+003,1.708179e+000
1.191843e+003,1.729734e+000
1.195700e+003,1.762420e+000
1.199557e+003,1.738156e+000
1.203414e+003,1.694421e+000
1.207271e+003,1.666626e+000
1.211128e+003,1.650355e+000
1.214985e+003,1.711727e+000
1.218842e+003,1.690164e+000
1.222699e+003,1.599370e+000
1.226557e+003,1.521567e+000
1.230414e+003,1.496009e+000
1.234271e+003,1.437994e+000
1.238128e+003,1.359151e+000
1.241985e+003,1.278316e+000
1.245842e+003,1.224069e+000
1.249699e+003,1.178809e+000
1.253556e+003,1.111414e+000
1.257413e+003,1.050074e+000
1.261271e+003,1.017537e+000
1.265128e+003,9.769123e-001
1.268985e+003,9.287432e-001
1.272842e+003,9.020113e-001
1.276699e+003,8.835094e-001
1.280556e+003,8.580357e-001
1.284413e+003,8.280811e-001
1.288270e+003,8.080049e-001
1.292127e+003,7.840948e-001
1.295984e+003,7.579666e-001
1.299841e+003,7.459078e-001
1.303698e+003,7.386039e-001
1.307556e+003,7.215945e-001
1.311413e+003,7.006994e-001
1.315270e+003,6.925192e-001
1.319127e+003,6.852109e-001
1.322984e+003,6.726544e-001
1.326841e+003,6.620787e-001
1.330698e+003,6.527237e-001
1.334555e+003,6.438878e-001
1.338412e+003,6.355883e-001
1.342270e+003,6.344840e-001
1.346127e+003,6.329291e-001
1.349984e+003,6.338112e-001
1.353841e+003,6.318352e-001
1.357698e+003,6.351474e-001
1.361555e+003,6.422920e-001
1.365412e+003,6.478572e-001
1.369269e+003,6.583378e-001
1.373126e+003,6.720503e-001
1.376983e+003,6.863818e-001
1.380840e+003,7.012506e-001
1.384698e+003,7.158116e-001
1.388555e+003,7.344986e-001
1.392412e+003,7.566355e-001
1.396269e+003,7.809957e-001
1.400126e+003,8.088181e-001
1.403983e+003,8.344457e-001
1.407840e+003,8.413092e-001
1.411697e+003,8.620319e-001
1.415554e+003,8.871012e-001
1.419411e+003,9.086624e-001
1.423269e+003,9.288006e-001
1.427126e+003,9.422479e-001
1.430983e+003,9.484682e-001
1.434840e+003,9.542315e-001
1.438697e+003,9.582193e-001
1.442554e+003,9.485874e-001
1.446411e+003,9.254326e-001
1.450268e+003,9.072408e-001
1.454125e+003,8.985961e-001
1.457982e+003,8.895881e-001
1.461839e+003,8.729410e-001
1.465697e+003,8.559546e-001
1.469554e+003,8.499258e-001
1.473411e+003,8.490984e-001
1.477268e+003,8.567420e-001
1.481125e+003,8.711065e-001
1.484982e+003,8.868403e-001
1.488839e+003,9.108976e-001
1.492696e+003,9.298825e-001
1.496553e+003,9.489220e-001
1.500411e+003,9.624886e-001
1.504268e+003,9.627662e-001
1.508125e+003,9.767482e-001
1.511982e+003,9.739875e-001
1.515839e+003,9.582143e-001
1.519696e+003,9.475413e-001
1.523553e+003,9.278353e-001
1.527410e+003,9.098771e-001
1.531267e+003,8.949002e-001
1.535124e+003,8.820329e-001
1.538981e+003,8.670506e-001
1.542839e+003,8.393635e-001
1.546696e+003,8.095569e-001
1.550553e+003,7.895873e-001
1.554410e+003,7.721351e-001
1.558267e+003,7.594241e-001
1.562124e+003,7.518029e-001
1.565981e+003,7.417526e-001
1.569838e+003,7.222211e-001
1.573695e+003,7.055576e-001
1.577552e+003,6.976542e-001
1.581410e+003,6.962259e-001
1.585267e+003,7.014439e-001
1.589124e+003,7.089869e-001
1.592981e+003,7.247585e-001
1.596838e+003,7.484804e-001
1.600695e+003,7.814207e-001
1.604552e+003,8.154751e-001
1.608409e+003,8.558089e-001
1.612266e+003,9.165249e-001
1.616123e+003,9.659088e-001
1.619980e+003,1.002120e+000
1.623838e+003,1.037937e+000
1.627695e+003,1.076322e+000
1.631552e+003,1.097402e+000
1.635409e+003,1.108981e+000
1.639266e+003,1.118586e+000
1.643123e+003,1.108376e+000
1.646980e+003,1.097992e+000
1.650837e+003,1.072796e+000
1.654694e+003,1.024444e+000
1.658551e+003,9.816281e-001
1.662409e+003,9.444188e-001
1.666266e+003,8.966848e-001
1.670123e+003,8.520641e-001
1.673980e+003,8.138868e-001
1.677837e+003,7.804142e-001
1.681694e+003,7.444003e-001
1.685551e+003,7.116910e-001
1.689408e+003,6.841193e-001
1.693265e+003,6.549913e-001
1.697122e+003,6.308158e-001
1.700979e+003,6.129719e-001
1.704837e+003,5.973099e-001
1.708694e+003,5.829909e-001
1.712551e+003,5.736754e-001
1.716408e+003,5.659101e-001
1.720265e+003,5.564002e-001
1.724122e+003,5.470995e-001
1.727979e+003,5.403513e-001
1.731836e+003,5.371099e-001
1.735693e+003,5.318382e-001
1.739550e+003,5.245183e-001
1.743408e+003,5.229192e-001
1.747265e+003,5.214672e-001
1.751122e+003,5.139639e-001
1.754979e+003,5.082955e-001
1.758836e+003,5.081441e-001
1.762693e+003,5.090774e-001
1.766550e+003,5.110142e-001
1.770407e+003,5.120491e-001
1.774264e+003,5.106720e-001
1.778121e+003,5.112018e-001
1.781979e+003,5.116171e-001
1.785836e+003,5.081969e-001
1.789693e+003,4.986984e-001
1.793550e+003,4.917043e-001
1.797407e+003,4.889211e-001
1.801264e+003,4.872230e-001
1.805121e+003,4.847072e-001
1.808978e+003,4.809724e-001
1.812835e+003,4.793750e-001
1.816692e+003,4.795932e-001
1.820549e+003,4.779790e-001
1.824407e+003,4.778239e-001
1.828264e+003,4.795934e-001
1.832121e+003,4.765394e-001
1.835978e+003,4.732788e-001
1.839835e+003,4.735047e-001
1.843692e+003,4.695148e-001
1.847549e+003,4.661797e-001
1.851406e+003,4.630460e-001
1.855263e+003,4.611536e-001
1.859120e+003,4.597030e-001
1.862978e+003,4.579922e-001
1.866835e+003,4.561290e-001
1.870692e+003,4.536206e-001
1.874549e+003,4.519153e-001
1.878406e+003,4.516072e-001
1.882263e+003,4.534964e-001
1.886120e+003,4.530326e-001
1.889977e+003,4.516247e-001
1.893834e+003,4.503500e-001
1.897691e+003,4.485309e-001
1.901548e+003,4.471791e-001
1.905406e+003,4.432539e-001
1.909263e+003,4.388777e-001
1.913120e+003,4.368519e-001
1.916977e+003,4.370589e-001
1.920834e+003,4.361890e-001
1.924691e+003,4.352096e-001
1.928548e+003,4.315580e-001
1.932405e+003,4.307665e-001
1.936262e+003,4.321020e-001
1.940119e+003,4.319888e-001
1.943977e+003,4.291006e-001
1.947834e+003,4.266051e-001
1.951691e+003,4.222080e-001
1.955548e+003,4.194793e-001
1.959405e+003,4.189348e-001
1.963262e+003,4.159732e-001
1.967119e+003,4.125800e-001
1.970976e+003,4.096667e-001
1.974833e+003,4.064235e-001
1.978690e+003,4.035375e-001
1.982547e+003,4.019264e-001
1.986405e+003,4.027259e-001
1.990262e+003,4.042229e-001
1.994119e+003,4.037669e-001
1.997976e+003,4.036445e-001
2.001833e+003,4.045669e-001
2.005690e+003,4.026951e-001
2.009547e+003,3.991154e-001
2.013404e+003,3.955455e-001
2.017261e+003,3.930083e-001
2.021118e+003,3.933347e-001
2.024976e+003,3.920327e-001
2.028833e+003,3.873034e-001
2.032690e+003,3.822962e-001
2.036547e+003,3.828978e-001
2.040404e+003,3.841636e-001
2.044261e+003,3.854035e-001
2.048118e+003,3.858966e-001
2.051975e+003,3.867408e-001
2.055832e+003,3.859817e-001
2.059689e+003,3.834517e-001
2.063546e+003,3.827830e-001
2.067404e+003,3.817823e-001
2.071261e+003,3.791798e-001
2.075118e+003,3.780525e-001
2.078975e+003,3.776892e-001
2.082832e+003,3.764365e-001
2.086689e+003,3.761696e-001
2.090546e+003,3.775510e-001
2.094403e+003,3.776830e-001
2.098260e+003,3.773098e-001
2.102117e+003,3.772386e-001
2.105975e+003,3.783540e-001
2.109832e+003,3.796403e-001
2.113689e+003,3.783970e-001
2.117546e+003,3.769265e-001
2.121403e+003,3.765383e-001
2.125260e+003,3.762632e-001
2.129117e+003,3.766850e-001
2.132974e+003,3.767895e-001
2.136831e+003,3.778321e-001
2.140688e+003,3.814549e-001
2.144545e+003,3.807174e-001
2.148403e+003,3.780256e-001
2.152260e+003,3.772599e-001
2.156117e+003,3.764483e-001
2.159974e+003,3.776070e-001
2.163831e+003,3.813093e-001
2.167688e+003,3.825591e-001
2.171545e+003,3.781158e-001
2.175402e+003,3.780752e-001
2.179259e+003,3.809569e-001
2.183116e+003,3.808829e-001
2.186974e+003,3.801309e-001
2.190831e+003,3.824302e-001
2.194688e+003,3.849043e-001
2.198545e+003,3.868975e-001
2.202402e+003,3.855143e-001
2.206259e+003,3.880429e-001
2.210116e+003,3.889477e-001
2.213973e+003,3.869235e-001
2.217830e+003,3.874827e-001
2.221688e+003,3.909254e-001
2.225544e+003,3.901248e-001
2.229402e+003,3.871142e-001
2.233259e+003,3.874175e-001
2.237116e+003,3.900960e-001
2.240973e+003,3.898175e-001
2.244830e+003,3.917800e-001
2.248687e+003,3.973587e-001
2.252544e+003,3.959543e-001
2.256401e+003,3.944996e-001
2.260258e+003,3.950299e-001
2.264115e+003,3.946944e-001
2.267973e+003,3.968101e-001
2.271830e+003,4.007848e-001
2.275687e+003,4.043514e-001
2.279544e+003,4.054736e-001
2.283401e+003,4.038012e-001
2.287258e+003,4.032111e-001
2.291115e+003,4.036134e-001
2.294972e+003,4.045723e-001
2.298829e+003,4.073352e-001
2.302687e+003,4.065702e-001
2.306543e+003,4.063194e-001
2.310401e+003,4.100002e-001
2.314258e+003,4.124501e-001
2.318115e+003,4.123199e-001
2.321972e+003,4.093113e-001
2.325829e+003,4.086914e-001
2.329686e+003,4.121819e-001
2.333543e+003,4.136621e-001
2.337400e+003,4.147525e-001
2.341257e+003,4.140545e-001
2.345115e+003,4.150220e-001
2.348972e+003,4.184147e-001
2.352829e+003,4.136120e-001
2.356686e+003,4.097610e-001
2.360543e+003,4.146705e-001
2.364400e+003,4.168902e-001
2.368257e+003,4.139771e-001
2.372114e+003,4.138200e-001
2.375971e+003,4.114071e-001
2.379828e+003,4.094450e-001
2.383686e+003,4.095829e-001
2.387542e+003,4.107517e-001
2.391400e+003,4.106705e-001
2.395257e+003,4.103153e-001
2.399114e+003,4.140208e-001
2.402971e+003,4.151160e-001
2.406828e+003,4.139377e-001
2.410685e+003,4.106232e-001
2.414542e+003,4.057757e-001
2.418399e+003,4.070314e-001
2.422256e+003,4.079377e-001
2.426114e+003,4.056504e-001
2.429971e+003,4.037950e-001
2.433828e+003,4.018072e-001
2.437685e+003,4.003842e-001
2.441542e+003,4.024145e-001
2.445399e+003,4.044923e-001
2.449256e+003,4.038025e-001
2.453113e+003,4.030227e-001
2.456970e+003,4.003098e-001
2.460827e+003,3.988216e-001
2.464684e+003,3.996945e-001
2.468542e+003,3.990232e-001
2.472399e+003,3.966740e-001
2.476256e+003,3.979071e-001
2.480113e+003,3.989473e-001
2.483970e+003,3.969448e-001
2.487827e+003,3.963289e-001
2.491684e+003,3.966096e-001
2.495541e+003,3.947800e-001
2.499398e+003,3.958151e-001
2.503255e+003,3.964816e-001
2.507113e+003,3.973452e-001
2.510969e+003,3.989559e-001
2.514827e+003,3.994828e-001
2.518684e+003,4.014205e-001
2.522541e+003,4.011771e-001
2.526398e+003,3.997154e-001
2.530255e+003,3.984234e-001
2.534112e+003,4.015085e-001
2.537969e+003,4.041956e-001
2.541826e+003,4.059085e-001
2.545683e+003,4.087913e-001
2.549541e+003,4.120710e-001
2.553398e+003,4.146880e-001
2.557255e+003,4.129040e-001
2.561112e+003,4.123634e-001
2.564969e+003,4.157552e-001
2.568826e+003,4.150719e-001
2.572683e+003,4.180750e-001
2.576540e+003,4.227630e-001
2.580397e+003,4.264170e-001
2.584254e+003,4.316795e-001
2.588112e+003,4.348905e-001
2.591969e+003,4.367361e-001
2.595826e+003,4.389292e-001
2.599683e+003,4.419678e-001
2.603540e+003,4.477196e-001
2.607397e+003,4.508431e-001
2.611254e+003,4.505663e-001
2.615111e+003,4.498869e-001
2.618968e+003,4.521037e-001
2.622825e+003,4.573961e-001
2.626682e+003,4.606422e-001
2.630540e+003,4.639492e-001
2.634397e+003,4.682099e-001
2.638254e+003,4.717295e-001
2.642111e+003,4.758881e-001
2.645968e+003,4.821195e-001
2.649825e+003,4.869888e-001
2.653682e+003,4.899152e-001
2.657539e+003,4.952264e-001
2.661396e+003,4.974629e-001
2.665253e+003,5.022485e-001
2.669111e+003,5.073626e-001
2.672968e+003,5.092200e-001
2.676825e+003,5.121125e-001
2.680682e+003,5.183689e-001
2.684539e+003,5.276886e-001
2.688396e+003,5.305549e-001
2.692253e+003,5.328063e-001
2.696110e+003,5.397106e-001
2.699967e+003,5.440695e-001
2.703824e+003,5.494305e-001
2.707681e+003,5.542309e-001
2.711539e+003,5.596326e-001
2.715396e+003,5.652194e-001
2.719253e+003,5.689359e-001
2.723110e+003,5.760180e-001
2.726967e+003,5.837566e-001
2.730824e+003,5.893936e-001
2.734681e+003,5.955877e-001
2.738538e+003,6.003645e-001
2.742395e+003,6.052624e-001
2.746252e+003,6.135676e-001
2.750110e+003,6.147263e-001
2.753967e+003,6.194706e-001
2.757824e+003,6.304297e-001
2.761681e+003,6.379156e-001
2.765538e+003,6.402295e-001
2.769395e+003,6.455346e-001
2.773252e+003,6.502717e-001
2.777109e+003,6.514756e-001
2.780966e+003,6.613268e-001
2.784823e+003,6.723393e-001
2.788680e+003,6.771228e-001
2.792538e+003,6.787832e-001
2.796395e+003,6.846519e-001
2.800252e+003,6.916632e-001
2.804109e+003,7.004662e-001
2.807966e+003,7.089741e-001
2.811823e+003,7.192022e-001
2.815680e+003,7.234368e-001
2.819537e+003,7.321875e-001
2.823394e+003,7.467769e-001
2.827251e+003,7.544018e-001
2.831109e+003,7.545492e-001
2.834966e+003,7.594958e-001
2.838823e+003,7.714393e-001
2.842680e+003,7.788723e-001
2.846537e+003,7.835771e-001
2.850394e+003,7.971973e-001
2.854251e+003,8.070908e-001
2.858108e+003,8.120774e-001
2.861965e+003,8.124585e-001
2.865823e+003,8.155709e-001
2.869679e+003,8.294833e-001
2.873537e+003,8.358283e-001
2.877394e+003,8.394096e-001
2.881251e+003,8.488724e-001
2.885108e+003,8.616530e-001
2.888965e+003,8.695817e-001
2.892822e+003,8.814623e-001
2.896679e+003,8.925975e-001
2.900536e+003,8.933885e-001
2.904393e+003,8.920760e-001
2.908250e+003,9.047903e-001
2.912108e+003,9.148173e-001
2.915965e+003,9.205342e-001
2.919822e+003,9.340866e-001
2.923679e+003,9.506610e-001
2.927536e+003,9.495648e-001
2.931393e+003,9.586797e-001
2.935250e+003,9.878958e-001
2.939107e+003,1.003563e+000
2.942964e+003,9.991100e-001
2.946822e+003,1.001357e+000
2.950678e+003,1.007244e+000
2.954536e+003,1.012478e+000
2.958393e+003,1.017475e+000
2.962250e+003,1.024781e+000
2.966107e+003,1.036574e+000
2.969964e+003,1.047612e+000
2.973821e+003,1.061866e+000
2.977678e+003,1.069035e+000
2.981535e+003,1.086871e+000
2.985392e+003,1.109705e+000
2.989250e+003,1.112203e+000
2.993107e+003,1.103633e+000
2.996964e+003,1.109323e+000
3.000821e+003,1.123325e+000
3.004678e+003,1.131024e+000
3.008535e+003,1.155309e+000
3.012392e+003,1.166383e+000
3.016249e+003,1.158432e+000
3.020106e+003,1.180281e+000
3.023963e+003,1.204046e+000
3.027821e+003,1.204943e+000
3.031677e+003,1.213921e+000
3.035535e+003,1.228496e+000
3.039392e+003,1.236089e+000
3.043249e+003,1.241904e+000
3.047106e+003,1.251165e+000
3.050963e+003,1.251232e+000
3.054820e+003,1.267999e+000
3.058677e+003,1.299721e+000
3.062534e+003,1.306530e+000
3.066391e+003,1.318388e+000
3.070249e+003,1.305521e+000
3.074106e+003,1.307327e+000
3.077963e+003,1.321610e+000
3.081820e+003,1.328655e+000
3.085677e+003,1.347433e+000
3.089534e+003,1.360685e+000
3.093391e+003,1.373011e+000
3.097248e+003,1.404378e+000
3.101105e+003,1.415884e+000
3.104962e+003,1.407227e+000
3.108820e+003,1.399899e+000
3.112677e+003,1.405515e+000
3.116534e+003,1.437836e+000
3.120391e+003,1.474139e+000
3.124248e+003,1.454951e+000
3.128105e+003,1.444504e+000
3.131962e+003,1.475117e+000
3.135819e+003,1.452098e+000
3.139676e+003,1.460573e+000
3.143533e+003,1.516523e+000
3.147390e+003,1.536567e+000
3.151248e+003,1.541215e+000
3.155105e+003,1.531065e+000
3.158962e+003,1.552358e+000
3.162819e+003,1.596832e+000
3.166676e+003,1.584829e+000
3.170533e+003,1.579246e+000
3.174390e+003,1.621423e+000
3.178247e+003,1.603916e+000
3.182104e+003,1.566464e+000
3.185961e+003,1.587102e+000
3.189819e+003,1.652145e+000
3.193676e+003,1.667211e+000
3.197533e+003,1.701704e+000
3.201390e+003,1.693666e+000
3.205247e+003,1.683925e+000
3.209104e+003,1.713070e+000
3.212961e+003,1.708001e+000
3.216818e+003,1.729219e+000
3.220675e+003,1.776762e+000
3.224532e+003,1.797797e+000
3.228389e+003,1.737409e+000
3.232247e+003,1.732989e+000
3.236104e+003,1.730800e+000
3.239961e+003,1.798414e+000
3.243818e+003,1.831333e+000
3.247675e+003,1.732351e+000
3.251532e+003,1.729847e+000
3.255389e+003,1.754926e+000
3.259246e+003,1.747327e+000
3.263103e+003,1.774827e+000
3.266960e+003,1.760189e+000
3.270818e+003,1.717931e+000
3.274675e+003,1.723967e+000
3.278532e+003,1.750134e+000
3.282389e+003,1.760957e+000
3.286246e+003,1.770716e+000
3.290103e+003,1.768620e+000
3.293960e+003,1.750507e+000
3.297817e+003,1.837108e+000
3.301674e+003,1.896413e+000
3.305531e+003,1.871391e+000
3.309388e+003,1.886059e+000
3.313246e+003,1.931812e+000
3.317103e+003,1.865218e+000
3.320960e+003,1.802648e+000
3.324817e+003,1.802629e+000
3.328674e+003,1.933643e+000
3.332531e+003,1.974964e+000
3.336388e+003,1.867187e+000
3.340245e+003,1.838941e+000
3.344102e+003,1.867162e+000
3.347959e+003,1.896470e+000
3.351817e+003,1.951788e+000
3.355674e+003,1.943250e+000
3.359531e+003,1.920567e+000
3.363388e+003,1.841017e+000
3.367245e+003,1.796136e+000
3.371102e+003,1.902269e+000
3.374959e+003,1.917076e+000
3.378816e+003,1.825415e+000
3.382673e+003,1.895549e+000
3.386530e+003,2.012885e+000
3.390387e+003,1.896091e+000
3.394245e+003,1.810725e+000
3.398102e+003,1.955245e+000
3.401959e+003,1.992480e+000
3.405816e+003,1.976569e+000
3.409673e+003,1.959849e+000
3.413530e+003,1.931322e+000
3.417387e+003,1.866130e+000
3.421244e+003,1.847624e+000
3.425101e+003,1.839682e+000
3.428958e+003,1.846951e+000
3.432815e+003,1.926001e+000
3.436673e+003,2.015948e+000
3.440530e+003,2.058168e+000
3.444387e+003,2.089209e+000
3.448244e+003,1.974318e+000
3.452101e+003,1.887847e+000
3.455958e+003,1.955974e+000
3.459815e+003,1.904062e+000
3.463672e+003,1.861288e+000
3.467529e+003,1.923226e+000
3.471386e+003,1.981475e+000
3.475244e+003,2.156150e+000
3.479101e+003,2.147026e+000
3.482958e+003,1.974276e+000
3.486815e+003,1.836252e+000
3.490672e+003,1.808807e+000
3.494529e+003,1.916924e+000
3.498386e+003,1.969097e+000
3.502243e+003,2.038774e+000
3.506100e+003,2.104387e+000
3.509958e+003,2.018863e+000
3.513814e+003,2.016920e+000
3.517672e+003,1.997334e+000
3.521529e+003,1.911816e+000
3.525386e+003,1.818934e+000
3.529243e+003,1.793445e+000
3.533100e+003,1.948546e+000
3.536957e+003,2.053083e+000
3.540814e+003,2.002203e+000
3.544671e+003,2.077069e+000
3.548528e+003,2.100434e+000
3.552385e+003,1.982537e+000
3.556243e+003,2.087067e+000
3.560100e+003,2.055073e+000
3.563957e+003,1.929544e+000
3.567814e+003,1.892069e+000
3.571671e+003,1.908227e+000
3.575528e+003,1.959336e+000
3.579385e+003,2.015592e+000
3.583242e+003,2.052676e+000
3.587099e+003,2.005126e+000
3.590957e+003,1.934469e+000
3.594813e+003,1.868121e+000
3.598671e+003,1.816252e+000
3.602528e+003,1.799585e+000
3.606385e+003,1.867824e+000
3.610242e+003,1.833441e+000
3.614099e+003,1.704203e+000
3.617956e+003,1.622646e+000
3.621813e+003,1.584584e+000
3.625670e+003,1.477831e+000
3.629527e+003,1.350105e+000
3.633385e+003,1.256240e+000
3.637242e+003,1.196016e+000
3.641099e+003,1.101308e+000
3.644956e+003,9.888094e-001
3.648813e+003,9.069654e-001
3.652670e+003,8.327810e-001
3.656527e+003,7.462057e-001
3.660384e+003,6.696722e-001
3.664241e+003,6.039808e-001
3.668098e+003,5.468868e-001
3.671956e+003,4.984265e-001
3.675813e+003,4.492724e-001
3.679670e+003,4.057249e-001
3.683527e+003,3.749464e-001
3.687384e+003,3.448910e-001
3.691241e+003,3.173687e-001
3.695098e+003,2.955082e-001
3.698955e+003,2.728968e-001
3.702812e+003,2.528848e-001
3.706669e+003,2.391875e-001
3.710526e+003,2.313843e-001
3.714384e+003,2.210765e-001
3.718241e+003,2.088261e-001
3.722098e+003,1.988925e-001
3.725955e+003,1.937404e-001
3.729812e+003,1.885784e-001
3.733669e+003,1.830983e-001
3.737526e+003,1.793779e-001
3.741383e+003,1.765247e-001
3.745240e+003,1.717698e-001
3.749097e+003,1.671688e-001
3.752955e+003,1.628574e-001
3.756812e+003,1.595645e-001
3.760669e+003,1.593127e-001
3.764526e+003,1.588254e-001
3.768383e+003,1.554567e-001
3.772240e+003,1.549283e-001
3.776097e+003,1.561401e-001
3.779954e+003,1.539045e-001
3.783811e+003,1.492684e-001
3.787668e+003,1.485429e-001
3.791525e+003,1.479122e-001
3.795383e+003,1.458901e-001
3.799240e+003,1.459761e-001
3.803097e+003,1.457431e-001
3.806954e+003,1.441486e-001
3.810811e+003,1.420685e-001
3.814668e+003,1.411730e-001
3.818525e+003,1.406854e-001
3.822382e+003,1.407783e-001
3.826239e+003,1.398464e-001
3.830096e+003,1.400893e-001
3.833954e+003,1.407246e-001
3.837811e+003,1.388111e-001
3.841668e+003,1.398133e-001
3.845525e+003,1.378660e-001
3.849382e+003,1.362125e-001
3.853239e+003,1.328079e-001
3.857096e+003,1.326483e-001
3.860953e+003,1.343847e-001
3.864810e+003,1.344604e-001
3.868667e+003,1.321716e-001
3.872524e+003,1.316854e-001
3.876382e+003,1.311146e-001
3.880239e+003,1.320026e-001
3.884096e+003,1.345254e-001
3.887953e+003,1.335323e-001
3.891810e+003,1.316300e-001
3.895667e+003,1.324825e-001
3.899524e+003,1.309631e-001
3.903381e+003,1.313968e-001
3.907238e+003,1.327213e-001
3.911095e+003,1.296234e-001
3.914953e+003,1.281329e-001
3.918810e+003,1.280403e-001
3.922667e+003,1.284532e-001
3.926524e+003,1.289961e-001
3.930381e+003,1.291682e-001
3.934238e+003,1.280877e-001
3.938095e+003,1.279575e-001
3.941952e+003,1.281627e-001
3.945809e+003,1.266122e-001
3.949667e+003,1.249777e-001
3.953523e+003,1.240725e-001
3.957381e+003,1.252019e-001
3.961238e+003,1.253783e-001
3.965095e+003,1.234771e-001
3.968952e+003,1.220918e-001
3.972809e+003,1.214994e-001
3.976666e+003,1.225193e-001
3.980523e+003,1.233549e-001
3.984380e+003,1.214555e-001
3.988237e+003,1.219058e-001
3.992094e+003,1.222414e-001
3.995952e+003,1.209562e-001
3.999809e+003,1.210020e-001
4.003666e+003,1.196439e-001
4.007523e+003,1.205616e-001
4.011380e+003,1.226499e-001
4.015237e+003,1.202112e-001
4.019094e+003,1.216245e-001
4.022951e+003,1.222459e-001
4.026808e+003,1.188895e-001
4.030666e+003,1.174719e-001
4.034522e+003,1.191167e-001
4.038380e+003,1.203630e-001
4.042237e+003,1.202226e-001
4.046094e+003,1.195173e-001
4.049951e+003,1.198025e-001
4.053808e+003,1.182136e-001
4.057665e+003,1.157556e-001
4.061522e+003,1.152510e-001
4.065379e+003,1.155681e-001
4.069236e+003,1.143769e-001
4.073094e+003,1.138474e-001
4.076951e+003,1.146133e-001
4.080808e+003,1.150629e-001
4.084665e+003,1.156320e-001
4.088522e+003,1.116501e-001
4.092379e+003,1.082272e-001
4.096236e+003,1.107514e-001
4.100093e+003,1.098255e-001
4.103950e+003,1.085779e-001
4.107808e+003,1.098950e-001
4.111665e+003,1.100559e-001
4.115521e+003,1.075373e-001
4.119379e+003,1.071645e-001
4.123236e+003,1.074614e-001
4.127093e+003,1.077131e-001
4.130950e+003,1.061982e-001
4.134807e+003,1.039681e-001
4.138664e+003,1.048461e-001
4.142521e+003,1.071105e-001
4.146378e+003,1.064799e-001
4.150235e+003,1.035736e-001
4.154093e+003,1.038841e-001
4.157950e+003,1.049987e-001
4.161807e+003,1.041557e-001
4.165664e+003,1.045867e-001
4.169521e+003,1.043664e-001
4.173378e+003,1.015167e-001
4.177235e+003,9.732405e-002
4.181092e+003,9.968814e-002
4.184949e+003,1.031103e-001
4.188807e+003,1.024206e-001
4.192664e+003,1.005472e-001
4.196521e+003,9.927551e-002
4.200378e+003,9.808604e-002
4.204235e+003,9.877919e-002
4.208092e+003,1.012400e-001
4.211949e+003,1.006825e-001
4.215806e+003,9.849215e-002
4.219663e+003,9.841558e-002
4.223521e+003,1.013876e-001
4.227377e+003,1.008515e-001
4.231234e+003,9.793000e-002
4.235092e+003,9.530754e-002
4.238949e+003,9.445474e-002
4.242806e+003,9.627327e-002
4.246663e+003,9.865101e-002
4.250520e+003,1.006996e-001
4.254377e+003,9.975734e-002
4.258234e+003,9.868598e-002
4.262091e+003,9.702326e-002
4.265948e+003,9.643401e-002
4.269806e+003,9.830392e-002
4.273663e+003,9.985203e-002
4.277520e+003,1.023320e-001
4.281377e+003,1.014587e-001
4.285234e+003,9.789417e-002
4.289091e+003,9.686094e-002
4.292948e+003,9.428011e-002
4.296805e+003,9.230413e-002
4.300662e+003,9.237269e-002
4.304520e+003,9.645706e-002
4.308376e+003,1.008174e-001
4.312233e+003,1.005764e-001
4.316091e+003,9.734797e-002
4.319948e+003,9.528877e-002
4.323805e+003,9.769123e-002
4.327662e+003,9.762248e-002
4.331519e+003,9.628084e-002
4.335376e+003,9.734089e-002
4.339233e+003,9.977406e-002
4.343090e+003,9.866377e-002
4.346947e+003,9.599032e-002
4.350805e+003,9.585292e-002
4.354662e+003,9.800465e-002
4.358519e+003,1.028181e-001
4.362376e+003,1.041915e-001
4.366233e+003,1.019295e-001
4.370090e+003,1.047853e-001
4.373947e+003,1.060261e-001
4.377804e+003,1.031485e-001
4.381661e+003,1.025045e-001
4.385519e+003,1.009210e-001
4.389375e+003,9.961816e-002
4.393232e+003,1.027368e-001
4.397090e+003,1.028444e-001
4.400947e+003,1.033607e-001
4.404804e+003,1.038277e-001
4.408661e+003,1.013611e-001
4.412518e+003,9.980633e-002
4.416375e+003,1.033755e-001
4.420232e+003,1.056083e-001
4.424089e+003,1.037923e-001
4.427946e+003,1.047929e-001
4.431804e+003,1.061373e-001
4.435661e+003,1.073909e-001
4.439518e+003,1.068906e-001
4.443375e+003,1.061213e-001
4.447232e+003,1.071108e-001
4.451089e+003,1.053966e-001
4.454946e+003,1.032413e-001
4.458803e+003,1.069148e-001
4.462660e+003,1.099840e-001
4.466518e+003,1.080296e-001
4.470375e+003,1.074921e-001
4.474231e+003,1.073549e-001
4.478089e+003,1.064052e-001
4.481946e+003,1.086789e-001
4.485803e+003,1.096869e-001
4.489660e+003,1.091537e-001
4.493517e+003,1.073204e-001
4.497375e+003,1.069900e-001
4.501231e+003,1.068331e-001
4.505088e+003,1.035814e-001
4.508946e+003,1.029507e-001
4.512803e+003,1.057312e-001
4.516660e+003,1.072539e-001
4.520517e+003,1.047714e-001
4.524374e+003,1.009998e-001
4.528231e+003,1.010794e-001
4.532088e+003,1.035022e-001
4.535945e+003,1.042165e-001
4.539802e+003,1.039022e-001
4.543660e+003,1.041957e-001
4.547517e+003,1.054199e-001
4.551374e+003,1.039400e-001
4.555231e+003,1.021850e-001
4.559088e+003,1.017034e-001
4.562945e+003,1.020437e-001
4.566802e+003,1.039073e-001
4.570659e+003,1.030758e-001
4.574516e+003,1.019472e-001
4.578374e+003,1.026442e-001
4.582230e+003,1.029746e-001
4.586087e+003,1.031712e-001
4.589945e+003,1.025039e-001
4.593802e+003,1.028576e-001
4.597659e+003,1.018766e-001
4.601516e+003,9.680942e-002
4.605373e+003,9.706660e-002
4.609230e+003,1.000468e-001
4.613087e+003,1.001341e-001
4.616944e+003,1.007746e-001
4.620801e+003,1.000688e-001
4.624659e+003,9.798276e-002
4.628516e+003,9.893008e-002
4.632373e+003,9.769430e-002
4.636230e+003,9.544721e-002
4.640087e+003,9.715225e-002
4.643944e+003,1.009352e-001
4.647801e+003,1.020938e-001
4.651658e+003,1.013459e-001
4.655515e+003,1.017119e-001
4.659373e+003,1.004003e-001
4.663229e+003,1.019449e-001
4.667086e+003,1.036224e-001
4.670944e+003,1.031692e-001
4.674801e+003,1.008044e-001
4.678658e+003,1.008854e-001
4.682515e+003,1.015664e-001
4.686372e+003,1.005129e-001
4.690229e+003,1.015205e-001
4.694086e+003,1.042619e-001
4.697943e+003,1.002997e-001
4.701800e+003,9.576752e-002
4.705658e+003,1.000097e-001
4.709515e+003,1.032787e-001
4.713372e+003,1.037323e-001
4.717229e+003,1.062592e-001
4.721086e+003,1.024337e-001
4.724943e+003,9.984852e-002
4.728800e+003,1.016771e-001
4.732657e+003,1.057373e-001
4.736514e+003,1.043857e-001
4.740372e+003,1.024823e-001
4.744229e+003,1.043994e-001
4.748085e+003,1.056660e-001
4.751943e+003,1.059826e-001
4.755800e+003,1.060864e-001
4.759657e+003,1.071004e-001
4.763514e+003,1.037275e-001
4.767371e+003,1.020979e-001
4.771228e+003,1.011531e-001
4.775085e+003,9.984948e-002
4.778942e+003,1.034416e-001
4.782799e+003,1.078823e-001
4.786657e+003,1.099487e-001
4.790514e+003,1.073403e-001
4.794371e+003,1.046237e-001
4.798228e+003,1.046792e-001
4.802085e+003,1.075530e-001
4.805942e+003,1.100596e-001
4.809799e+003,1.081554e-001
4.813656e+003,1.071717e-001
4.817513e+003,1.058017e-001
4.821371e+003,1.024124e-001
4.825228e+003,1.029164e-001
4.829084e+003,1.060946e-001
4.832942e+003,1.077851e-001
4.836799e+003,1.125278e-001
4.840656e+003,1.139798e-001
4.844513e+003,1.100684e-001
4.848370e+003,1.105990e-001
4.852227e+003,1.121775e-001
4.856084e+003,1.125989e-001
4.859941e+003,1.143336e-001
4.863798e+003,1.141259e-001
4.867656e+003,1.115348e-001
4.871513e+003,1.092891e-001
4.875370e+003,1.083031e-001
4.879227e+003,1.074679e-001
4.883084e+003,1.082890e-001
4.886941e+003,1.138729e-001
4.890798e+003,1.184209e-001
4.894655e+003,1.149957e-001
4.898512e+003,1.118494e-001
4.902370e+003,1.114137e-001
4.906227e+003,1.155663e-001
4.910083e+003,1.166501e-001
4.913941e+003,1.113812e-001
4.917798e+003,1.080621e-001
4.921655e+003,1.121738e-001
4.925512e+003,1.199582e-001
4.929369e+003,1.207594e-001
4.933226e+003,1.175430e-001
4.937083e+003,1.179038e-001
4.940940e+003,1.148396e-001
4.944797e+003,1.154633e-001
4.948655e+003,1.224436e-001
4.952512e+003,1.215079e-001
4.956369e+003,1.211815e-001
4.960226e+003,1.181665e-001
4.964083e+003,1.129116e-001
4.967940e+003,1.145813e-001
4.971797e+003,1.196129e-001
4.975654e+003,1.224528e-001
4.979511e+003,1.212626e-001
4.983369e+003,1.198855e-001
4.987226e+003,1.211447e-001
4.991083e+003,1.254661e-001
4.994940e+003,1.297941e-001
4.998797e+003,1.284080e-001
5.002654e+003,1.286738e-001
5.006511e+003,1.302242e-001
5.010368e+003,1.307010e-001
5.014225e+003,1.291357e-001
5.018083e+003,1.235396e-001
5.021939e+003,1.199525e-001
5.025796e+003,1.199317e-001
5.029654e+003,1.234722e-001
5.033511e+003,1.289766e-001
5.037368e+003,1.315526e-001
5.041225e+003,1.302558e-001
5.045082e+003,1.286526e-001
5.048939e+003,1.293263e-001
5.052796e+003,1.301584e-001
5.056653e+003,1.303712e-001
5.060510e+003,1.307140e-001
5.064368e+003,1.337226e-001
5.068225e+003,1.342119e-001
5.072082e+003,1.334901e-001
5.075939e+003,1.346196e-001
5.079796e+003,1.316380e-001
5.083653e+003,1.308290e-001
5.087510e+003,1.330706e-001
5.091367e+003,1.310623e-001
5.095224e+003,1.320314e-001
5.099082e+003,1.342736e-001
5.102938e+003,1.367634e-001
5.106795e+003,1.346069e-001
5.110653e+003,1.325492e-001
5.114510e+003,1.356415e-001
5.118367e+003,1.391917e-001
5.122224e+003,1.402979e-001
5.126081e+003,1.433807e-001
5.129938e+003,1.450926e-001
5.133795e+003,1.422393e-001
5.137652e+003,1.402800e-001
5.141509e+003,1.408637e-001
5.145367e+003,1.453288e-001
5.149224e+003,1.453035e-001
5.153081e+003,1.387134e-001
5.156938e+003,1.380962e-001
5.160795e+003,1.434693e-001
5.164652e+003,1.462794e-001
5.168509e+003,1.507741e-001
5.172366e+003,1.499060e-001
5.176223e+003,1.458978e-001
5.180081e+003,1.453939e-001
5.183938e+003,1.466482e-001
5.187794e+003,1.424508e-001
5.191652e+003,1.404418e-001
5.195509e+003,1.432310e-001
5.199366e+003,1.468562e-001
5.203223e+003,1.461160e-001
5.207080e+003,1.477962e-001
5.210937e+003,1.511844e-001
5.214794e+003,1.532611e-001
5.218651e+003,1.480103e-001
5.222508e+003,1.430585e-001
5.226366e+003,1.450305e-001
5.230223e+003,1.466019e-001
5.234080e+003,1.458391e-001
5.237937e+003,1.482714e-001
5.241794e+003,1.454287e-001
5.245651e+003,1.467605e-001
5.249508e+003,1.428474e-001
5.253365e+003,1.352580e-001
5.257222e+003,1.412090e-001
5.261080e+003,1.442770e-001
5.264937e+003,1.408625e-001
5.268793e+003,1.435505e-001
5.272651e+003,1.427952e-001
5.276508e+003,1.362686e-001
5.280365e+003,1.354391e-001
5.284222e+003,1.386204e-001
5.288079e+003,1.397852e-001
5.291936e+003,1.339795e-001
5.295793e+003,1.326354e-001
5.299650e+003,1.346926e-001
5.303507e+003,1.367994e-001
5.307365e+003,1.369441e-001
5.311222e+003,1.385102e-001
5.315079e+003,1.412590e-001
5.318936e+003,1.370644e-001
5.322793e+003,1.330894e-001
5.326650e+003,1.359946e-001
5.330507e+003,1.399414e-001
5.334364e+003,1.404888e-001
5.338221e+003,1.372887e-001
5.342079e+003,1.361704e-001
5.345936e+003,1.415113e-001
5.349792e+003,1.421861e-001
5.353650e+003,1.408303e-001
5.357507e+003,1.401687e-001
5.361364e+003,1.384433e-001
5.365221e+003,1.358200e-001
5.369078e+003,1.362809e-001
5.372935e+003,1.398747e-001
5.376792e+003,1.392842e-001
5.380649e+003,1.350896e-001
5.384506e+003,1.352621e-001
5.388364e+003,1.371036e-001
5.392221e+003,1.320041e-001
5.396078e+003,1.290176e-001
5.399935e+003,1.371335e-001
5.403792e+003,1.402731e-001
5.407649e+003,1.443272e-001
5.411506e+003,1.515730e-001
5.415363e+003,1.495384e-001
5.419220e+003,1.431778e-001
5.423078e+003,1.427006e-001
5.426935e+003,1.449798e-001
5.430792e+003,1.435144e-001
5.434649e+003,1.440169e-001
5.438506e+003,1.490406e-001
5.442363e+003,1.520838e-001
5.446220e+003,1.518549e-001
5.450077e+003,1.493155e-001
5.453934e+003,1.450633e-001
5.457792e+003,1.462947e-001
5.461648e+003,1.428896e-001
5.465505e+003,1.431666e-001
5.469363e+003,1.506626e-001
5.473220e+003,1.495502e-001
5.477077e+003,1.499034e-001
5.480934e+003,1.537683e-001
5.484791e+003,1.503888e-001
5.488648e+003,1.452467e-001
5.492505e+003,1.425523e-001
5.496362e+003,1.317629e-001
5.500219e+003,1.263903e-001
5.504077e+003,1.350997e-001
5.507934e+003,1.403775e-001
5.511791e+003,1.440434e-001
5.515648e+003,1.466258e-001
5.519505e+003,1.474988e-001
5.523362e+003,1.508701e-001
5.527219e+003,1.537389e-001
5.531076e+003,1.513758e-001
5.534933e+003,1.415238e-001
5.538791e+003,1.405385e-001
5.542647e+003,1.424088e-001
5.546504e+003,1.436843e-001
5.550362e+003,1.465682e-001
5.554219e+003,1.420872e-001
5.558076e+003,1.454121e-001
5.561933e+003,1.516608e-001
5.565790e+003,1.524183e-001
5.569647e+003,1.556122e-001
5.573504e+003,1.528089e-001
5.577361e+003,1.442026e-001
5.581218e+003,1.454107e-001
5.585076e+003,1.490421e-001
5.588933e+003,1.529325e-001
5.592790e+003,1.575012e-001
5.596647e+003,1.649803e-001
5.600504e+003,1.622854e-001
5.604361e+003,1.538141e-001
5.608218e+003,1.499463e-001
5.612075e+003,1.523378e-001
5.615932e+003,1.521102e-001
5.619790e+003,1.495107e-001
5.623646e+003,1.494784e-001
5.627503e+003,1.517485e-001
5.631361e+003,1.493194e-001
5.635218e+003,1.515439e-001
5.639075e+003,1.488915e-001
5.642932e+003,1.468976e-001
5.646789e+003,1.450850e-001
5.650646e+003,1.454505e-001
5.654503e+003,1.516972e-001
5.658360e+003,1.571033e-001
5.662217e+003,1.599658e-001
5.666075e+003,1.605906e-001
5.669932e+003,1.521939e-001
5.673789e+003,1.425130e-001
5.677646e+003,1.424493e-001
5.681503e+003,1.463655e-001
5.685360e+003,1.459301e-001
5.689217e+003,1.464402e-001
5.693074e+003,1.503816e-001
5.696931e+003,1.525999e-001
5.700789e+003,1.488722e-001
5.704646e+003,1.522519e-001
5.708502e+003,1.529638e-001
5.712360e+003,1.598620e-001
5.716217e+003,1.628296e-001
5.720074e+003,1.558137e-001
5.723931e+003,1.503324e-001
5.727788e+003,1.499563e-001
5.731645e+003,1.533087e-001
5.735502e+003,1.580271e-001
5.739359e+003,1.561528e-001
5.743216e+003,1.473343e-001
5.747074e+003,1.522708e-001
5.750931e+003,1.626109e-001
5.754788e+003,1.649827e-001
5.758645e+003,1.599135e-001
5.762502e+003,1.615475e-001
5.766359e+003,1.609132e-001
5.770216e+003,1.570371e-001
5.774073e+003,1.595548e-001
5.777930e+003,1.586923e-001
5.781788e+003,1.600568e-001
5.785645e+003,1.617610e-001
5.789501e+003,1.559021e-001
5.793359e+003,1.562449e-001
5.797216e+003,1.585700e-001
5.801073e+003,1.544976e-001
5.804930e+003,1.522025e-001
5.808787e+003,1.529196e-001
5.812644e+003,1.560090e-001
5.816501e+003,1.578066e-001
5.820358e+003,1.547987e-001
5.824215e+003,1.502515e-001
5.828073e+003,1.469698e-001
5.831930e+003,1.519063e-001
5.835787e+003,1.572616e-001
5.839644e+003,1.571283e-001
5.843501e+003,1.572254e-001
5.847358e+003,1.557613e-001
5.851215e+003,1.541748e-001
5.855072e+003,1.522970e-001
5.858929e+003,1.530728e-001
5.862787e+003,1.611378e-001
5.866644e+003,1.623129e-001
5.870500e+003,1.581423e-001
5.874358e+003,1.598769e-001
5.878215e+003,1.657018e-001
5.882072e+003,1.672426e-001
5.885929e+003,1.634347e-001
5.889786e+003,1.595845e-001
5.893643e+003,1.567232e-001
5.897500e+003,1.577972e-001
5.901357e+003,1.610613e-001
5.905214e+003,1.585393e-001
5.909072e+003,1.527361e-001
5.912929e+003,1.531399e-001
5.916786e+003,1.553368e-001
5.920643e+003,1.597388e-001
5.924500e+003,1.628695e-001
5.928357e+003,1.644745e-001
5.932214e+003,1.657867e-001
5.936071e+003,1.574445e-001
5.939928e+003,1.502022e-001
5.943786e+003,1.471305e-001
5.947643e+003,1.596487e-001
5.951500e+003,1.710507e-001
5.955357e+003,1.708020e-001
5.959214e+003,1.631437e-001
5.963071e+003,1.525888e-001
5.966928e+003,1.557758e-001
5.970785e+003,1.629252e-001
5.974642e+003,1.661931e-001
5.978500e+003,1.655150e-001
5.982356e+003,1.586114e-001
5.986213e+003,1.545807e-001
5.990071e+003,1.577138e-001
5.993928e+003,1.649576e-001
5.997785e+003,1.653578e-001
6.001642e+003,1.640425e-001
6.005499e+003,1.678293e-001
6.009356e+003,1.677726e-001
6.013213e+003,1.605087e-001
6.017070e+003,1.546041e-001
6.020927e+003,1.573849e-001
6.024785e+003,1.558849e-001
6.028642e+003,1.529134e-001
6.032499e+003,1.590182e-001
6.036356e+003,1.618363e-001
6.040213e+003,1.565521e-001
6.044070e+003,1.542217e-001
6.047927e+003,1.613538e-001
6.051784e+003,1.616477e-001
6.055641e+003,1.546883e-001
6.059499e+003,1.544668e-001
6.063355e+003,1.563428e-001
6.067212e+003,1.578104e-001
6.071070e+003,1.602238e-001
6.074927e+003,1.637383e-001
6.078784e+003,1.565660e-001
6.082641e+003,1.542428e-001
6.086498e+003,1.605950e-001
6.090355e+003,1.613587e-001
6.094212e+003,1.576228e-001
6.098069e+003,1.549762e-001
6.101926e+003,1.624522e-001
6.105784e+003,1.573071e-001
6.109641e+003,1.455663e-001
6.113498e+003,1.504724e-001
6.117355e+003,1.587110e-001
6.121212e+003,1.600226e-001
6.125069e+003,1.631605e-001
6.128926e+003,1.674464e-001
6.132783e+003,1.652798e-001
6.136640e+003,1.657341e-001
6.140498e+003,1.773376e-001
6.144354e+003,1.836451e-001
6.148211e+003,1.755190e-001
6.152069e+003,1.613941e-001
6.155926e+003,1.689669e-001
6.159783e+003,1.796425e-001
6.163640e+003,1.753834e-001
6.167497e+003,1.699034e-001
6.171354e+003,1.699519e-001
6.175211e+003,1.730528e-001
6.179068e+003,1.755352e-001
6.182925e+003,1.721578e-001
6.186783e+003,1.687637e-001
6.190640e+003,1.723967e-001
6.194497e+003,1.725649e-001
6.198354e+003,1.683610e-001
6.202211e+003,1.710822e-001
6.206068e+003,1.739770e-001
6.209925e+003,1.735743e-001
6.213782e+003,1.713906e-001
6.217639e+003,1.690612e-001
6.221497e+003,1.736123e-001
6.225354e+003,1.721983e-001
6.229210e+003,1.692328e-001
6.233068e+003,1.725355e-001
6.236925e+003,1.753011e-001
6.240782e+003,1.729432e-001
6.244639e+003,1.672702e-001
6.248496e+003,1.634050e-001
6.252353e+003,1.689442e-001
6.256210e+003,1.728773e-001
6.260067e+003,1.718996e-001
6.263924e+003,1.634714e-001
6.267782e+003,1.650281e-001
6.271639e+003,1.721239e-001
6.275496e+003,1.742949e-001
6.279353e+003,1.703217e-001
6.283210e+003,1.698421e-001
6.287067e+003,1.656915e-001
6.290924e+003,1.625620e-001
6.294781e+003,1.638923e-001
6.298638e+003,1.692368e-001
6.302496e+003,1.670731e-001
6.306353e+003,1.678194e-001
6.310209e+003,1.662124e-001
6.314067e+003,1.666779e-001
6.317924e+003,1.710370e-001
6.321781e+003,1.684923e-001
6.325638e+003,1.700369e-001
6.329495e+003,1.725343e-001
6.333352e+003,1.671987e-001
6.337209e+003,1.628450e-001
6.341066e+003,1.681564e-001
6.344923e+003,1.747829e-001
6.348780e+003,1.748891e-001
6.352638e+003,1.689652e-001
6.356495e+003,1.652094e-001
6.360352e+003,1.701584e-001
6.364209e+003,1.714637e-001
6.368066e+003,1.567983e-001
6.371923e+003,1.524311e-001
6.375780e+003,1.609799e-001
6.379637e+003,1.685698e-001
6.383494e+003,1.631781e-001
6.387352e+003,1.596415e-001
6.391208e+003,1.674424e-001
6.395065e+003,1.655924e-001
6.398923e+003,1.708757e-001
6.402780e+003,1.856508e-001
6.406637e+003,1.844780e-001
6.410494e+003,1.869270e-001
6.414351e+003,1.901279e-001
6.418208e+003,1.859594e-001
6.422065e+003,1.889417e-001
6.425922e+003,1.828151e-001
6.429779e+003,1.804639e-001
6.433637e+003,1.813616e-001
6.437494e+003,1.759871e-001
6.441351e+003,1.685053e-001
6.445208e+003,1.656840e-001
6.449065e+003,1.657662e-001
6.452922e+003,1.695635e-001
6.456779e+003,1.647482e-001
6.460636e+003,1.640530e-001
6.464493e+003,1.715631e-001
6.468351e+003,1.741788e-001
6.472208e+003,1.750535e-001
6.476064e+003,1.686585e-001
6.479922e+003,1.697294e-001
6.483779e+003,1.780026e-001
6.487636e+003,1.766065e-001
6.491493e+003,1.653277e-001
6.495350e+003,1.649799e-001
6.499207e+003,1.639237e-001
6.503064e+003,1.618362e-001
6.506921e+003,1.748398e-001
6.510778e+003,1.880546e-001
6.514636e+003,1.885328e-001
6.518493e+003,1.719745e-001
6.522350e+003,1.631377e-001
6.526207e+003,1.744959e-001
6.530064e+003,1.729996e-001
6.533921e+003,1.810330e-001
6.537778e+003,1.862953e-001
6.541635e+003,1.793658e-001
6.545492e+003,1.784822e-001
6.549350e+003,1.774807e-001
6.553207e+003,1.697643e-001
6.557063e+003,1.633859e-001
6.560921e+003,1.665848e-001
6.564778e+003,1.752955e-001
6.568635e+003,1.810368e-001
6.572492e+003,1.751105e-001
6.576349e+003,1.716756e-001
6.580206e+003,1.695910e-001
6.584063e+003,1.687793e-001
6.587920e+003,1.827850e-001
6.591777e+003,1.876339e-001
6.595635e+003,1.665010e-001
6.599492e+003,1.591421e-001
6.603349e+003,1.720790e-001
6.607206e+003,1.818735e-001
6.611063e+003,1.720458e-001
6.614920e+003,1.711935e-001
6.618777e+003,1.715049e-001
6.622634e+003,1.702101e-001
6.626491e+003,1.635338e-001
6.630349e+003,1.730118e-001
6.634206e+003,1.912771e-001
6.638063e+003,1.927171e-001
6.641920e+003,1.910134e-001
6.645777e+003,1.787851e-001
6.649634e+003,1.682284e-001
6.653491e+003,1.698286e-001
6.657348e+003,1.760602e-001
6.661205e+003,1.777309e-001
6.665063e+003,1.867621e-001
6.668919e+003,1.968967e-001
6.672776e+003,1.970062e-001
6.676634e+003,1.911484e-001
6.680491e+003,1.857395e-001
6.684348e+003,1.792081e-001
6.688205e+003,1.825701e-001
6.692062e+003,1.841798e-001
6.695919e+003,1.839743e-001
6.699776e+003,1.736965e-001
6.703633e+003,1.700622e-001
6.707490e+003,1.729838e-001
6.711348e+003,1.719917e-001
6.715205e+003,1.725977e-001
6.719062e+003,1.660317e-001
6.722919e+003,1.688837e-001
6.726776e+003,1.813112e-001
6.730633e+003,1.715464e-001
6.734490e+003,1.602857e-001
6.738347e+003,1.800630e-001
6.742204e+003,1.886704e-001
6.746062e+003,1.760980e-001
6.749918e+003,1.772044e-001
6.753775e+003,1.818542e-001
6.757633e+003,1.720053e-001
6.761490e+003,1.642687e-001
6.765347e+003,1.823189e-001
6.769204e+003,2.015900e-001
6.773061e+003,1.978974e-001
6.776918e+003,1.767792e-001
6.780775e+003,1.646457e-001
6.784632e+003,1.781940e-001
6.788489e+003,1.884505e-001
6.792347e+003,1.738747e-001
6.796204e+003,1.520569e-001
6.800061e+003,1.572114e-001
6.803918e+003,1.835170e-001
6.807775e+003,1.856428e-001
6.811632e+003,1.780542e-001
6.815489e+003,1.714690e-001
6.819346e+003,1.765034e-001
6.823203e+003,1.682897e-001
6.827061e+003,1.840766e-001
6.830917e+003,1.904959e-001
6.834774e+003,1.845398e-001
6.838632e+003,1.944478e-001
6.842489e+003,1.746633e-001
6.846346e+003,1.740483e-001
6.850203e+003,1.806336e-001
6.854060e+003,1.732710e-001
6.857917e+003,1.593897e-001
6.861774e+003,1.618935e-001
6.865631e+003,1.641062e-001
6.869488e+003,1.791898e-001
6.873346e+003,2.004487e-001
6.877203e+003,1.873328e-001
6.881060e+003,1.773286e-001
6.884917e+003,1.726398e-001
6.888774e+003,1.821995e-001
6.892631e+003,1.908327e-001
6.896488e+003,1.786197e-001
6.900345e+003,1.649498e-001
6.904202e+003,1.703200e-001
6.908060e+003,1.817446e-001
6.911917e+003,1.725178e-001
6.915773e+003,1.675144e-001
6.919631e+003,1.590586e-001
6.923488e+003,1.708139e-001
6.927345e+003,2.051549e-001
6.931202e+003,1.858179e-001
6.935059e+003,1.792262e-001
6.938916e+003,1.921289e-001
6.942773e+003,1.751631e-001
6.946630e+003,1.707491e-001
6.950487e+003,1.837304e-001
6.954345e+003,2.005402e-001
6.958202e+003,2.049926e-001
6.962059e+003,1.990148e-001
6.965916e+003,2.018274e-001
6.969773e+003,1.963551e-001
6.973630e+003,1.803601e-001
6.977487e+003,1.927082e-001
6.981344e+003,2.160875e-001
6.985201e+003,2.144304e-001
6.989059e+003,2.039844e-001
6.992916e+003,1.965075e-001
6.996772e+003,1.906008e-001
7.000630e+003,1.785300e-001
7.004487e+003,1.768809e-001
7.008344e+003,1.818268e-001
7.012201e+003,1.835746e-001
7.016058e+003,1.996813e-001
7.019915e+003,2.052996e-001
7.023772e+003,2.043076e-001
7.027629e+003,1.972283e-001
7.031486e+003,2.022888e-001
7.035344e+003,1.989195e-001
7.039201e+003,1.978791e-001
7.043058e+003,2.167913e-001
7.046915e+003,2.126668e-001
7.050772e+003,1.973840e-001
7.054629e+003,1.961597e-001
7.058486e+003,1.928874e-001
7.062343e+003,1.831540e-001
7.066200e+003,1.762069e-001
7.070058e+003,1.795060e-001
7.073915e+003,1.956706e-001
7.077771e+003,2.056496e-001
7.081629e+003,1.991927e-001
7.085486e+003,1.898150e-001
7.089343e+003,1.835886e-001
7.093200e+003,1.831887e-001
7.097057e+003,1.802934e-001
7.100914e+003,1.819979e-001
7.104771e+003,1.946499e-001
7.108628e+003,1.838186e-001
7.112485e+003,1.900773e-001
7.116343e+003,1.959319e-001
7.120200e+003,1.826097e-001
7.124057e+003,1.914078e-001
7.127914e+003,2.101080e-001
7.131771e+003,2.125857e-001
7.135628e+003,2.082132e-001
7.139485e+003,2.021807e-001
7.143342e+003,1.863769e-001
7.147199e+003,1.857570e-001
7.151057e+003,2.124912e-001
7.154914e+003,2.073767e-001
7.158771e+003,1.932993e-001
7.162628e+003,1.997355e-001
7.166485e+003,1.783666e-001
7.170342e+003,1.720441e-001
7.174199e+003,1.824609e-001
7.178056e+003,1.607933e-001
7.181913e+003,1.564367e-001
7.185771e+003,1.685586e-001
7.189627e+003,1.838712e-001
7.193484e+003,1.903738e-001
7.197342e+003,2.056989e-001
7.201199e+003,2.182819e-001
7.205056e+003,1.928183e-001
7.208913e+003,1.679835e-001
7.212770e+003,1.884661e-001
7.216627e+003,1.985868e-001
7.220484e+003,1.834312e-001
7.224341e+003,1.729225e-001
7.228198e+003,1.883834e-001
7.232056e+003,2.193619e-001
7.235913e+003,2.342335e-001
7.239770e+003,2.184953e-001
7.243627e+003,1.957963e-001
7.247484e+003,1.846443e-001
7.251341e+003,1.723585e-001
7.255198e+003,1.786065e-001
7.259055e+003,1.868800e-001
7.262912e+003,1.982234e-001
7.266770e+003,2.157531e-001
7.270626e+003,2.212096e-001
7.274483e+003,1.995570e-001
7.278341e+003,1.779628e-001
7.282198e+003,1.670333e-001
7.286055e+003,1.730861e-001
7.289912e+003,1.729821e-001
7.293769e+003,1.642787e-001
7.297626e+003,1.807834e-001
7.301483e+003,1.680144e-001
7.305340e+003,1.515055e-001
7.309197e+003,1.511381e-001
7.313055e+003,1.581136e-001
7.316912e+003,1.530061e-001
7.320769e+003,1.448921e-001
7.324626e+003,1.533970e-001
7.328483e+003,1.700847e-001
7.332340e+003,1.763718e-001
7.336197e+003,1.644446e-001
7.340054e+003,1.592605e-001
7.343911e+003,1.673408e-001
7.347769e+003,1.724598e-001
7.351625e+003,1.919162e-001
7.355482e+003,1.879399e-001
7.359340e+003,1.810864e-001
7.363197e+003,1.776883e-001
7.367054e+003,1.805579e-001
7.370911e+003,1.838559e-001
7.374768e+003,1.776051e-001
7.378625e+003,1.642128e-001
7.382482e+003,1.488878e-001
7.386339e+003,1.417150e-001
7.390196e+003,1.554522e-001
7.394054e+003,1.566964e-001
7.397911e+003,1.604742e-001
7.401768e+003,1.823695e-001
7.405625e+003,1.850257e-001
7.409482e+003,1.606102e-001
7.413339e+003,1.698450e-001
7.417196e+003,1.846899e-001
7.421053e+003,1.702982e-001
7.424910e+003,1.500533e-001
7.428768e+003,1.340785e-001
7.432625e+003,1.175220e-001
7.436481e+003,1.327057e-001
7.440339e+003,1.588195e-001
7.444196e+003,1.731104e-001
7.448053e+003,1.624327e-001
7.451910e+003,1.428757e-001
7.455767e+003,1.159909e-001
7.459624e+003,1.259559e-001
7.463481e+003,1.484583e-001
7.467338e+003,1.629462e-001
7.471195e+003,1.688121e-001
7.475053e+003,1.707798e-001
7.478910e+003,1.871647e-001
7.482767e+003,1.628365e-001
7.486624e+003,1.332772e-001
7.490481e+003,1.151968e-001
7.494338e+003,1.553376e-001
7.498195e+003,1.752055e-001
7.502052e+003,1.463520e-001
7.505909e+003,1.667645e-001
7.509767e+003,1.863015e-001
7.513624e+003,1.903148e-001
7.517480e+003,1.871744e-001
7.521338e+003,1.666549e-001
7.525195e+003,1.573832e-001
7.529052e+003,1.511163e-001
7.532909e+003,1.462052e-001
7.536766e+003,1.426895e-001
7.540623e+003,1.547043e-001
7.544480e+003,1.592304e-001
7.548337e+003,1.385173e-001
7.552194e+003,1.505395e-001
7.556052e+003,1.698773e-001
7.559909e+003,1.645522e-001
7.563766e+003,1.680273e-001
7.567623e+003,1.817443e-001
7.571480e+003,1.677559e-001
7.575337e+003,1.512153e-001
7.579194e+003,1.513968e-001
7.583051e+003,1.654177e-001
7.586908e+003,1.655280e-001
7.590766e+003,1.634649e-001
7.594623e+003,1.667721e-001
7.598479e+003,1.543844e-001
7.602337e+003,1.295404e-001
7.606194e+003,1.092676e-001
7.610051e+003,1.596151e-001
7.613908e+003,1.817531e-001
7.617765e+003,1.569837e-001
7.621622e+003,1.363093e-001
7.625479e+003,1.564946e-001
7.629336e+003,1.952853e-001
7.633193e+003,2.067699e-001
7.637051e+003,1.760258e-001
7.640908e+003,1.390617e-001
7.644765e+003,1.256074e-001
7.648622e+003,1.223470e-001
7.652479e+003,1.244656e-001
7.656336e+003,1.513408e-001
7.660193e+003,1.470437e-001
7.664050e+003,1.847678e-001
7.667907e+003,1.566449e-001
7.671765e+003,1.132922e-001
7.675622e+003,1.467223e-001
7.679479e+003,1.425292e-001
7.683336e+003,1.525742e-001
7.687193e+003,1.789798e-001
7.691050e+003,1.249922e-001
7.694907e+003,9.264427e-002
7.698764e+003,1.284605e-001
7.702621e+003,1.724158e-001
7.706479e+003,1.765926e-001
7.710335e+003,2.163862e-001
7.714192e+003,2.055407e-001
7.718050e+003,1.577082e-001
7.721907e+003,1.484199e-001
7.725764e+003,1.629706e-001
7.729621e+003,1.922385e-001
7.733478e+003,1.750865e-001
7.737335e+003,1.442088e-001
7.741192e+003,1.267235e-001
7.745049e+003,1.262216e-001
7.748906e+003,1.963729e-001
7.752764e+003,1.736069e-001
7.756621e+003,9.668248e-002
7.760478e+003,1.083243e-001
7.764335e+003,1.447126e-001
7.768192e+003,1.445991e-001
7.772049e+003,1.284055e-001
7.775906e+003,1.474983e-001
7.779763e+003,1.296706e-001
7.783620e+003,1.346093e-001
7.787478e+003,1.533821e-001
7.791334e+003,8.882003e-002
7.795191e+003,5.470829e-002
7.799049e+003,7.063413e-002
7.802906e+003,1.002007e-001
7.806763e+003,1.555230e-001
7.810620e+003,1.309140e-001
7.814477e+003,1.090480e-001
7.818334e+003,1.479981e-001
7.822191e+003,1.760192e-001
7.826048e+003,1.899487e-001
7.829905e+003,1.725547e-001
7.833763e+003,1.482536e-001
7.837620e+003,1.745783e-001
7.841477e+003,1.931190e-001
7.845334e+003,1.699988e-001
7.849191e+003,1.303672e-001
7.853048e+003,8.150294e-002
7.856905e+003,9.536900e-002
7.860762e+003,1.529613e-001
7.864619e+003,1.574305e-001
7.868477e+003,1.540481e-001
7.872333e+003,1.544364e-001
7.876190e+003,1.168556e-001
7.880048e+003,9.422770e-002
7.883905e+003,5.209836e-002
7.887762e+003,5.771931e-002
7.891619e+003,1.199489e-001
7.895476e+003,1.517262e-001
7.899333e+003,1.294059e-001
7.903190e+003,1.189859e-001
7.907047e+003,1.390220e-001
7.910904e+003,1.637984e-001
7.914762e+003,1.093378e-001
7.918619e+003,6.023102e-002
7.922476e+003,6.922124e-002
7.926333e+003,6.968846e-002
7.930190e+003,9.846009e-002
7.934047e+003,8.734921e-002
7.937904e+003,1.126747e-001
7.941761e+003,2.169038e-001
7.945618e+003,2.122627e-001
7.949476e+003,1.421437e-001
7.953333e+003,1.226918e-001
7.957189e+003,1.099257e-001
7.961047e+003,1.293972e-001
7.964904e+003,1.533162e-001
7.968761e+003,1.365717e-001
7.972618e+003,1.379898e-001
7.976475e+003,1.655921e-001
7.980332e+003,1.364139e-001
7.984189e+003,9.001480e-002
7.988046e+003,1.626544e-001
7.991903e+003,1.926323e-001
7.995761e+003,1.173800e-001
7.999618e+003,7.983599e-002
