4.011380e+002,-2.732867e-001
4.049951e+002,-7.812586e-002
4.088522e+002,6.000000e+000
4.127093e+002,-2.292582e-001
4.165664e+002,-3.247490e-001
4.204235e+002,6.000000e+000
4.242806e+002,-3.901771e-001
4.281377e+002,6.000000e+000
4.319948e+002,-2.818500e-001
4.358519e+002,6.000000e+000
4.397090e+002,7.165165e-001
4.435661e+002,6.619669e-001
4.474232e+002,6.000000e+000
4.512803e+002,-3.676766e-001
4.551374e+002,-9.446205e-002
4.589945e+002,6.000000e+000
4.628516e+002,6.000000e+000
4.667087e+002,6.000000e+000
4.705658e+002,6.000000e+000
4.744229e+002,4.474469e-001
4.782800e+002,1.197518e+000
4.821371e+002,8.392876e-002
4.859941e+002,6.534076e-002
4.898513e+002,6.000000e+000
4.937083e+002,6.000000e+000
4.975654e+002,6.000000e+000
5.014225e+002,6.000000e+000
5.052796e+002,6.000000e+000
5.091367e+002,-9.616597e-001
5.129938e+002,3.023904e-001
5.168509e+002,3.079019e-001
5.207080e+002,8.797600e-001
5.245651e+002,6.000000e+000
5.284222e+002,6.000000e+000
5.322793e+002,6.000000e+000
5.361364e+002,6.000000e+000
5.399935e+002,1.262666e+000
5.438506e+002,6.000000e+000
5.477077e+002,-6.760506e-001
5.515648e+002,6.000000e+000
5.554219e+002,6.000000e+000
5.592790e+002,7.040004e-001
5.631361e+002,6.299251e-001
5.669932e+002,6.000000e+000
5.708503e+002,-4.319250e-002
5.747074e+002,6.000000e+000
5.785645e+002,4.739999e-001
5.824216e+002,-3.142588e-001
5.862787e+002,-3.157174e-001
5.901357e+002,-1.863437e+000
5.939929e+002,6.000000e+000
5.978499e+002,6.829466e-001
6.017070e+002,6.000000e+000
6.055641e+002,1.904625e-001
6.094212e+002,3.881691e-001
6.132783e+002,-2.823496e-001
6.171354e+002,-1.766315e-001
6.209925e+002,9.067466e-001
6.248496e+002,6.000000e+000
6.287067e+002,1.106319e+000
6.325638e+002,6.000000e+000
6.364209e+002,6.000000e+000
6.402780e+002,6.000000e+000
6.441351e+002,-1.316244e-001
6.479922e+002,-1.385272e-001
6.518493e+002,3.581328e-001
6.557064e+002,1.323063e+000
6.595635e+002,8.427653e-001
6.634205e+002,1.844300e-001
6.672777e+002,6.000000e+000
6.711348e+002,6.000000e+000
6.749918e+002,6.000000e+000
6.788490e+002,9.425014e-002
6.827061e+002,5.898753e-001
6.865631e+002,1.267335e-001
6.904203e+002,6.897202e-001
6.942773e+002,6.000000e+000
6.981344e+002,-2.980242e-001
7.019916e+002,1.013839e+000
7.058486e+002,3.143212e-002
7.097057e+002,-8.110740e-001
7.135629e+002,6.000000e+000
7.174199e+002,6.000000e+000
7.212770e+002,-5.553185e-001
7.251342e+002,6.000000e+000
7.289912e+002,6.000000e+000
7.328483e+002,-7.706901e-001
7.367054e+002,1.025486e-001
7.405625e+002,-7.661855e-001
7.444196e+002,6.000000e+000
7.482767e+002,-9.060983e-002
7.521338e+002,1.936150e-001
7.559908e+002,5.505276e-003
7.598480e+002,4.340254e-001
7.637051e+002,-6.511087e-001
7.675621e+002,6.000000e+000
7.714193e+002,6.000000e+000
7.752764e+002,1.794133e+000
7.791334e+002,6.000000e+000
7.829905e+002,6.000000e+000
7.868477e+002,7.292817e-001
7.907047e+002,6.000000e+000
7.945618e+002,6.000000e+000
7.984189e+002,6.000000e+000
8.022760e+002,-4.694784e-001
8.061331e+002,6.000000e+000
8.099902e+002,6.000000e+000
8.138473e+002,6.000000e+000
8.177044e+002,6.000000e+000
8.215615e+002,1.427316e+000
8.254186e+002,6.000000e+000
8.292757e+002,6.135429e-001
8.331328e+002,5.066298e-001
8.369899e+002,1.214161e+000
8.408470e+002,1.600497e+000
8.447041e+002,6.000000e+000
8.485612e+002,7.382639e-001
8.524183e+002,1.108941e+000
8.562754e+002,6.000000e+000
8.601324e+002,1.042460e+000
8.639896e+002,8.524343e-001
8.678467e+002,1.074068e+000
8.717037e+002,1.045511e+000
8.755609e+002,6.000000e+000
8.794180e+002,6.000000e+000
8.832750e+002,1.098707e+000
8.871321e+002,2.281797e+000
8.909893e+002,1.883105e+000
8.948463e+002,1.045621e+000
8.987034e+002,2.166893e+000
9.025605e+002,6.000000e+000
9.064176e+002,6.000000e+000
9.102747e+002,1.205711e+000
9.141318e+002,1.085199e+000
9.179889e+002,2.346156e+000
9.218461e+002,1.398926e+000
9.257031e+002,1.498339e+000
9.295602e+002,1.473562e+000
9.334174e+002,1.213094e+000
9.372744e+002,1.490443e+000
9.411315e+002,2.726838e+000
9.449886e+002,6.000000e+000
9.488457e+002,6.000000e+000
9.527028e+002,2.922555e+000
9.565599e+002,6.000000e+000
9.604170e+002,6.000000e+000
9.642740e+002,1.514151e+000
9.681312e+002,1.333993e+000
9.719883e+002,3.290495e+000
9.758453e+002,6.000000e+000
9.797025e+002,1.749047e+000
9.835596e+002,1.679268e+000
9.874166e+002,6.000000e+000
9.912738e+002,6.000000e+000
9.951309e+002,1.884310e+000
9.989879e+002,6.000000e+000
1.002845e+003,2.241528e+000
1.006702e+003,1.555472e+000
1.010559e+003,1.349284e+000
1.014416e+003,1.239821e+000
1.018273e+003,1.411395e+000
1.022130e+003,3.027993e+000
1.025988e+003,6.000000e+000
1.029845e+003,6.000000e+000
1.033702e+003,6.000000e+000
1.037559e+003,1.942835e+000
1.041416e+003,1.693030e+000
1.045273e+003,2.257956e+000
1.049130e+003,6.000000e+000
1.052987e+003,2.133573e+000
1.056844e+003,1.742589e+000
1.060702e+003,2.193798e+000
1.064559e+003,1.953809e+000
1.068416e+003,1.704817e+000
1.072273e+003,1.788851e+000
1.076130e+003,2.105143e+000
1.079987e+003,2.631704e+000
1.083844e+003,1.893398e+000
1.087701e+003,1.824993e+000
1.091558e+003,2.011719e+000
1.095415e+003,1.830859e+000
1.099272e+003,1.559957e+000
1.103130e+003,1.475186e+000
1.106987e+003,1.443895e+000
1.110844e+003,1.420829e+000
1.114701e+003,1.525675e+000
1.118558e+003,1.583047e+000
1.122415e+003,1.511792e+000
1.126272e+003,1.490758e+000
1.130129e+003,1.457254e+000
1.133986e+003,1.386206e+000
1.137843e+003,1.601586e+000
1.141701e+003,1.738515e+000
1.145558e+003,1.530206e+000
1.149415e+003,1.494087e+000
1.153272e+003,1.547024e+000
1.157129e+003,1.474046e+000
1.160986e+003,1.410968e+000
1.164843e+003,1.391446e+000
1.168700e+003,1.459908e+000
1.172557e+003,1.596192e+000
1.176414e+003,1.570488e+000
1.180271e+003,1.450523e+000
1.184129e+003,1.423718e+000
1.187986e+003,1.423946e+000
1.191843e+003,1.361706e+000
1.195700e+003,1.371835e+000
1.199557e+003,1.299169e+000
1.203414e+003,1.215929e+000
1.207271e+003,1.229853e+000
1.211128e+003,1.179935e+000
1.214985e+003,1.103771e+000
1.218842e+003,9.859331e-001
1.222699e+003,8.863920e-001
1.226557e+003,8.540950e-001
1.230414e+003,8.132560e-001
1.234271e+003,7.615252e-001
1.238128e+003,7.063020e-001
1.241985e+003,6.690013e-001
1.245842e+003,6.319159e-001
1.249699e+003,6.017501e-001
1.253556e+003,5.758573e-001
1.257413e+003,5.375906e-001
1.261271e+003,5.109606e-001
1.265128e+003,5.097182e-001
1.268985e+003,5.069438e-001
1.272842e+003,4.933543e-001
1.276699e+003,4.753416e-001
1.280556e+003,4.646090e-001
1.284413e+003,4.639543e-001
1.288270e+003,4.646854e-001
1.292127e+003,4.608069e-001
1.295984e+003,4.517008e-001
1.299841e+003,4.425464e-001
1.303698e+003,4.292264e-001
1.307556e+003,4.213781e-001
1.311413e+003,4.184303e-001
1.315270e+003,4.133146e-001
1.319127e+003,4.098246e-001
1.322984e+003,4.037738e-001
1.326841e+003,4.055745e-001
1.330698e+003,4.049774e-001
1.334555e+003,3.995176e-001
1.338412e+003,4.051070e-001
1.342270e+003,4.089014e-001
1.346127e+003,4.024808e-001
1.349984e+003,4.001657e-001
1.353841e+003,4.104204e-001
1.357698e+003,4.212398e-001
1.361555e+003,4.185673e-001
1.365412e+003,4.134390e-001
1.369269e+003,4.192646e-001
1.373126e+003,4.321802e-001
1.376983e+003,4.327599e-001
1.380840e+003,4.350695e-001
1.384698e+003,4.508215e-001
1.388555e+003,4.614716e-001
1.392412e+003,4.698721e-001
1.396269e+003,4.804249e-001
1.400126e+003,5.001047e-001
1.403983e+003,5.126669e-001
1.407840e+003,5.186492e-001
1.411697e+003,5.300248e-001
1.415554e+003,5.378924e-001
1.419411e+003,5.496365e-001
1.423269e+003,5.526291e-001
1.427126e+003,5.517051e-001
1.430983e+003,5.557139e-001
1.434840e+003,5.574889e-001
1.438697e+003,5.484478e-001
1.442554e+003,5.471341e-001
1.446411e+003,5.495818e-001
1.450268e+003,5.440649e-001
1.454125e+003,5.389860e-001
1.457982e+003,5.299277e-001
1.461839e+003,5.160663e-001
1.465697e+003,5.086388e-001
1.469554e+003,5.115038e-001
1.473411e+003,5.110897e-001
1.477268e+003,5.008162e-001
1.481125e+003,5.162811e-001
1.484982e+003,5.441349e-001
1.488839e+003,5.481119e-001
1.492696e+003,5.503072e-001
1.496553e+003,5.513626e-001
1.500411e+003,5.506399e-001
1.504268e+003,5.673659e-001
1.508125e+003,5.651351e-001
1.511982e+003,5.580367e-001
1.515839e+003,5.595589e-001
1.519696e+003,5.585930e-001
1.523553e+003,5.488604e-001
1.527410e+003,5.366318e-001
1.531267e+003,5.239727e-001
1.535124e+003,5.193923e-001
1.538981e+003,5.198166e-001
1.542839e+003,5.188877e-001
1.546696e+003,5.098559e-001
1.550553e+003,4.898350e-001
1.554410e+003,4.719571e-001
1.558267e+003,4.744029e-001
1.562124e+003,4.811957e-001
1.565981e+003,4.707477e-001
1.569838e+003,4.738705e-001
1.573695e+003,4.733879e-001
1.577552e+003,4.619374e-001
1.581410e+003,4.557406e-001
1.585267e+003,4.558430e-001
1.589124e+003,4.570657e-001
1.592981e+003,4.635957e-001
1.596838e+003,4.704718e-001
1.600695e+003,4.792486e-001
1.604552e+003,4.975277e-001
1.608409e+003,5.140387e-001
1.612266e+003,5.244412e-001
1.616123e+003,5.445577e-001
1.619980e+003,5.682409e-001
1.623838e+003,5.999793e-001
1.627695e+003,6.221437e-001
1.631552e+003,6.239710e-001
1.635409e+003,6.240174e-001
1.639266e+003,6.262622e-001
1.643123e+003,6.241398e-001
1.646980e+003,6.076717e-001
1.650837e+003,5.865716e-001
1.654694e+003,5.705461e-001
1.658551e+003,5.653511e-001
1.662409e+003,5.548631e-001
1.666266e+003,5.398858e-001
1.670123e+003,5.209948e-001
1.673980e+003,5.082233e-001
1.677837e+003,4.940643e-001
1.681694e+003,4.742875e-001
1.685551e+003,4.580058e-001
1.689408e+003,4.480203e-001
1.693265e+003,4.404493e-001
1.697122e+003,4.285229e-001
1.700979e+003,4.181955e-001
1.704837e+003,4.134981e-001
1.708694e+003,4.105063e-001
1.712551e+003,4.009088e-001
1.716408e+003,3.930101e-001
1.720265e+003,3.931894e-001
1.724122e+003,3.922964e-001
1.727979e+003,3.862997e-001
1.731836e+003,3.844779e-001
1.735693e+003,3.907049e-001
1.739550e+003,3.949845e-001
1.743408e+003,3.941054e-001
1.747265e+003,3.984976e-001
1.751122e+003,3.963721e-001
1.754979e+003,3.965076e-001
1.758836e+003,4.028137e-001
1.762693e+003,4.065448e-001
1.766550e+003,4.051827e-001
1.770407e+003,4.006499e-001
1.774264e+003,4.018297e-001
1.778121e+003,4.012399e-001
1.781979e+003,3.983516e-001
1.785836e+003,3.913110e-001
1.789693e+003,3.804121e-001
1.793550e+003,3.760415e-001
1.797407e+003,3.667521e-001
1.801264e+003,3.657362e-001
1.805121e+003,3.670284e-001
1.808978e+003,3.628589e-001
1.812835e+003,3.561748e-001
1.816692e+003,3.560436e-001
1.820549e+003,3.555277e-001
1.824407e+003,3.572767e-001
1.828264e+003,3.636932e-001
1.832121e+003,3.660282e-001
1.835978e+003,3.683118e-001
1.839835e+003,3.715917e-001
1.843692e+003,3.713915e-001
1.847549e+003,3.685090e-001
1.851406e+003,3.664723e-001
1.855263e+003,3.663126e-001
1.859120e+003,3.662058e-001
1.862978e+003,3.632320e-001
1.866835e+003,3.618416e-001
1.870692e+003,3.610079e-001
1.874549e+003,3.622160e-001
1.878406e+003,3.596627e-001
1.882263e+003,3.554636e-001
1.886120e+003,3.505841e-001
1.889977e+003,3.464414e-001
1.893834e+003,3.447909e-001
1.897691e+003,3.456502e-001
1.901548e+003,3.439479e-001
1.905406e+003,3.439803e-001
1.909263e+003,3.365799e-001
1.913120e+003,3.325838e-001
1.916977e+003,3.389257e-001
1.920834e+003,3.411356e-001
1.924691e+003,3.451225e-001
1.928548e+003,3.429834e-001
1.932405e+003,3.368796e-001
1.936262e+003,3.402032e-001
1.940119e+003,3.447432e-001
1.943977e+003,3.430620e-001
1.947834e+003,3.517286e-001
1.951691e+003,3.510573e-001
1.955548e+003,3.423879e-001
1.959405e+003,3.426027e-001
1.963262e+003,3.420447e-001
1.967119e+003,3.382806e-001
1.970976e+003,3.398245e-001
1.974833e+003,3.361814e-001
1.978690e+003,3.301914e-001
1.982547e+003,3.280542e-001
1.986405e+003,3.291612e-001
1.990262e+003,3.268304e-001
1.994119e+003,3.206399e-001
1.997976e+003,3.181304e-001
2.001833e+003,3.170172e-001
2.005690e+003,3.169444e-001
2.009547e+003,3.163676e-001
2.013404e+003,3.111957e-001
2.017261e+003,3.114289e-001
2.021118e+003,3.106715e-001
2.024976e+003,3.107905e-001
2.028833e+003,3.153215e-001
2.032690e+003,3.199061e-001
2.036547e+003,3.200017e-001
2.040404e+003,3.215630e-001
2.044261e+003,3.224324e-001
2.048118e+003,3.195205e-001
2.051975e+003,3.161054e-001
2.055832e+003,3.133711e-001
2.059689e+003,3.171912e-001
2.063546e+003,3.218060e-001
2.067404e+003,3.160860e-001
2.071261e+003,3.107615e-001
2.075118e+003,3.135297e-001
2.078975e+003,3.141370e-001
2.082832e+003,3.110819e-001
2.086689e+003,3.090446e-001
2.090546e+003,3.049856e-001
2.094403e+003,3.035288e-001
2.098260e+003,3.012119e-001
2.102117e+003,3.002588e-001
2.105975e+003,3.014792e-001
2.109832e+003,2.985870e-001
2.113689e+003,2.966493e-001
2.117546e+003,3.009732e-001
2.121403e+003,3.015561e-001
2.125260e+003,3.008260e-001
2.129117e+003,3.037965e-001
2.132974e+003,3.055325e-001
2.136831e+003,3.055630e-001
2.140688e+003,3.073725e-001
2.144545e+003,3.102650e-001
2.148403e+003,3.096320e-001
2.152260e+003,3.093102e-001
2.156117e+003,3.137165e-001
2.159974e+003,3.155831e-001
2.163831e+003,3.132117e-001
2.167688e+003,3.120011e-001
2.171545e+003,3.155940e-001
2.175402e+003,3.165843e-001
2.179259e+003,3.145116e-001
2.183116e+003,3.191692e-001
2.186974e+003,3.208671e-001
2.190831e+003,3.159599e-001
2.194688e+003,3.103021e-001
2.198545e+003,3.036242e-001
2.202402e+003,3.022815e-001
2.206259e+003,3.051154e-001
2.210116e+003,3.029231e-001
2.213973e+003,2.991371e-001
2.217830e+003,2.977984e-001
2.221688e+003,3.037507e-001
2.225544e+003,3.058947e-001
2.229402e+003,3.036529e-001
2.233259e+003,3.033919e-001
2.237116e+003,3.069524e-001
2.240973e+003,3.094578e-001
2.244830e+003,3.119897e-001
2.248687e+003,3.216662e-001
2.252544e+003,3.271223e-001
2.256401e+003,3.264702e-001
2.260258e+003,3.237590e-001
2.264115e+003,3.236588e-001
2.267973e+003,3.250405e-001
2.271830e+003,3.215910e-001
2.275687e+003,3.237123e-001
2.279544e+003,3.268215e-001
2.283401e+003,3.230609e-001
2.287258e+003,3.213646e-001
2.291115e+003,3.195589e-001
2.294972e+003,3.193934e-001
2.298829e+003,3.194036e-001
2.302687e+003,3.141685e-001
2.306543e+003,3.121920e-001
2.310401e+003,3.115672e-001
2.314258e+003,3.086666e-001
2.318115e+003,3.063126e-001
2.321972e+003,3.051664e-001
2.325829e+003,3.014950e-001
2.329686e+003,3.033681e-001
2.333543e+003,3.035299e-001
2.337400e+003,3.034794e-001
2.341257e+003,3.069603e-001
2.345115e+003,3.083383e-001
2.348972e+003,3.138220e-001
2.352829e+003,3.169266e-001
2.356686e+003,3.205293e-001
2.360543e+003,3.202777e-001
2.364400e+003,3.189616e-001
2.368257e+003,3.199275e-001
2.372114e+003,3.232640e-001
2.375971e+003,3.238741e-001
2.379828e+003,3.235537e-001
2.383686e+003,3.236811e-001
2.387542e+003,3.253555e-001
2.391400e+003,3.250751e-001
2.395257e+003,3.239081e-001
2.399114e+003,3.228234e-001
2.402971e+003,3.214917e-001
2.406828e+003,3.188570e-001
2.410685e+003,3.167029e-001
2.414542e+003,3.160812e-001
2.418399e+003,3.110008e-001
2.422256e+003,3.027845e-001
2.426114e+003,3.029656e-001
2.429971e+003,3.034876e-001
2.433828e+003,3.025101e-001
2.437685e+003,3.079836e-001
2.441542e+003,3.112251e-001
2.445399e+003,3.127889e-001
2.449256e+003,3.120096e-001
2.453113e+003,3.090102e-001
2.456970e+003,3.114864e-001
2.460827e+003,3.147208e-001
2.464684e+003,3.164144e-001
2.468542e+003,3.180833e-001
2.472399e+003,3.185602e-001
2.476256e+003,3.200607e-001
2.480113e+003,3.218822e-001
2.483970e+003,3.218794e-001
2.487827e+003,3.152908e-001
2.491684e+003,3.132244e-001
2.495541e+003,3.134855e-001
2.499398e+003,3.117645e-001
2.503255e+003,3.102253e-001
2.507113e+003,3.075619e-001
2.510969e+003,3.071033e-001
2.514827e+003,3.055278e-001
2.518684e+003,3.060155e-001
2.522541e+003,3.049741e-001
2.526398e+003,3.015892e-001
2.530255e+003,3.025608e-001
2.534112e+003,3.045616e-001
2.537969e+003,3.072692e-001
2.541826e+003,3.080228e-001
2.545683e+003,3.039681e-001
2.549541e+003,3.042164e-001
2.553398e+003,3.097541e-001
2.557255e+003,3.100184e-001
2.561112e+003,3.083825e-001
2.564969e+003,3.115026e-001
2.568826e+003,3.149293e-001
2.572683e+003,3.145875e-001
2.576540e+003,3.176205e-001
2.580397e+003,3.286778e-001
2.584254e+003,3.336233e-001
2.588112e+003,3.307465e-001
2.591969e+003,3.283639e-001
2.595826e+003,3.271533e-001
2.599683e+003,3.266580e-001
2.603540e+003,3.281559e-001
2.607397e+003,3.257835e-001
2.611254e+003,3.251190e-001
2.615111e+003,3.280883e-001
2.618968e+003,3.273550e-001
2.622825e+003,3.264067e-001
2.626682e+003,3.257603e-001
2.630540e+003,3.237647e-001
2.634397e+003,3.252526e-001
2.638254e+003,3.317672e-001
2.642111e+003,3.333591e-001
2.645968e+003,3.336520e-001
2.649825e+003,3.342597e-001
2.653682e+003,3.402453e-001
2.657539e+003,3.447397e-001
2.661396e+003,3.453843e-001
2.665253e+003,3.450208e-001
2.669111e+003,3.476298e-001
2.672968e+003,3.522394e-001
2.676825e+003,3.521087e-001
2.680682e+003,3.548454e-001
2.684539e+003,3.599979e-001
2.688396e+003,3.589933e-001
2.692253e+003,3.594439e-001
2.696110e+003,3.657606e-001
2.699967e+003,3.699129e-001
2.703824e+003,3.711956e-001
2.707681e+003,3.715398e-001
2.711539e+003,3.687764e-001
2.715396e+003,3.646677e-001
2.719253e+003,3.671277e-001
2.723110e+003,3.690202e-001
2.726967e+003,3.673360e-001
2.730824e+003,3.722052e-001
2.734681e+003,3.804152e-001
2.738538e+003,3.821543e-001
2.742395e+003,3.838014e-001
2.746252e+003,3.874562e-001
2.750110e+003,3.885791e-001
2.753967e+003,3.875100e-001
2.757824e+003,3.897386e-001
2.761681e+003,3.936855e-001
2.765538e+003,3.940492e-001
2.769395e+003,3.974222e-001
2.773252e+003,4.029960e-001
2.777109e+003,4.093937e-001
2.780966e+003,4.102772e-001
2.784823e+003,4.125499e-001
2.788680e+003,4.169704e-001
2.792538e+003,4.201606e-001
2.796395e+003,4.238325e-001
2.800252e+003,4.199737e-001
2.804109e+003,4.206594e-001
2.807966e+003,4.279286e-001
2.811823e+003,4.240043e-001
2.815680e+003,4.288985e-001
2.819537e+003,4.372301e-001
2.823394e+003,4.395520e-001
2.827251e+003,4.401807e-001
2.831109e+003,4.439561e-001
2.834966e+003,4.455255e-001
2.838823e+003,4.428904e-001
2.842680e+003,4.401298e-001
2.846537e+003,4.434533e-001
2.850394e+003,4.469001e-001
2.854251e+003,4.514576e-001
2.858108e+003,4.565606e-001
2.861965e+003,4.579020e-001
2.865823e+003,4.553410e-001
2.869679e+003,4.588119e-001
2.873537e+003,4.704929e-001
2.877394e+003,4.761839e-001
2.881251e+003,4.753503e-001
2.885108e+003,4.787903e-001
2.888965e+003,4.855508e-001
2.892822e+003,4.921129e-001
2.896679e+003,4.934815e-001
2.900536e+003,4.930809e-001
2.904393e+003,4.952166e-001
2.908250e+003,5.010781e-001
2.912108e+003,5.083245e-001
2.915965e+003,5.120975e-001
2.919822e+003,5.146242e-001
2.923679e+003,5.189820e-001
2.927536e+003,5.190092e-001
2.931393e+003,5.205024e-001
2.935250e+003,5.253077e-001
2.939107e+003,5.269024e-001
2.942964e+003,5.301490e-001
2.946822e+003,5.286760e-001
2.950678e+003,5.279537e-001
2.954536e+003,5.363938e-001
2.958393e+003,5.356641e-001
2.962250e+003,5.361201e-001
2.966107e+003,5.473801e-001
2.969964e+003,5.533619e-001
2.973821e+003,5.602058e-001
2.977678e+003,5.651833e-001
2.981535e+003,5.629002e-001
2.985392e+003,5.593552e-001
2.989250e+003,5.661256e-001
2.993107e+003,5.778359e-001
2.996964e+003,5.860089e-001
3.000821e+003,5.881326e-001
3.004678e+003,5.879688e-001
3.008535e+003,5.966321e-001
3.012392e+003,6.054901e-001
3.016249e+003,6.029928e-001
3.020106e+003,6.086850e-001
3.023963e+003,6.194061e-001
3.027821e+003,6.199374e-001
3.031677e+003,6.215594e-001
3.035535e+003,6.190720e-001
3.039392e+003,6.209702e-001
3.043249e+003,6.255266e-001
3.047106e+003,6.312292e-001
3.050963e+003,6.423542e-001
3.054820e+003,6.550660e-001
3.058677e+003,6.536572e-001
3.062534e+003,6.577770e-001
3.066391e+003,6.673271e-001
3.070249e+003,6.731782e-001
3.074106e+003,6.731555e-001
3.077963e+003,6.737901e-001
3.081820e+003,6.767811e-001
3.085677e+003,6.852083e-001
3.089534e+003,6.882375e-001
3.093391e+003,6.930675e-001
3.097248e+003,7.009286e-001
3.101105e+003,6.977422e-001
3.104962e+003,6.971629e-001
3.108820e+003,7.091899e-001
3.112677e+003,7.240808e-001
3.116534e+003,7.282651e-001
3.120391e+003,7.290003e-001
3.124248e+003,7.311549e-001
3.128105e+003,7.336520e-001
3.131962e+003,7.322182e-001
3.135819e+003,7.293242e-001
3.139676e+003,7.419003e-001
3.143533e+003,7.562978e-001
3.147390e+003,7.589567e-001
3.151248e+003,7.699524e-001
3.155105e+003,7.680724e-001
3.158962e+003,7.748541e-001
3.162819e+003,7.853537e-001
3.166676e+003,7.852522e-001
3.170533e+003,7.885408e-001
3.174390e+003,7.950286e-001
3.178247e+003,8.082350e-001
3.182104e+003,8.266345e-001
3.185961e+003,8.348351e-001
3.189819e+003,8.341168e-001
3.193676e+003,8.223832e-001
3.197533e+003,8.249080e-001
3.201390e+003,8.294933e-001
3.205247e+003,8.415948e-001
3.209104e+003,8.616739e-001
3.212961e+003,8.637212e-001
3.216818e+003,8.536183e-001
3.220675e+003,8.619192e-001
3.224532e+003,8.505442e-001
3.228389e+003,8.480205e-001
3.232247e+003,8.561221e-001
3.236104e+003,8.550345e-001
3.239961e+003,8.682413e-001
3.243818e+003,8.819299e-001
3.247675e+003,8.900644e-001
3.251532e+003,9.054269e-001
3.255389e+003,9.195269e-001
3.259246e+003,9.222227e-001
3.263103e+003,9.184228e-001
3.266960e+003,9.023670e-001
3.270818e+003,8.959197e-001
3.274675e+003,9.126677e-001
3.278532e+003,9.327880e-001
3.282389e+003,9.345779e-001
3.286246e+003,9.182382e-001
3.290103e+003,9.134641e-001
3.293960e+003,9.133335e-001
3.297817e+003,9.156436e-001
3.301674e+003,9.338013e-001
3.305531e+003,9.421781e-001
3.309388e+003,9.411810e-001
3.313246e+003,9.565809e-001
3.317103e+003,9.621850e-001
3.320960e+003,9.660331e-001
3.324817e+003,9.955354e-001
3.328674e+003,1.016838e+000
3.332531e+003,1.007253e+000
3.336388e+003,1.006825e+000
3.340245e+003,1.009315e+000
3.344102e+003,1.001321e+000
3.347959e+003,1.010395e+000
3.351817e+003,1.007083e+000
3.355674e+003,1.000138e+000
3.359531e+003,9.879360e-001
3.363388e+003,1.002374e+000
3.367245e+003,1.032355e+000
3.371102e+003,1.041329e+000
3.374959e+003,1.040400e+000
3.378816e+003,1.042731e+000
3.382673e+003,1.045575e+000
3.386530e+003,1.022607e+000
3.390387e+003,1.038072e+000
3.394245e+003,1.057294e+000
3.398102e+003,1.040215e+000
3.401959e+003,1.044198e+000
3.405816e+003,1.063113e+000
3.409673e+003,1.089839e+000
3.413530e+003,1.088102e+000
3.417387e+003,1.071562e+000
3.421244e+003,1.059580e+000
3.425101e+003,1.074577e+000
3.428958e+003,1.091735e+000
3.432815e+003,1.088650e+000
3.436673e+003,1.067572e+000
3.440530e+003,1.072323e+000
3.444387e+003,1.076112e+000
3.448244e+003,1.071925e+000
3.452101e+003,1.094863e+000
3.455958e+003,1.135764e+000
3.459815e+003,1.128918e+000
3.463672e+003,1.085474e+000
3.467529e+003,1.061451e+000
3.471386e+003,1.088903e+000
3.475244e+003,1.120458e+000
3.479101e+003,1.107226e+000
3.482958e+003,1.113532e+000
3.486815e+003,1.133899e+000
3.490672e+003,1.141619e+000
3.494529e+003,1.131298e+000
3.498386e+003,1.137322e+000
3.502243e+003,1.136075e+000
3.506100e+003,1.114817e+000
3.509958e+003,1.105880e+000
3.513814e+003,1.111778e+000
3.517672e+003,1.108075e+000
3.521529e+003,1.098872e+000
3.525386e+003,1.106519e+000
3.529243e+003,1.121558e+000
3.533100e+003,1.125277e+000
3.536957e+003,1.099224e+000
3.540814e+003,1.085890e+000
3.544671e+003,1.086902e+000
3.548528e+003,1.079217e+000
3.552385e+003,1.075182e+000
3.556243e+003,1.094518e+000
3.560100e+003,1.097485e+000
3.563957e+003,1.115612e+000
3.567814e+003,1.110482e+000
3.571671e+003,1.077798e+000
3.575528e+003,1.067798e+000
3.579385e+003,1.044007e+000
3.583242e+003,1.029569e+000
3.587099e+003,1.045495e+000
3.590957e+003,1.030538e+000
3.594813e+003,9.878799e-001
3.598671e+003,9.725863e-001
3.602528e+003,9.570747e-001
3.606385e+003,9.089737e-001
3.610242e+003,8.761368e-001
3.614099e+003,8.590249e-001
3.617956e+003,8.059714e-001
3.621813e+003,7.696357e-001
3.625670e+003,7.450355e-001
3.629527e+003,7.037411e-001
3.633385e+003,6.644006e-001
3.637242e+003,6.253919e-001
3.641099e+003,5.916926e-001
3.644956e+003,5.639669e-001
3.648813e+003,5.200131e-001
3.652670e+003,4.801151e-001
3.656527e+003,4.477246e-001
3.660384e+003,4.153255e-001
3.664241e+003,3.942450e-001
3.668098e+003,3.684736e-001
3.671956e+003,3.462708e-001
3.675813e+003,3.353796e-001
3.679670e+003,3.237755e-001
3.683527e+003,3.078476e-001
3.687384e+003,2.925046e-001
3.691241e+003,2.791485e-001
3.695098e+003,2.686244e-001
3.698955e+003,2.646250e-001
3.702812e+003,2.610781e-001
3.706669e+003,2.532556e-001
3.710526e+003,2.423624e-001
3.714384e+003,2.411464e-001
3.718241e+003,2.399110e-001
3.722098e+003,2.359595e-001
3.725955e+003,2.318273e-001
3.729812e+003,2.243690e-001
3.733669e+003,2.195965e-001
3.737526e+003,2.217621e-001
3.741383e+003,2.191459e-001
3.745240e+003,2.163891e-001
3.749097e+003,2.152994e-001
3.752955e+003,2.159935e-001
3.756812e+003,2.153033e-001
3.760669e+003,2.131876e-001
3.764526e+003,2.136345e-001
3.768383e+003,2.117703e-001
3.772240e+003,2.062962e-001
3.776097e+003,2.057615e-001
3.779954e+003,2.106006e-001
3.783811e+003,2.096326e-001
3.787668e+003,2.099189e-001
3.791525e+003,2.131631e-001
3.795383e+003,2.124690e-001
3.799240e+003,2.102685e-001
3.803097e+003,2.124927e-001
3.806954e+003,2.119665e-001
3.810811e+003,2.093513e-001
3.814668e+003,2.109976e-001
3.818525e+003,2.126720e-001
3.822382e+003,2.108128e-001
3.826239e+003,2.077976e-001
3.830096e+003,2.048010e-001
3.833954e+003,2.024474e-001
3.837811e+003,2.000021e-001
3.841668e+003,1.996504e-001
3.845525e+003,1.983989e-001
3.849382e+003,1.986373e-001
3.853239e+003,2.020657e-001
3.857096e+003,2.026206e-001
3.860953e+003,1.985525e-001
3.864810e+003,1.979552e-001
3.868667e+003,1.946692e-001
3.872524e+003,1.976258e-001
3.876382e+003,2.054346e-001
3.880239e+003,2.027229e-001
3.884096e+003,1.997661e-001
3.887953e+003,2.028932e-001
3.891810e+003,2.021255e-001
3.895667e+003,1.993142e-001
3.899524e+003,1.993647e-001
3.903381e+003,2.017889e-001
3.907238e+003,1.984438e-001
3.911095e+003,1.959832e-001
3.914953e+003,1.972575e-001
3.918810e+003,2.001559e-001
3.922667e+003,2.036608e-001
3.926524e+003,2.050890e-001
3.930381e+003,2.049865e-001
3.934238e+003,2.035435e-001
3.938095e+003,2.011477e-001
3.941952e+003,1.982683e-001
3.945809e+003,2.009184e-001
3.949667e+003,2.023056e-001
3.953523e+003,2.004595e-001
3.957381e+003,2.015011e-001
3.961238e+003,2.003250e-001
3.965095e+003,2.010092e-001
3.968952e+003,2.032869e-001
3.972809e+003,2.016159e-001
3.976666e+003,1.960790e-001
3.980523e+003,2.014111e-001
3.984380e+003,2.032476e-001
3.988237e+003,1.961539e-001
3.992094e+003,1.920880e-001
3.995952e+003,1.953483e-001
3.999809e+003,2.029615e-001
4.003666e+003,2.104836e-001
4.007523e+003,2.059393e-001
4.011380e+003,2.039828e-001
4.015237e+003,2.040191e-001
4.019094e+003,1.964545e-001
4.022951e+003,1.963311e-001
4.026808e+003,1.998643e-001
4.030666e+003,2.025100e-001
4.034522e+003,2.042337e-001
4.038380e+003,2.020120e-001
4.042237e+003,1.994599e-001
4.046094e+003,2.027636e-001
4.049951e+003,2.071072e-001
4.053808e+003,2.062733e-001
4.057665e+003,2.033029e-001
4.061522e+003,2.020741e-001
4.065379e+003,2.009207e-001
4.069236e+003,1.973390e-001
4.073094e+003,1.961186e-001
4.076951e+003,1.964313e-001
4.080808e+003,1.940125e-001
4.084665e+003,1.894892e-001
4.088522e+003,1.883081e-001
4.092379e+003,1.900781e-001
4.096236e+003,1.948196e-001
4.100093e+003,1.937935e-001
4.103950e+003,1.889984e-001
4.107808e+003,1.921519e-001
4.111665e+003,1.946147e-001
4.115521e+003,1.973232e-001
4.119379e+003,2.001180e-001
4.123236e+003,2.007630e-001
4.127093e+003,2.000518e-001
4.130950e+003,1.956012e-001
4.134807e+003,1.901968e-001
4.138664e+003,1.952184e-001
4.142521e+003,2.033080e-001
4.146378e+003,2.012744e-001
4.150235e+003,1.990044e-001
4.154093e+003,1.993725e-001
4.157950e+003,2.015090e-001
4.161807e+003,2.029972e-001
4.165664e+003,1.984581e-001
4.169521e+003,1.922639e-001
4.173378e+003,1.914145e-001
4.177235e+003,1.906768e-001
4.181092e+003,1.895818e-001
4.184949e+003,1.993000e-001
4.188807e+003,1.984256e-001
4.192664e+003,1.902782e-001
4.196521e+003,1.925684e-001
4.200378e+003,1.948593e-001
4.204235e+003,1.946098e-001
4.208092e+003,1.968619e-001
4.211949e+003,1.935614e-001
4.215806e+003,1.942053e-001
4.219663e+003,1.976137e-001
4.223521e+003,2.005386e-001
4.227377e+003,2.040105e-001
4.231234e+003,2.081449e-001
4.235092e+003,2.119181e-001
4.238949e+003,2.042737e-001
4.242806e+003,1.950676e-001
4.246663e+003,1.944022e-001
4.250520e+003,2.003849e-001
4.254377e+003,1.995937e-001
4.258234e+003,1.990885e-001
4.262091e+003,2.003218e-001
4.265948e+003,1.976048e-001
4.269806e+003,1.968178e-001
4.273663e+003,1.962844e-001
4.277520e+003,1.956912e-001
4.281377e+003,1.947649e-001
4.285234e+003,1.940003e-001
4.289091e+003,1.966866e-001
4.292948e+003,1.958538e-001
4.296805e+003,1.939779e-001
4.300662e+003,1.977753e-001
4.304520e+003,1.989114e-001
4.308376e+003,1.983766e-001
4.312233e+003,1.987287e-001
4.316091e+003,1.994226e-001
4.319948e+003,1.971950e-001
4.323805e+003,2.018049e-001
4.327662e+003,2.101327e-001
4.331519e+003,2.066697e-001
4.335376e+003,2.014499e-001
4.339233e+003,2.080634e-001
4.343090e+003,2.094580e-001
4.346947e+003,2.057965e-001
4.350805e+003,2.074439e-001
4.354662e+003,2.099641e-001
4.358519e+003,2.082589e-001
4.362376e+003,2.036581e-001
4.366233e+003,1.971503e-001
4.370090e+003,1.944336e-001
4.373947e+003,1.976221e-001
4.377804e+003,2.017210e-001
4.381661e+003,2.057427e-001
4.385519e+003,2.029023e-001
4.389375e+003,2.032098e-001
4.393232e+003,2.037103e-001
4.397090e+003,2.062334e-001
4.400947e+003,2.042861e-001
4.404804e+003,1.988080e-001
4.408661e+003,1.932834e-001
4.412518e+003,2.014017e-001
4.416375e+003,2.121033e-001
4.420232e+003,2.136748e-001
4.424089e+003,2.083157e-001
4.427946e+003,2.060044e-001
4.431804e+003,2.097883e-001
4.435661e+003,2.143035e-001
4.439518e+003,2.131659e-001
4.443375e+003,2.112592e-001
4.447232e+003,2.102784e-001
4.451089e+003,2.085656e-001
4.454946e+003,2.089767e-001
4.458803e+003,2.068806e-001
4.462660e+003,2.062436e-001
4.466518e+003,2.159128e-001
4.470375e+003,2.204703e-001
4.474231e+003,2.193142e-001
4.478089e+003,2.169793e-001
4.481946e+003,2.155032e-001
4.485803e+003,2.101696e-001
4.489660e+003,2.015025e-001
4.493517e+003,1.985070e-001
4.497375e+003,2.024458e-001
4.501231e+003,2.103506e-001
4.505088e+003,2.150256e-001
4.508946e+003,2.153180e-001
4.512803e+003,2.096732e-001
4.516660e+003,2.014206e-001
4.520517e+003,2.007879e-001
4.524374e+003,2.056185e-001
4.528231e+003,2.047018e-001
4.532088e+003,2.090361e-001
4.535945e+003,2.102701e-001
4.539802e+003,2.064874e-001
4.543660e+003,2.073836e-001
4.547517e+003,2.072003e-001
4.551374e+003,2.048830e-001
4.555231e+003,2.055973e-001
4.559088e+003,2.111357e-001
4.562945e+003,2.118142e-001
4.566802e+003,2.122903e-001
4.570659e+003,2.215154e-001
4.574516e+003,2.214622e-001
4.578374e+003,2.201912e-001
4.582230e+003,2.173122e-001
4.586087e+003,2.129220e-001
4.589945e+003,2.150401e-001
4.593802e+003,2.216425e-001
4.597659e+003,2.194488e-001
4.601516e+003,2.117567e-001
4.605373e+003,2.073164e-001
4.609230e+003,2.095676e-001
4.613087e+003,2.154582e-001
4.616944e+003,2.202679e-001
4.620801e+003,2.186646e-001
4.624659e+003,2.165051e-001
4.628516e+003,2.125683e-001
4.632373e+003,2.183633e-001
4.636230e+003,2.252854e-001
4.640087e+003,2.254717e-001
4.643944e+003,2.099023e-001
4.647801e+003,2.063160e-001
4.651658e+003,2.156047e-001
4.655515e+003,2.239998e-001
4.659373e+003,2.228229e-001
4.663229e+003,2.267140e-001
4.667086e+003,2.313596e-001
4.670944e+003,2.340719e-001
4.674801e+003,2.288817e-001
4.678658e+003,2.240095e-001
4.682515e+003,2.152081e-001
4.686372e+003,2.115342e-001
4.690229e+003,2.175277e-001
4.694086e+003,2.220252e-001
4.697943e+003,2.153754e-001
4.701800e+003,2.127906e-001
4.705658e+003,2.198460e-001
4.709515e+003,2.151905e-001
4.713372e+003,2.068507e-001
4.717229e+003,2.143198e-001
4.721086e+003,2.222035e-001
4.724943e+003,2.219932e-001
4.728800e+003,2.186795e-001
4.732657e+003,2.183850e-001
4.736514e+003,2.213146e-001
4.740372e+003,2.157768e-001
4.744229e+003,2.105808e-001
4.748085e+003,2.163810e-001
4.751943e+003,2.214893e-001
4.755800e+003,2.188155e-001
4.759657e+003,2.180786e-001
4.763514e+003,2.219408e-001
4.767371e+003,2.165373e-001
4.771228e+003,2.112418e-001
4.775085e+003,2.190071e-001
4.778942e+003,2.235093e-001
4.782799e+003,2.162175e-001
4.786657e+003,2.188087e-001
4.790514e+003,2.267924e-001
4.794371e+003,2.223031e-001
4.798228e+003,2.175731e-001
4.802085e+003,2.192581e-001
4.805942e+003,2.142227e-001
4.809799e+003,2.124724e-001
4.813656e+003,2.152992e-001
4.817513e+003,2.192486e-001
4.821371e+003,2.244026e-001
4.825228e+003,2.221687e-001
4.829084e+003,2.250782e-001
4.832942e+003,2.304315e-001
4.836799e+003,2.261356e-001
4.840656e+003,2.185898e-001
4.844513e+003,2.139163e-001
4.848370e+003,2.142806e-001
4.852227e+003,2.128294e-001
4.856084e+003,2.154993e-001
4.859941e+003,2.223301e-001
4.863798e+003,2.230357e-001
4.867656e+003,2.188557e-001
4.871513e+003,2.187726e-001
4.875370e+003,2.221369e-001
4.879227e+003,2.169074e-001
4.883084e+003,2.107223e-001
4.886941e+003,2.139173e-001
4.890798e+003,2.210175e-001
4.894655e+003,2.272026e-001
4.898512e+003,2.383667e-001
4.902370e+003,2.380628e-001
4.906227e+003,2.246228e-001
4.910083e+003,2.235743e-001
4.913941e+003,2.249574e-001
4.917798e+003,2.238589e-001
4.921655e+003,2.308768e-001
4.925512e+003,2.307249e-001
4.929369e+003,2.197838e-001
4.933226e+003,2.208677e-001
4.937083e+003,2.254326e-001
4.940940e+003,2.322765e-001
4.944797e+003,2.278608e-001
4.948655e+003,2.160357e-001
4.952512e+003,2.180233e-001
4.956369e+003,2.248171e-001
4.960226e+003,2.268258e-001
4.964083e+003,2.334484e-001
4.967940e+003,2.286430e-001
4.971797e+003,2.268058e-001
4.975654e+003,2.340783e-001
4.979511e+003,2.327775e-001
4.983369e+003,2.324654e-001
4.987226e+003,2.369530e-001
4.991083e+003,2.358135e-001
4.994940e+003,2.286142e-001
4.998797e+003,2.334733e-001
5.002654e+003,2.300205e-001
5.006511e+003,2.199463e-001
5.010368e+003,2.244851e-001
5.014225e+003,2.257339e-001
5.018083e+003,2.219245e-001
5.021939e+003,2.196758e-001
5.025796e+003,2.137602e-001
5.029654e+003,2.188368e-001
5.033511e+003,2.269093e-001
5.037368e+003,2.277622e-001
5.041225e+003,2.294733e-001
5.045082e+003,2.433296e-001
5.048939e+003,2.458466e-001
5.052796e+003,2.294134e-001
5.056653e+003,2.323090e-001
5.060510e+003,2.425286e-001
5.064368e+003,2.448254e-001
5.068225e+003,2.430944e-001
5.072082e+003,2.347842e-001
5.075939e+003,2.294373e-001
5.079796e+003,2.362309e-001
5.083653e+003,2.368587e-001
5.087510e+003,2.233772e-001
5.091367e+003,2.264551e-001
5.095224e+003,2.362676e-001
5.099082e+003,2.427623e-001
5.102938e+003,2.506436e-001
5.106795e+003,2.573104e-001
5.110653e+003,2.440123e-001
5.114510e+003,2.392323e-001
5.118367e+003,2.590678e-001
5.122224e+003,2.691263e-001
5.126081e+003,2.549535e-001
5.129938e+003,2.327522e-001
5.133795e+003,2.334321e-001
5.137652e+003,2.441697e-001
5.141509e+003,2.452033e-001
5.145367e+003,2.446475e-001
5.149224e+003,2.511332e-001
5.153081e+003,2.475720e-001
5.156938e+003,2.381080e-001
5.160795e+003,2.378896e-001
5.164652e+003,2.361618e-001
5.168509e+003,2.317904e-001
5.172366e+003,2.339362e-001
5.176223e+003,2.405290e-001
5.180081e+003,2.405420e-001
5.183938e+003,2.494333e-001
5.187794e+003,2.590223e-001
5.191652e+003,2.492608e-001
5.195509e+003,2.466187e-001
5.199366e+003,2.489641e-001
5.203223e+003,2.428058e-001
5.207080e+003,2.415483e-001
5.210937e+003,2.431448e-001
5.214794e+003,2.448873e-001
5.218651e+003,2.517650e-001
5.222508e+003,2.508680e-001
5.226366e+003,2.442884e-001
5.230223e+003,2.391030e-001
5.234080e+003,2.406456e-001
5.237937e+003,2.485902e-001
5.241794e+003,2.439953e-001
5.245651e+003,2.381957e-001
5.249508e+003,2.319102e-001
5.253365e+003,2.268265e-001
5.257222e+003,2.384602e-001
5.261080e+003,2.448639e-001
5.264937e+003,2.353825e-001
5.268793e+003,2.313671e-001
5.272651e+003,2.304462e-001
5.276508e+003,2.349884e-001
5.280365e+003,2.425747e-001
5.284222e+003,2.438975e-001
5.288079e+003,2.423222e-001
5.291936e+003,2.363741e-001
5.295793e+003,2.343175e-001
5.299650e+003,2.317203e-001
5.303507e+003,2.300766e-001
5.307365e+003,2.343005e-001
5.311222e+003,2.432703e-001
5.315079e+003,2.455429e-001
5.318936e+003,2.476524e-001
5.322793e+003,2.427872e-001
5.326650e+003,2.340388e-001
5.330507e+003,2.324881e-001
5.334364e+003,2.312899e-001
5.338221e+003,2.386082e-001
5.342079e+003,2.489907e-001
5.345936e+003,2.450799e-001
5.349792e+003,2.386716e-001
5.353650e+003,2.422838e-001
5.357507e+003,2.438604e-001
5.361364e+003,2.426397e-001
5.365221e+003,2.449730e-001
5.369078e+003,2.374755e-001
5.372935e+003,2.283439e-001
5.376792e+003,2.328400e-001
5.380649e+003,2.464166e-001
5.384506e+003,2.450254e-001
5.388364e+003,2.429650e-001
5.392221e+003,2.425732e-001
5.396078e+003,2.489181e-001
5.399935e+003,2.570102e-001
5.403792e+003,2.513485e-001
5.407649e+003,2.379427e-001
5.411506e+003,2.317660e-001
5.415363e+003,2.265712e-001
5.419220e+003,2.291646e-001
5.423078e+003,2.405997e-001
5.426935e+003,2.477704e-001
5.430792e+003,2.498098e-001
5.434649e+003,2.563354e-001
5.438506e+003,2.579823e-001
5.442363e+003,2.566184e-001
5.446220e+003,2.480292e-001
5.450077e+003,2.398833e-001
5.453934e+003,2.417058e-001
5.457792e+003,2.451269e-001
5.461648e+003,2.466367e-001
5.465505e+003,2.462475e-001
5.469363e+003,2.460515e-001
5.473220e+003,2.460873e-001
5.477077e+003,2.455129e-001
5.480934e+003,2.456461e-001
5.484791e+003,2.314666e-001
5.488648e+003,2.244307e-001
5.492505e+003,2.452894e-001
5.496362e+003,2.683470e-001
5.500219e+003,2.601898e-001
5.504077e+003,2.486594e-001
5.507934e+003,2.410333e-001
5.511791e+003,2.484241e-001
5.515648e+003,2.623441e-001
5.519505e+003,2.576056e-001
5.523362e+003,2.444073e-001
5.527219e+003,2.477894e-001
5.531076e+003,2.591695e-001
5.534933e+003,2.583387e-001
5.538791e+003,2.581782e-001
5.542647e+003,2.652205e-001
5.546504e+003,2.575988e-001
5.550362e+003,2.404272e-001
5.554219e+003,2.468190e-001
5.558076e+003,2.573827e-001
5.561933e+003,2.567321e-001
5.565790e+003,2.477694e-001
5.569647e+003,2.468068e-001
5.573504e+003,2.455075e-001
5.577361e+003,2.478361e-001
5.581218e+003,2.495314e-001
5.585076e+003,2.575647e-001
5.588933e+003,2.675126e-001
5.592790e+003,2.633154e-001
5.596647e+003,2.427399e-001
5.600504e+003,2.438877e-001
5.604361e+003,2.487492e-001
5.608218e+003,2.301010e-001
5.612075e+003,2.282943e-001
5.615932e+003,2.479283e-001
5.619790e+003,2.547294e-001
5.623646e+003,2.541398e-001
5.627503e+003,2.500103e-001
5.631361e+003,2.474767e-001
5.635218e+003,2.465052e-001
5.639075e+003,2.406904e-001
5.642932e+003,2.459598e-001
5.646789e+003,2.428512e-001
5.650646e+003,2.368977e-001
5.654503e+003,2.417273e-001
5.658360e+003,2.468698e-001
5.662217e+003,2.511641e-001
5.666075e+003,2.499773e-001
5.669932e+003,2.470099e-001
5.673789e+003,2.539090e-001
5.677646e+003,2.553930e-001
5.681503e+003,2.570945e-001
5.685360e+003,2.577929e-001
5.689217e+003,2.601700e-001
5.693074e+003,2.475562e-001
5.696931e+003,2.345088e-001
5.700789e+003,2.459779e-001
5.704646e+003,2.429986e-001
5.708502e+003,2.450018e-001
5.712360e+003,2.472071e-001
5.716217e+003,2.492665e-001
5.720074e+003,2.421914e-001
5.723931e+003,2.428695e-001
5.727788e+003,2.486734e-001
5.731645e+003,2.543275e-001
5.735502e+003,2.541887e-001
5.739359e+003,2.646573e-001
5.743216e+003,2.571997e-001
5.747074e+003,2.367546e-001
5.750931e+003,2.375487e-001
5.754788e+003,2.555734e-001
5.758645e+003,2.511620e-001
5.762502e+003,2.470576e-001
5.766359e+003,2.550412e-001
5.770216e+003,2.567319e-001
5.774073e+003,2.633355e-001
5.777930e+003,2.646765e-001
5.781788e+003,2.491966e-001
5.785645e+003,2.487388e-001
5.789501e+003,2.588201e-001
5.793359e+003,2.555370e-001
5.797216e+003,2.488880e-001
5.801073e+003,2.368966e-001
5.804930e+003,2.504697e-001
5.808787e+003,2.551223e-001
5.812644e+003,2.468554e-001
5.816501e+003,2.531641e-001
5.820358e+003,2.577623e-001
5.824215e+003,2.628755e-001
5.828073e+003,2.585095e-001
5.831930e+003,2.530032e-001
5.835787e+003,2.562643e-001
5.839644e+003,2.519638e-001
5.843501e+003,2.468066e-001
5.847358e+003,2.513350e-001
5.851215e+003,2.569650e-001
5.855072e+003,2.551515e-001
5.858929e+003,2.536997e-001
5.862787e+003,2.523927e-001
5.866644e+003,2.436754e-001
5.870500e+003,2.373033e-001
5.874358e+003,2.536226e-001
5.878215e+003,2.665083e-001
5.882072e+003,2.581122e-001
5.885929e+003,2.626011e-001
5.889786e+003,2.698943e-001
5.893643e+003,2.698472e-001
5.897500e+003,2.603391e-001
5.901357e+003,2.652320e-001
5.905214e+003,2.632274e-001
5.909072e+003,2.630431e-001
5.912929e+003,2.622185e-001
5.916786e+003,2.618878e-001
5.920643e+003,2.611031e-001
5.924500e+003,2.506472e-001
5.928357e+003,2.417244e-001
5.932214e+003,2.465627e-001
5.936071e+003,2.501999e-001
5.939928e+003,2.628980e-001
5.943786e+003,2.660078e-001
5.947643e+003,2.665954e-001
5.951500e+003,2.623796e-001
5.955357e+003,2.567970e-001
5.959214e+003,2.547453e-001
5.963071e+003,2.571073e-001
5.966928e+003,2.478985e-001
5.970785e+003,2.385015e-001
5.974642e+003,2.365209e-001
5.978500e+003,2.426963e-001
5.982356e+003,2.520786e-001
5.986213e+003,2.436456e-001
5.990071e+003,2.438461e-001
5.993928e+003,2.469701e-001
5.997785e+003,2.520930e-001
6.001642e+003,2.581814e-001
6.005499e+003,2.602461e-001
6.009356e+003,2.526530e-001
6.013213e+003,2.493807e-001
6.017070e+003,2.560564e-001
6.020927e+003,2.492069e-001
6.024785e+003,2.398208e-001
6.028642e+003,2.386701e-001
6.032499e+003,2.346573e-001
6.036356e+003,2.334206e-001
6.040213e+003,2.451009e-001
6.044070e+003,2.500460e-001
6.047927e+003,2.562720e-001
6.051784e+003,2.403255e-001
6.055641e+003,2.357712e-001
6.059499e+003,2.385506e-001
6.063355e+003,2.452577e-001
6.067212e+003,2.472314e-001
6.071070e+003,2.373190e-001
6.074927e+003,2.387658e-001
6.078784e+003,2.497564e-001
6.082641e+003,2.644626e-001
6.086498e+003,2.754422e-001
6.090355e+003,2.621392e-001
6.094212e+003,2.529908e-001
6.098069e+003,2.527609e-001
6.101926e+003,2.467222e-001
6.105784e+003,2.390930e-001
6.109641e+003,2.400945e-001
6.113498e+003,2.355517e-001
6.117355e+003,2.383146e-001
6.121212e+003,2.515166e-001
6.125069e+003,2.517847e-001
6.128926e+003,2.492692e-001
6.132783e+003,2.443003e-001
6.136640e+003,2.358483e-001
6.140498e+003,2.251457e-001
6.144354e+003,2.200098e-001
6.148211e+003,2.396798e-001
6.152069e+003,2.496174e-001
6.155926e+003,2.530239e-001
6.159783e+003,2.495530e-001
6.163640e+003,2.486540e-001
6.167497e+003,2.556392e-001
6.171354e+003,2.489324e-001
6.175211e+003,2.391035e-001
6.179068e+003,2.525791e-001
6.182925e+003,2.607079e-001
6.186783e+003,2.552815e-001
6.190640e+003,2.614920e-001
6.194497e+003,2.623170e-001
6.198354e+003,2.579644e-001
6.202211e+003,2.443180e-001
6.206068e+003,2.401407e-001
6.209925e+003,2.578439e-001
6.213782e+003,2.492323e-001
6.217639e+003,2.295806e-001
6.221497e+003,2.453038e-001
6.225354e+003,2.377926e-001
6.229210e+003,2.255766e-001
6.233068e+003,2.459669e-001
6.236925e+003,2.698766e-001
6.240782e+003,2.753741e-001
6.244639e+003,2.534907e-001
6.248496e+003,2.362807e-001
6.252353e+003,2.466261e-001
6.256210e+003,2.555693e-001
6.260067e+003,2.468297e-001
6.263924e+003,2.442009e-001
6.267782e+003,2.412675e-001
6.271639e+003,2.285295e-001
6.275496e+003,2.356855e-001
6.279353e+003,2.504770e-001
6.283210e+003,2.523311e-001
6.287067e+003,2.542215e-001
6.290924e+003,2.549068e-001
6.294781e+003,2.580401e-001
6.298638e+003,2.726699e-001
6.302496e+003,2.802709e-001
6.306353e+003,2.676190e-001
6.310209e+003,2.655606e-001
6.314067e+003,2.496767e-001
6.317924e+003,2.454396e-001
6.321781e+003,2.409367e-001
6.325638e+003,2.381396e-001
6.329495e+003,2.420801e-001
6.333352e+003,2.614827e-001
6.337209e+003,2.756566e-001
6.341066e+003,2.667596e-001
6.344923e+003,2.648919e-001
6.348780e+003,2.534699e-001
6.352638e+003,2.529954e-001
6.356495e+003,2.476560e-001
6.360352e+003,2.503986e-001
6.364209e+003,2.467085e-001
6.368066e+003,2.393272e-001
6.371923e+003,2.368305e-001
6.375780e+003,2.344448e-001
6.379637e+003,2.257425e-001
6.383494e+003,2.339885e-001
6.387352e+003,2.409182e-001
6.391208e+003,2.442084e-001
6.395065e+003,2.376360e-001
6.398923e+003,2.207638e-001
6.402780e+003,2.232755e-001
6.406637e+003,2.408392e-001
6.410494e+003,2.517231e-001
6.414351e+003,2.481030e-001
6.418208e+003,2.390012e-001
6.422065e+003,2.282199e-001
6.425922e+003,2.442996e-001
6.429779e+003,2.527433e-001
6.433637e+003,2.431781e-001
6.437494e+003,2.460047e-001
6.441351e+003,2.560611e-001
6.445208e+003,2.455040e-001
6.449065e+003,2.531886e-001
6.452922e+003,2.582042e-001
6.456779e+003,2.349848e-001
6.460636e+003,2.244845e-001
6.464493e+003,2.404911e-001
6.468351e+003,2.365108e-001
6.472208e+003,2.468669e-001
6.476064e+003,2.504211e-001
6.479922e+003,2.247116e-001
6.483779e+003,2.149878e-001
6.487636e+003,2.308732e-001
6.491493e+003,2.457257e-001
6.495350e+003,2.465167e-001
6.499207e+003,2.431993e-001
6.503064e+003,2.451427e-001
6.506921e+003,2.405972e-001
6.510778e+003,2.535447e-001
6.514636e+003,2.627560e-001
6.518493e+003,2.430599e-001
6.522350e+003,2.202823e-001
6.526207e+003,2.104626e-001
6.530064e+003,2.222445e-001
6.533921e+003,2.318967e-001
6.537778e+003,2.275585e-001
6.541635e+003,2.398274e-001
6.545492e+003,2.467454e-001
6.549350e+003,2.223389e-001
6.553207e+003,2.079119e-001
6.557063e+003,2.180650e-001
6.560921e+003,2.253925e-001
6.564778e+003,2.365553e-001
6.568635e+003,2.397496e-001
6.572492e+003,2.283202e-001
6.576349e+003,2.296903e-001
6.580206e+003,2.655245e-001
6.584063e+003,2.775954e-001
6.587920e+003,2.724951e-001
6.591777e+003,2.395009e-001
6.595635e+003,2.317910e-001
6.599492e+003,2.631340e-001
6.603349e+003,2.611502e-001
6.607206e+003,2.298703e-001
6.611063e+003,2.331201e-001
6.614920e+003,2.596021e-001
6.618777e+003,2.430086e-001
6.622634e+003,2.380458e-001
6.626491e+003,2.530551e-001
6.630349e+003,2.481203e-001
6.634206e+003,2.396646e-001
6.638063e+003,2.234278e-001
6.641920e+003,2.080388e-001
6.645777e+003,2.240612e-001
6.649634e+003,2.633381e-001
6.653491e+003,2.679161e-001
6.657348e+003,2.544764e-001
6.661205e+003,2.365696e-001
6.665063e+003,2.293745e-001
6.668919e+003,2.606470e-001
6.672776e+003,2.467544e-001
6.676634e+003,2.014660e-001
6.680491e+003,2.090178e-001
6.684348e+003,2.449788e-001
6.688205e+003,2.365368e-001
6.692062e+003,2.345770e-001
6.695919e+003,2.446249e-001
6.699776e+003,2.500862e-001
6.703633e+003,2.455056e-001
6.707490e+003,2.247252e-001
6.711348e+003,2.027138e-001
6.715205e+003,2.097008e-001
6.719062e+003,1.962760e-001
6.722919e+003,1.857332e-001
6.726776e+003,2.086709e-001
6.730633e+003,2.351060e-001
6.734490e+003,2.477163e-001
6.738347e+003,2.726684e-001
6.742204e+003,2.726536e-001
6.746062e+003,2.357699e-001
6.749918e+003,2.483755e-001
6.753775e+003,2.489817e-001
6.757633e+003,2.047561e-001
6.761490e+003,2.000262e-001
6.765347e+003,2.233549e-001
6.769204e+003,2.433194e-001
6.773061e+003,2.425180e-001
6.776918e+003,2.271618e-001
6.780775e+003,2.431184e-001
6.784632e+003,2.739293e-001
6.788489e+003,2.475928e-001
6.792347e+003,2.579126e-001
6.796204e+003,2.577821e-001
6.800061e+003,2.224967e-001
6.803918e+003,2.431632e-001
6.807775e+003,2.552814e-001
6.811632e+003,2.562148e-001
6.815489e+003,2.783556e-001
6.819346e+003,2.542734e-001
6.823203e+003,2.198830e-001
6.827061e+003,2.153653e-001
6.830917e+003,2.159435e-001
6.834774e+003,2.466557e-001
6.838632e+003,2.786817e-001
6.842489e+003,2.588305e-001
6.846346e+003,2.590037e-001
6.850203e+003,2.792696e-001
6.854060e+003,2.453415e-001
6.857917e+003,2.074101e-001
6.861774e+003,2.385036e-001
6.865631e+003,2.687640e-001
6.869488e+003,2.553062e-001
6.873346e+003,2.518382e-001
6.877203e+003,2.571798e-001
6.881060e+003,2.685402e-001
6.884917e+003,2.790184e-001
6.888774e+003,2.669660e-001
6.892631e+003,2.308713e-001
6.896488e+003,1.948651e-001
6.900345e+003,2.301825e-001
6.904202e+003,2.465166e-001
6.908060e+003,2.165847e-001
6.911917e+003,2.235256e-001
6.915773e+003,2.375771e-001
6.919631e+003,2.362321e-001
6.923488e+003,2.411840e-001
6.927345e+003,2.753715e-001
6.931202e+003,2.716579e-001
6.935059e+003,2.332072e-001
6.938916e+003,2.443137e-001
6.942773e+003,2.407561e-001
6.946630e+003,2.444754e-001
6.950487e+003,2.516775e-001
6.954345e+003,2.521575e-001
6.958202e+003,2.376387e-001
6.962059e+003,2.263512e-001
6.965916e+003,2.196463e-001
6.969773e+003,2.362460e-001
6.973630e+003,2.430896e-001
6.977487e+003,2.539854e-001
6.981344e+003,2.709779e-001
6.985201e+003,2.606753e-001
6.989059e+003,2.304100e-001
6.992916e+003,2.257863e-001
6.996772e+003,2.255564e-001
7.000630e+003,2.171582e-001
7.004487e+003,2.633086e-001
7.008344e+003,2.773100e-001
7.012201e+003,2.494383e-001
7.016058e+003,2.824952e-001
7.019915e+003,2.849518e-001
7.023772e+003,2.529072e-001
7.027629e+003,2.397723e-001
7.031486e+003,2.432236e-001
7.035344e+003,2.299619e-001
7.039201e+003,2.150738e-001
7.043058e+003,2.017122e-001
7.046915e+003,2.133372e-001
7.050772e+003,2.286660e-001
7.054629e+003,2.671820e-001
7.058486e+003,2.683001e-001
7.062343e+003,2.260004e-001
7.066200e+003,2.099525e-001
7.070058e+003,2.335356e-001
7.073915e+003,2.654519e-001
7.077771e+003,2.425803e-001
7.081629e+003,2.535721e-001
7.085486e+003,2.781653e-001
7.089343e+003,2.440130e-001
7.093200e+003,2.001300e-001
7.097057e+003,2.127476e-001
7.100914e+003,2.200673e-001
7.104771e+003,2.291735e-001
7.108628e+003,2.394826e-001
7.112485e+003,2.431942e-001
7.116343e+003,2.144943e-001
7.120200e+003,2.228656e-001
7.124057e+003,2.535688e-001
7.127914e+003,2.622665e-001
7.131771e+003,2.519135e-001
7.135628e+003,2.291172e-001
7.139485e+003,2.178590e-001
7.143342e+003,1.994448e-001
7.147199e+003,1.895242e-001
7.151057e+003,2.109258e-001
7.154914e+003,2.093365e-001
7.158771e+003,1.886046e-001
7.162628e+003,1.884120e-001
7.166485e+003,1.853954e-001
7.170342e+003,2.139971e-001
7.174199e+003,2.224697e-001
7.178056e+003,2.066473e-001
7.181913e+003,2.506048e-001
7.185771e+003,3.192942e-001
7.189627e+003,3.190082e-001
7.193484e+003,2.885668e-001
7.197342e+003,2.118972e-001
7.201199e+003,1.962173e-001
7.205056e+003,2.252154e-001
7.208913e+003,2.103733e-001
7.212770e+003,2.114160e-001
7.216627e+003,2.695483e-001
7.220484e+003,2.776798e-001
7.224341e+003,2.648621e-001
7.228198e+003,2.795676e-001
7.232056e+003,2.726542e-001
7.235913e+003,2.461511e-001
7.239770e+003,2.385563e-001
7.243627e+003,2.272886e-001
7.247484e+003,2.410033e-001
7.251341e+003,2.501712e-001
7.255198e+003,2.506263e-001
7.259055e+003,2.712991e-001
7.262912e+003,2.515643e-001
7.266770e+003,2.307770e-001
7.270626e+003,2.788730e-001
7.274483e+003,2.326270e-001
7.278341e+003,2.027444e-001
7.282198e+003,2.550555e-001
7.286055e+003,2.500155e-001
7.289912e+003,2.096610e-001
7.293769e+003,1.888920e-001
7.297626e+003,2.235121e-001
7.301483e+003,2.200867e-001
7.305340e+003,2.076309e-001
7.309197e+003,2.563274e-001
7.313055e+003,2.711666e-001
7.316912e+003,2.438291e-001
7.320769e+003,2.235923e-001
7.324626e+003,2.546939e-001
7.328483e+003,3.098686e-001
7.332340e+003,2.718140e-001
7.336197e+003,2.493346e-001
7.340054e+003,2.386526e-001
7.343911e+003,2.258166e-001
7.347769e+003,2.405827e-001
7.351625e+003,2.475564e-001
7.355482e+003,2.308406e-001
7.359340e+003,1.757405e-001
7.363197e+003,1.677012e-001
7.367054e+003,1.666589e-001
7.370911e+003,2.103029e-001
7.374768e+003,2.594279e-001
7.378625e+003,2.724997e-001
7.382482e+003,2.656437e-001
7.386339e+003,2.455002e-001
7.390196e+003,2.447191e-001
7.394054e+003,2.609340e-001
7.397911e+003,2.265316e-001
7.401768e+003,1.709573e-001
7.405625e+003,1.722499e-001
7.409482e+003,2.533088e-001
7.413339e+003,2.395927e-001
7.417196e+003,2.442981e-001
7.421053e+003,2.645365e-001
7.424910e+003,2.860324e-001
7.428768e+003,2.587149e-001
7.432625e+003,2.335616e-001
7.436481e+003,2.316649e-001
7.440339e+003,2.102994e-001
7.444196e+003,2.231122e-001
7.448053e+003,2.183828e-001
7.451910e+003,2.317309e-001
7.455767e+003,2.204030e-001
7.459624e+003,2.148048e-001
7.463481e+003,1.956020e-001
7.467338e+003,2.226061e-001
7.471195e+003,1.964055e-001
7.475053e+003,1.486012e-001
7.478910e+003,1.887145e-001
7.482767e+003,2.464473e-001
7.486624e+003,2.391548e-001
7.490481e+003,2.097134e-001
7.494338e+003,2.292988e-001
7.498195e+003,2.686081e-001
7.502052e+003,2.736249e-001
7.505909e+003,2.355389e-001
7.509767e+003,1.956487e-001
7.513624e+003,2.067857e-001
7.517480e+003,2.453178e-001
7.521338e+003,2.608923e-001
7.525195e+003,2.713918e-001
7.529052e+003,2.855366e-001
7.532909e+003,2.555620e-001
7.536766e+003,2.425169e-001
7.540623e+003,2.962382e-001
7.544480e+003,2.879749e-001
7.548337e+003,2.414300e-001
7.552194e+003,2.615180e-001
7.556052e+003,2.857738e-001
7.559909e+003,2.711533e-001
7.563766e+003,2.404176e-001
7.567623e+003,2.952679e-001
7.571480e+003,3.406160e-001
7.575337e+003,2.797754e-001
7.579194e+003,2.639928e-001
7.583051e+003,3.562261e-001
7.586908e+003,3.026574e-001
7.590766e+003,2.688394e-001
7.594623e+003,1.904638e-001
7.598479e+003,1.605992e-001
7.602337e+003,2.547223e-001
7.606194e+003,3.131101e-001
7.610051e+003,3.073672e-001
7.613908e+003,3.290503e-001
7.617765e+003,2.525642e-001
7.621622e+003,1.969593e-001
7.625479e+003,1.634273e-001
7.629336e+003,1.423419e-001
7.633193e+003,1.942093e-001
7.637051e+003,2.658264e-001
7.640908e+003,2.962255e-001
7.644765e+003,2.589245e-001
7.648622e+003,1.785031e-001
7.652479e+003,1.608815e-001
7.656336e+003,1.559049e-001
7.660193e+003,2.633755e-001
7.664050e+003,3.364680e-001
7.667907e+003,3.238100e-001
7.671765e+003,3.218080e-001
7.675622e+003,3.173775e-001
7.679479e+003,2.425272e-001
7.683336e+003,2.776450e-001
7.687193e+003,2.523047e-001
7.691050e+003,2.684873e-001
7.694907e+003,2.714013e-001
7.698764e+003,2.111674e-001
7.702621e+003,1.813132e-001
7.706479e+003,2.406876e-001
7.710335e+003,2.765349e-001
7.714192e+003,2.374139e-001
7.718050e+003,2.823078e-001
7.721907e+003,3.153349e-001
7.725764e+003,2.957923e-001
7.729621e+003,2.877783e-001
7.733478e+003,1.558039e-001
7.737335e+003,1.649574e-001
7.741192e+003,2.179340e-001
7.745049e+003,2.098560e-001
7.748906e+003,3.888068e-001
7.752764e+003,3.203306e-001
7.756621e+003,2.536002e-001
7.760478e+003,2.621826e-001
7.764335e+003,3.482389e-001
7.768192e+003,3.741855e-001
7.772049e+003,3.330583e-001
7.775906e+003,2.657190e-001
7.779763e+003,2.086346e-001
7.783620e+003,1.878802e-001
7.787478e+003,2.144448e-001
7.791334e+003,2.346734e-001
7.795191e+003,3.159161e-001
7.799049e+003,3.457698e-001
7.802906e+003,3.342122e-001
7.806763e+003,3.025608e-001
7.810620e+003,2.757620e-001
7.814477e+003,2.428615e-001
7.818334e+003,2.049437e-001
7.822191e+003,1.441835e-001
7.826048e+003,1.234153e-001
7.829905e+003,2.030120e-001
7.833763e+003,3.119342e-001
7.837620e+003,2.717043e-001
7.841477e+003,2.489872e-001
7.845334e+003,2.642390e-001
7.849191e+003,2.340296e-001
7.853048e+003,2.207186e-001
7.856905e+003,2.395554e-001
7.860762e+003,3.370770e-001
7.864619e+003,3.570473e-001
7.868477e+003,3.069426e-001
7.872333e+003,3.359921e-001
7.876190e+003,3.578638e-001
7.880048e+003,2.794200e-001
7.883905e+003,2.525271e-001
7.887762e+003,2.795629e-001
7.891619e+003,3.352541e-001
7.895476e+003,3.476717e-001
7.899333e+003,2.289713e-001
7.903190e+003,1.884683e-001
7.907047e+003,8.053111e-002
7.910904e+003,3.933281e-002
7.914762e+003,1.821367e-001
7.918619e+003,3.703303e-001
7.922476e+003,3.613165e-001
7.926333e+003,3.726960e-001
7.930190e+003,4.320626e-001
7.934047e+003,3.764673e-001
7.937904e+003,2.702090e-001
7.941761e+003,2.640024e-001
7.945618e+003,3.677454e-001
7.949476e+003,4.501672e-001
7.953333e+003,3.667016e-001
7.957189e+003,1.911421e-001
7.961047e+003,2.055205e-001
7.964904e+003,1.783223e-001
7.968761e+003,9.354416e-002
7.972618e+003,1.853434e-001
7.976475e+003,2.637680e-001
7.980332e+003,3.700401e-001
7.984189e+003,2.232282e-001
7.988046e+003,1.640779e-001
7.991903e+003,3.584396e-001
7.995761e+003,3.736971e-001
7.999618e+003,3.641192e-001
