4.011380e+002,5.194836e-002
4.049951e+002,8.662616e-002
4.088522e+002,3.642869e-001
4.127093e+002,6.000000e+000
4.165664e+002,6.000000e+000
4.204235e+002,9.040221e-001
4.242806e+002,6.655015e-001
4.281377e+002,6.000000e+000
4.319948e+002,6.000000e+000
4.358519e+002,6.000000e+000
4.397090e+002,6.000000e+000
4.435661e+002,1.299826e+000
4.474232e+002,9.682788e-001
4.512803e+002,6.000000e+000
4.551374e+002,-2.475922e-001
4.589945e+002,6.000000e+000
4.628516e+002,-1.800498e+000
4.667087e+002,6.000000e+000
4.705658e+002,6.000000e+000
4.744229e+002,6.000000e+000
4.782800e+002,6.000000e+000
4.821371e+002,6.000000e+000
4.859941e+002,6.000000e+000
4.898513e+002,6.000000e+000
4.937083e+002,6.000000e+000
4.975654e+002,6.000000e+000
5.014225e+002,6.000000e+000
5.052796e+002,-4.293584e-001
5.091367e+002,6.000000e+000
5.129938e+002,6.000000e+000
5.168509e+002,6.000000e+000
5.207080e+002,6.000000e+000
5.245651e+002,6.000000e+000
5.284222e+002,6.000000e+000
5.322793e+002,6.000000e+000
5.361364e+002,7.216515e-001
5.399935e+002,-1.773311e-002
5.438506e+002,1.853374e-001
5.477077e+002,6.000000e+000
5.515648e+002,6.000000e+000
5.554219e+002,3.067407e-001
5.592790e+002,-1.306917e-001
5.631361e+002,-1.629414e-001
5.669932e+002,-2.747781e-001
5.708503e+002,1.972296e-001
5.747074e+002,5.903611e-001
5.785645e+002,6.000000e+000
5.824216e+002,6.000000e+000
5.862787e+002,2.230809e-001
5.901357e+002,6.000000e+000
5.939929e+002,-5.413848e-001
5.978499e+002,1.433674e-001
6.017070e+002,5.479829e-001
6.055641e+002,1.809246e+000
6.094212e+002,1.423130e+000
6.132783e+002,6.000000e+000
6.171354e+002,5.679429e-001
6.209925e+002,-5.901135e-001
6.248496e+002,7.894651e-001
6.287067e+002,2.676888e+000
6.325638e+002,3.632726e-001
6.364209e+002,6.000000e+000
6.402780e+002,6.000000e+000
6.441351e+002,6.000000e+000
6.479922e+002,-5.430846e-001
6.518493e+002,6.000000e+000
6.557064e+002,6.000000e+000
6.595635e+002,6.000000e+000
6.634205e+002,6.000000e+000
6.672777e+002,6.000000e+000
6.711348e+002,6.000000e+000
6.749918e+002,-1.496178e+000
6.788490e+002,6.000000e+000
6.827061e+002,6.000000e+000
6.865631e+002,6.000000e+000
6.904203e+002,-4.428616e-001
6.942773e+002,5.122248e-001
6.981344e+002,6.000000e+000
7.019916e+002,-3.317344e-001
7.058486e+002,6.000000e+000
7.097057e+002,-2.080954e-001
7.135629e+002,6.000000e+000
7.174199e+002,6.000000e+000
7.212770e+002,6.000000e+000
7.251342e+002,-3.633992e-001
7.289912e+002,6.000000e+000
7.328483e+002,6.000000e+000
7.367054e+002,6.000000e+000
7.405625e+002,-6.376771e-001
7.444196e+002,6.000000e+000
7.482767e+002,6.000000e+000
7.521338e+002,6.000000e+000
7.559908e+002,8.512219e-001
7.598480e+002,-3.397169e-001
7.637051e+002,2.369942e-001
7.675621e+002,4.785421e-001
7.714193e+002,-4.109845e-001
7.752764e+002,-2.485671e-001
7.791334e+002,7.356305e-001
7.829905e+002,6.000000e+000
7.868477e+002,9.041020e-002
7.907047e+002,6.000000e+000
7.945618e+002,8.457645e-001
7.984189e+002,6.000000e+000
8.022760e+002,6.000000e+000
8.061331e+002,-1.341671e-001
8.099902e+002,-2.153342e-001
8.138473e+002,-6.110865e-002
8.177044e+002,4.512077e-001
8.215615e+002,1.206598e+000
8.254186e+002,1.142506e+000
8.292757e+002,1.122136e+000
8.331328e+002,6.000000e+000
8.369899e+002,6.000000e+000
8.408470e+002,6.000000e+000
8.447041e+002,1.662289e+000
8.485612e+002,1.088620e+000
8.524183e+002,1.123957e+000
8.562754e+002,9.333927e-001
8.601324e+002,8.968920e-001
8.639896e+002,9.970218e-001
8.678467e+002,1.090691e+000
8.717037e+002,1.255738e+000
8.755609e+002,1.315889e+000
8.794180e+002,1.412813e+000
8.832750e+002,1.446300e+000
8.871321e+002,1.551850e+000
8.909893e+002,1.694939e+000
8.948463e+002,1.606092e+000
8.987034e+002,1.294266e+000
9.025605e+002,1.596608e+000
9.064176e+002,1.773470e+000
9.102747e+002,1.531939e+000
9.141318e+002,2.251951e+000
9.179889e+002,6.000000e+000
9.218461e+002,6.000000e+000
9.257031e+002,1.963905e+000
9.295602e+002,1.934430e+000
9.334174e+002,2.123430e+000
9.372744e+002,2.421842e+000
9.411315e+002,2.340809e+000
9.449886e+002,2.100386e+000
9.488457e+002,1.903336e+000
9.527028e+002,1.841883e+000
9.565599e+002,1.824729e+000
9.604170e+002,1.753147e+000
9.642740e+002,1.872828e+000
9.681312e+002,2.043249e+000
9.719883e+002,2.109485e+000
9.758453e+002,2.073100e+000
9.797025e+002,2.284888e+000
9.835596e+002,2.458993e+000
9.874166e+002,2.437324e+000
9.912738e+002,2.058574e+000
9.951309e+002,2.020257e+000
9.989879e+002,2.257323e+000
1.002845e+003,2.270990e+000
1.006702e+003,1.939932e+000
1.010559e+003,1.780799e+000
1.014416e+003,1.822784e+000
1.018273e+003,1.900059e+000
1.022130e+003,1.848525e+000
1.025988e+003,1.761515e+000
1.029845e+003,1.702364e+000
1.033702e+003,1.723833e+000
1.037559e+003,1.678057e+000
1.041416e+003,1.633621e+000
1.045273e+003,1.604555e+000
1.049130e+003,1.589648e+000
1.052987e+003,1.580788e+000
1.056844e+003,1.537167e+000
1.060702e+003,1.535082e+000
1.064559e+003,1.590027e+000
1.068416e+003,1.565183e+000
1.072273e+003,1.483350e+000
1.076130e+003,1.514879e+000
1.079987e+003,1.562494e+000
1.083844e+003,1.526687e+000
1.087701e+003,1.491817e+000
1.091558e+003,1.485521e+000
1.095415e+003,1.457494e+000
1.099272e+003,1.455474e+000
1.103130e+003,1.452485e+000
1.106987e+003,1.377556e+000
1.110844e+003,1.327617e+000
1.114701e+003,1.327795e+000
1.118558e+003,1.367337e+000
1.122415e+003,1.355956e+000
1.126272e+003,1.302512e+000
1.130129e+003,1.271480e+000
1.133986e+003,1.259302e+000
1.137843e+003,1.248193e+000
1.141701e+003,1.260017e+000
1.145558e+003,1.273325e+000
1.149415e+003,1.271930e+000
1.153272e+003,1.269036e+000
1.157129e+003,1.254215e+000
1.160986e+003,1.243821e+000
1.164843e+003,1.227821e+000
1.168700e+003,1.234533e+000
1.172557e+003,1.245437e+000
1.176414e+003,1.231664e+000
1.180271e+003,1.206705e+000
1.184129e+003,1.190254e+000
1.187986e+003,1.190516e+000
1.191843e+003,1.166233e+000
1.195700e+003,1.134363e+000
1.199557e+003,1.105972e+000
1.203414e+003,1.069490e+000
1.207271e+003,1.023032e+000
1.211128e+003,9.708609e-001
1.214985e+003,9.151337e-001
1.218842e+003,8.558878e-001
1.222699e+003,7.933432e-001
1.226557e+003,7.374262e-001
1.230414e+003,6.930834e-001
1.234271e+003,6.497323e-001
1.238128e+003,6.098408e-001
1.241985e+003,5.760252e-001
1.245842e+003,5.480449e-001
1.249699e+003,5.204740e-001
1.253556e+003,4.943844e-001
1.257413e+003,4.733725e-001
1.261271e+003,4.540542e-001
1.265128e+003,4.347566e-001
1.268985e+003,4.183629e-001
1.272842e+003,4.067160e-001
1.276699e+003,3.964128e-001
1.280556e+003,3.829982e-001
1.284413e+003,3.711459e-001
1.288270e+003,3.641382e-001
1.292127e+003,3.560483e-001
1.295984e+003,3.484007e-001
1.299841e+003,3.430386e-001
1.303698e+003,3.369706e-001
1.307556e+003,3.287326e-001
1.311413e+003,3.214476e-001
1.315270e+003,3.143571e-001
1.319127e+003,3.084719e-001
1.322984e+003,3.030459e-001
1.326841e+003,2.984541e-001
1.330698e+003,2.943962e-001
1.334555e+003,2.881371e-001
1.338412e+003,2.848119e-001
1.342270e+003,2.839765e-001
1.346127e+003,2.810342e-001
1.349984e+003,2.786487e-001
1.353841e+003,2.785057e-001
1.357698e+003,2.828409e-001
1.361555e+003,2.893878e-001
1.365412e+003,2.964721e-001
1.369269e+003,3.040111e-001
1.373126e+003,3.136308e-001
1.376983e+003,3.234671e-001
1.380840e+003,3.304412e-001
1.384698e+003,3.357908e-001
1.388555e+003,3.443768e-001
1.392412e+003,3.542153e-001
1.396269e+003,3.637580e-001
1.400126e+003,3.738571e-001
1.403983e+003,3.838341e-001
1.407840e+003,3.928620e-001
1.411697e+003,4.020563e-001
1.415554e+003,4.114434e-001
1.419411e+003,4.183418e-001
1.423269e+003,4.226798e-001
1.427126e+003,4.272469e-001
1.430983e+003,4.288296e-001
1.434840e+003,4.296086e-001
1.438697e+003,4.277162e-001
1.442554e+003,4.232237e-001
1.446411e+003,4.168200e-001
1.450268e+003,4.084759e-001
1.454125e+003,3.984296e-001
1.457982e+003,3.919694e-001
1.461839e+003,3.896221e-001
1.465697e+003,3.871179e-001
1.469554e+003,3.861924e-001
1.473411e+003,3.891369e-001
1.477268e+003,3.972112e-001
1.481125e+003,4.054437e-001
1.484982e+003,4.112658e-001
1.488839e+003,4.210452e-001
1.492696e+003,4.326730e-001
1.496553e+003,4.409880e-001
1.500411e+003,4.462874e-001
1.504268e+003,4.498022e-001
1.508125e+003,4.510869e-001
1.511982e+003,4.521551e-001
1.515839e+003,4.492238e-001
1.519696e+003,4.441173e-001
1.523553e+003,4.364519e-001
1.527410e+003,4.273389e-001
1.531267e+003,4.162882e-001
1.535124e+003,4.043735e-001
1.538981e+003,3.936725e-001
1.542839e+003,3.813176e-001
1.546696e+003,3.689949e-001
1.550553e+003,3.578493e-001
1.554410e+003,3.460279e-001
1.558267e+003,3.370046e-001
1.562124e+003,3.314401e-001
1.565981e+003,3.256136e-001
1.569838e+003,3.184114e-001
1.573695e+003,3.134638e-001
1.577552e+003,3.138573e-001
1.581410e+003,3.149403e-001
1.585267e+003,3.173991e-001
1.589124e+003,3.222675e-001
1.592981e+003,3.293986e-001
1.596838e+003,3.393992e-001
1.600695e+003,3.502553e-001
1.604552e+003,3.622678e-001
1.608409e+003,3.794342e-001
1.612266e+003,3.977403e-001
1.616123e+003,4.172414e-001
1.619980e+003,4.390156e-001
1.623838e+003,4.596595e-001
1.627695e+003,4.763064e-001
1.631552e+003,4.896061e-001
1.635409e+003,4.988000e-001
1.639266e+003,5.021409e-001
1.643123e+003,5.009510e-001
1.646980e+003,4.920360e-001
1.650837e+003,4.802249e-001
1.654694e+003,4.695679e-001
1.658551e+003,4.531580e-001
1.662409e+003,4.343591e-001
1.666266e+003,4.170770e-001
1.670123e+003,4.004921e-001
1.673980e+003,3.799753e-001
1.677837e+003,3.590424e-001
1.681694e+003,3.418221e-001
1.685551e+003,3.260389e-001
1.689408e+003,3.139463e-001
1.693265e+003,3.022686e-001
1.697122e+003,2.918976e-001
1.700979e+003,2.828730e-001
1.704837e+003,2.753797e-001
1.708694e+003,2.700906e-001
1.712551e+003,2.664693e-001
1.716408e+003,2.643713e-001
1.720265e+003,2.614057e-001
1.724122e+003,2.609760e-001
1.727979e+003,2.631189e-001
1.731836e+003,2.636678e-001
1.735693e+003,2.633106e-001
1.739550e+003,2.636584e-001
1.743408e+003,2.653210e-001
1.747265e+003,2.677712e-001
1.751122e+003,2.703386e-001
1.754979e+003,2.713339e-001
1.758836e+003,2.716087e-001
1.762693e+003,2.715536e-001
1.766550e+003,2.720049e-001
1.770407e+003,2.724450e-001
1.774264e+003,2.698665e-001
1.778121e+003,2.694837e-001
1.781979e+003,2.677210e-001
1.785836e+003,2.648771e-001
1.789693e+003,2.616882e-001
1.793550e+003,2.573760e-001
1.797407e+003,2.527654e-001
1.801264e+003,2.485271e-001
1.805121e+003,2.454924e-001
1.808978e+003,2.407897e-001
1.812835e+003,2.377113e-001
1.816692e+003,2.363806e-001
1.820549e+003,2.343044e-001
1.824407e+003,2.322186e-001
1.828264e+003,2.311413e-001
1.832121e+003,2.302049e-001
1.835978e+003,2.295348e-001
1.839835e+003,2.286469e-001
1.843692e+003,2.292226e-001
1.847549e+003,2.305127e-001
1.851406e+003,2.310807e-001
1.855263e+003,2.321474e-001
1.859120e+003,2.328441e-001
1.862978e+003,2.338403e-001
1.866835e+003,2.358083e-001
1.870692e+003,2.384400e-001
1.874549e+003,2.415815e-001
1.878406e+003,2.440897e-001
1.882263e+003,2.448052e-001
1.886120e+003,2.453172e-001
1.889977e+003,2.475403e-001
1.893834e+003,2.484920e-001
1.897691e+003,2.474723e-001
1.901548e+003,2.461478e-001
1.905406e+003,2.446274e-001
1.909263e+003,2.445193e-001
1.913120e+003,2.436995e-001
1.916977e+003,2.404931e-001
1.920834e+003,2.365460e-001
1.924691e+003,2.332700e-001
1.928548e+003,2.299506e-001
1.932405e+003,2.264609e-001
1.936262e+003,2.221725e-001
1.940119e+003,2.171972e-001
1.943977e+003,2.137913e-001
1.947834e+003,2.117660e-001
1.951691e+003,2.080802e-001
1.955548e+003,2.046261e-001
1.959405e+003,2.025732e-001
1.963262e+003,2.010889e-001
1.967119e+003,2.002161e-001
1.970976e+003,1.991950e-001
1.974833e+003,1.984938e-001
1.978690e+003,1.993500e-001
1.982547e+003,2.016174e-001
1.986405e+003,2.034083e-001
1.990262e+003,2.046733e-001
1.994119e+003,2.067275e-001
1.997976e+003,2.097366e-001
2.001833e+003,2.136137e-001
2.005690e+003,2.170352e-001
2.009547e+003,2.203965e-001
2.013404e+003,2.240324e-001
2.017261e+003,2.263850e-001
2.021118e+003,2.277722e-001
2.024976e+003,2.299440e-001
2.028833e+003,2.318429e-001
2.032690e+003,2.319296e-001
2.036547e+003,2.312428e-001
2.040404e+003,2.311644e-001
2.044261e+003,2.313110e-001
2.048118e+003,2.304237e-001
2.051975e+003,2.281440e-001
2.055832e+003,2.248637e-001
2.059689e+003,2.221797e-001
2.063546e+003,2.195369e-001
2.067404e+003,2.165906e-001
2.071261e+003,2.128482e-001
2.075118e+003,2.086382e-001
2.078975e+003,2.050870e-001
2.082832e+003,2.028628e-001
2.086689e+003,2.000200e-001
2.090546e+003,1.971574e-001
2.094403e+003,1.946067e-001
2.098260e+003,1.931226e-001
2.102117e+003,1.930757e-001
2.105975e+003,1.930108e-001
2.109832e+003,1.913421e-001
2.113689e+003,1.906923e-001
2.117546e+003,1.916266e-001
2.121403e+003,1.930182e-001
2.125260e+003,1.943584e-001
2.129117e+003,1.966362e-001
2.132974e+003,1.984609e-001
2.136831e+003,2.003928e-001
2.140688e+003,2.045421e-001
2.144545e+003,2.078807e-001
2.148403e+003,2.110014e-001
2.152260e+003,2.133138e-001
2.156117e+003,2.164038e-001
2.159974e+003,2.201114e-001
2.163831e+003,2.229066e-001
2.167688e+003,2.243833e-001
2.171545e+003,2.256271e-001
2.175402e+003,2.254839e-001
2.179259e+003,2.254100e-001
2.183116e+003,2.262145e-001
2.186974e+003,2.255815e-001
2.190831e+003,2.246518e-001
2.194688e+003,2.248870e-001
2.198545e+003,2.225672e-001
2.202402e+003,2.196392e-001
2.206259e+003,2.187804e-001
2.210116e+003,2.160460e-001
2.213973e+003,2.143788e-001
2.217830e+003,2.124735e-001
2.221688e+003,2.098540e-001
2.225544e+003,2.067650e-001
2.229402e+003,2.042860e-001
2.233259e+003,2.034153e-001
2.237116e+003,2.027550e-001
2.240973e+003,2.020148e-001
2.244830e+003,2.022149e-001
2.248687e+003,2.026289e-001
2.252544e+003,2.022159e-001
2.256401e+003,2.027895e-001
2.260258e+003,2.034180e-001
2.264115e+003,2.045223e-001
2.267973e+003,2.073353e-001
2.271830e+003,2.101176e-001
2.275687e+003,2.132691e-001
2.279544e+003,2.161317e-001
2.283401e+003,2.185863e-001
2.287258e+003,2.211860e-001
2.291115e+003,2.240671e-001
2.294972e+003,2.266486e-001
2.298829e+003,2.290273e-001
2.302687e+003,2.305180e-001
2.306543e+003,2.322545e-001
2.310401e+003,2.331210e-001
2.314258e+003,2.336360e-001
2.318115e+003,2.325600e-001
2.321972e+003,2.318497e-001
2.325829e+003,2.314099e-001
2.329686e+003,2.294915e-001
2.333543e+003,2.265023e-001
2.337400e+003,2.253725e-001
2.341257e+003,2.240625e-001
2.345115e+003,2.214412e-001
2.348972e+003,2.184537e-001
2.352829e+003,2.147674e-001
2.356686e+003,2.117954e-001
2.360543e+003,2.088054e-001
2.364400e+003,2.059904e-001
2.368257e+003,2.043729e-001
2.372114e+003,2.052955e-001
2.375971e+003,2.054266e-001
2.379828e+003,2.035921e-001
2.383686e+003,2.022917e-001
2.387542e+003,2.016481e-001
2.391400e+003,2.012671e-001
2.395257e+003,2.014869e-001
2.399114e+003,2.021934e-001
2.402971e+003,2.035843e-001
2.406828e+003,2.039270e-001
2.410685e+003,2.034605e-001
2.414542e+003,2.043940e-001
2.418399e+003,2.078779e-001
2.422256e+003,2.095803e-001
2.426114e+003,2.119590e-001
2.429971e+003,2.145580e-001
2.433828e+003,2.158029e-001
2.437685e+003,2.171943e-001
2.441542e+003,2.193932e-001
2.445399e+003,2.211865e-001
2.449256e+003,2.220216e-001
2.453113e+003,2.223627e-001
2.456970e+003,2.233523e-001
2.460827e+003,2.245432e-001
2.464684e+003,2.249271e-001
2.468542e+003,2.232289e-001
2.472399e+003,2.215456e-001
2.476256e+003,2.203471e-001
2.480113e+003,2.196928e-001
2.483970e+003,2.188224e-001
2.487827e+003,2.166785e-001
2.491684e+003,2.138586e-001
2.495541e+003,2.117282e-001
2.499398e+003,2.102183e-001
2.503255e+003,2.074574e-001
2.507113e+003,2.050042e-001
2.510969e+003,2.041672e-001
2.514827e+003,2.019620e-001
2.518684e+003,1.996196e-001
2.522541e+003,1.997150e-001
2.526398e+003,1.993877e-001
2.530255e+003,1.984522e-001
2.534112e+003,1.971885e-001
2.537969e+003,1.979034e-001
2.541826e+003,1.998138e-001
2.545683e+003,2.014366e-001
2.549541e+003,2.031666e-001
2.553398e+003,2.048686e-001
2.557255e+003,2.068028e-001
2.561112e+003,2.083373e-001
2.564969e+003,2.100479e-001
2.568826e+003,2.125939e-001
2.572683e+003,2.149044e-001
2.576540e+003,2.168031e-001
2.580397e+003,2.194979e-001
2.584254e+003,2.229728e-001
2.588112e+003,2.261460e-001
2.591969e+003,2.276298e-001
2.595826e+003,2.286919e-001
2.599683e+003,2.299525e-001
2.603540e+003,2.316159e-001
2.607397e+003,2.323496e-001
2.611254e+003,2.327760e-001
2.615111e+003,2.340448e-001
2.618968e+003,2.352058e-001
2.622825e+003,2.350809e-001
2.626682e+003,2.332378e-001
2.630540e+003,2.329631e-001
2.634397e+003,2.334146e-001
2.638254e+003,2.350175e-001
2.642111e+003,2.332080e-001
2.645968e+003,2.309433e-001
2.649825e+003,2.310440e-001
2.653682e+003,2.311029e-001
2.657539e+003,2.312537e-001
2.661396e+003,2.326026e-001
2.665253e+003,2.337504e-001
2.669111e+003,2.330878e-001
2.672968e+003,2.336409e-001
2.676825e+003,2.365340e-001
2.680682e+003,2.394347e-001
2.684539e+003,2.393582e-001
2.688396e+003,2.404185e-001
2.692253e+003,2.441146e-001
2.696110e+003,2.462512e-001
2.699967e+003,2.489095e-001
2.703824e+003,2.532127e-001
2.707681e+003,2.575069e-001
2.711539e+003,2.603835e-001
2.715396e+003,2.633225e-001
2.719253e+003,2.660997e-001
2.723110e+003,2.682295e-001
2.726967e+003,2.717942e-001
2.730824e+003,2.765023e-001
2.734681e+003,2.797955e-001
2.738538e+003,2.816369e-001
2.742395e+003,2.836585e-001
2.746252e+003,2.861554e-001
2.750110e+003,2.881562e-001
2.753967e+003,2.892093e-001
2.757824e+003,2.901052e-001
2.761681e+003,2.913154e-001
2.765538e+003,2.934377e-001
2.769395e+003,2.946232e-001
2.773252e+003,2.955818e-001
2.777109e+003,2.970397e-001
2.780966e+003,2.978034e-001
2.784823e+003,2.993342e-001
2.788680e+003,3.011647e-001
2.792538e+003,3.022391e-001
2.796395e+003,3.031999e-001
2.800252e+003,3.035826e-001
2.804109e+003,3.049210e-001
2.807966e+003,3.057570e-001
2.811823e+003,3.069159e-001
2.815680e+003,3.098015e-001
2.819537e+003,3.125085e-001
2.823394e+003,3.152215e-001
2.827251e+003,3.168929e-001
2.831109e+003,3.177436e-001
2.834966e+003,3.209255e-001
2.838823e+003,3.248822e-001
2.842680e+003,3.293574e-001
2.846537e+003,3.339073e-001
2.850394e+003,3.382186e-001
2.854251e+003,3.419633e-001
2.858108e+003,3.439355e-001
2.861965e+003,3.479763e-001
2.865823e+003,3.517410e-001
2.869679e+003,3.537984e-001
2.873537e+003,3.576533e-001
2.877394e+003,3.627380e-001
2.881251e+003,3.648982e-001
2.885108e+003,3.676798e-001
2.888965e+003,3.711202e-001
2.892822e+003,3.736031e-001
2.896679e+003,3.774895e-001
2.900536e+003,3.817215e-001
2.904393e+003,3.859816e-001
2.908250e+003,3.887749e-001
2.912108e+003,3.935235e-001
2.915965e+003,3.998801e-001
2.919822e+003,4.048715e-001
2.923679e+003,4.043322e-001
2.927536e+003,4.020345e-001
2.931393e+003,4.025011e-001
2.935250e+003,4.049711e-001
2.939107e+003,4.067947e-001
2.942964e+003,4.071461e-001
2.946822e+003,4.095549e-001
2.950678e+003,4.131299e-001
2.954536e+003,4.163496e-001
2.958393e+003,4.206612e-001
2.962250e+003,4.216031e-001
2.966107e+003,4.234854e-001
2.969964e+003,4.269267e-001
2.973821e+003,4.301252e-001
2.977678e+003,4.348222e-001
2.981535e+003,4.383401e-001
2.985392e+003,4.394833e-001
2.989250e+003,4.417513e-001
2.993107e+003,4.468431e-001
2.996964e+003,4.518169e-001
3.000821e+003,4.545031e-001
3.004678e+003,4.568352e-001
3.008535e+003,4.611970e-001
3.012392e+003,4.656751e-001
3.016249e+003,4.695873e-001
3.020106e+003,4.753899e-001
3.023963e+003,4.827666e-001
3.027821e+003,4.869825e-001
3.031677e+003,4.888188e-001
3.035535e+003,4.942350e-001
3.039392e+003,4.996836e-001
3.043249e+003,5.040490e-001
3.047106e+003,5.058144e-001
3.050963e+003,5.075765e-001
3.054820e+003,5.117972e-001
3.058677e+003,5.150012e-001
3.062534e+003,5.173221e-001
3.066391e+003,5.243800e-001
3.070249e+003,5.280656e-001
3.074106e+003,5.284986e-001
3.077963e+003,5.308442e-001
3.081820e+003,5.347086e-001
3.085677e+003,5.405934e-001
3.089534e+003,5.454239e-001
3.093391e+003,5.493432e-001
3.097248e+003,5.525128e-001
3.101105e+003,5.570384e-001
3.104962e+003,5.592996e-001
3.108820e+003,5.621017e-001
3.112677e+003,5.683528e-001
3.116534e+003,5.747674e-001
3.120391e+003,5.771782e-001
3.124248e+003,5.816957e-001
3.128105e+003,5.881701e-001
3.131962e+003,5.920990e-001
3.135819e+003,5.945422e-001
3.139676e+003,5.982327e-001
3.143533e+003,6.014438e-001
3.147390e+003,6.062103e-001
3.151248e+003,6.143581e-001
3.155105e+003,6.202234e-001
3.158962e+003,6.235242e-001
3.162819e+003,6.273918e-001
3.166676e+003,6.310205e-001
3.170533e+003,6.370279e-001
3.174390e+003,6.425771e-001
3.178247e+003,6.471372e-001
3.182104e+003,6.539844e-001
3.185961e+003,6.616811e-001
3.189819e+003,6.676500e-001
3.193676e+003,6.702009e-001
3.197533e+003,6.748676e-001
3.201390e+003,6.776766e-001
3.205247e+003,6.787885e-001
3.209104e+003,6.805469e-001
3.212961e+003,6.848456e-001
3.216818e+003,6.904954e-001
3.220675e+003,6.957451e-001
3.224532e+003,7.002492e-001
3.228389e+003,7.032752e-001
3.232247e+003,7.062808e-001
3.236104e+003,7.112185e-001
3.239961e+003,7.141131e-001
3.243818e+003,7.184180e-001
3.247675e+003,7.198489e-001
3.251532e+003,7.131125e-001
3.255389e+003,7.125086e-001
3.259246e+003,7.173724e-001
3.263103e+003,7.190226e-001
3.266960e+003,7.213799e-001
3.270818e+003,7.267663e-001
3.274675e+003,7.303871e-001
3.278532e+003,7.357517e-001
3.282389e+003,7.383966e-001
3.286246e+003,7.402547e-001
3.290103e+003,7.456958e-001
3.293960e+003,7.459105e-001
3.297817e+003,7.451416e-001
3.301674e+003,7.521448e-001
3.305531e+003,7.600671e-001
3.309388e+003,7.637495e-001
3.313246e+003,7.641850e-001
3.317103e+003,7.674823e-001
3.320960e+003,7.779943e-001
3.324817e+003,7.846217e-001
3.328674e+003,7.851245e-001
3.332531e+003,7.839467e-001
3.336388e+003,7.879350e-001
3.340245e+003,7.995111e-001
3.344102e+003,8.082820e-001
3.347959e+003,8.123323e-001
3.351817e+003,8.154818e-001
3.355674e+003,8.159875e-001
3.359531e+003,8.133242e-001
3.363388e+003,8.139024e-001
3.367245e+003,8.203024e-001
3.371102e+003,8.246103e-001
3.374959e+003,8.304199e-001
3.378816e+003,8.357754e-001
3.382673e+003,8.325101e-001
3.386530e+003,8.313905e-001
3.390387e+003,8.330663e-001
3.394245e+003,8.354961e-001
3.398102e+003,8.419617e-001
3.401959e+003,8.454630e-001
3.405816e+003,8.462130e-001
3.409673e+003,8.429048e-001
3.413530e+003,8.438057e-001
3.417387e+003,8.496934e-001
3.421244e+003,8.518167e-001
3.425101e+003,8.517987e-001
3.428958e+003,8.510926e-001
3.432815e+003,8.506030e-001
3.436673e+003,8.557591e-001
3.440530e+003,8.570951e-001
3.444387e+003,8.565847e-001
3.448244e+003,8.599619e-001
3.452101e+003,8.575684e-001
3.455958e+003,8.581386e-001
3.459815e+003,8.593926e-001
3.463672e+003,8.587261e-001
3.467529e+003,8.659282e-001
3.471386e+003,8.654996e-001
3.475244e+003,8.639461e-001
3.479101e+003,8.666826e-001
3.482958e+003,8.728211e-001
3.486815e+003,8.734636e-001
3.490672e+003,8.715025e-001
3.494529e+003,8.686066e-001
3.498386e+003,8.683569e-001
3.502243e+003,8.689299e-001
3.506100e+003,8.660783e-001
3.509958e+003,8.686543e-001
3.513814e+003,8.714423e-001
3.517672e+003,8.666618e-001
3.521529e+003,8.585721e-001
3.525386e+003,8.606981e-001
3.529243e+003,8.623850e-001
3.533100e+003,8.583801e-001
3.536957e+003,8.513977e-001
3.540814e+003,8.488210e-001
3.544671e+003,8.492065e-001
3.548528e+003,8.434356e-001
3.552385e+003,8.391507e-001
3.556243e+003,8.384045e-001
3.560100e+003,8.282406e-001
3.563957e+003,8.210361e-001
3.567814e+003,8.176281e-001
3.571671e+003,8.064358e-001
3.575528e+003,8.000859e-001
3.579385e+003,7.949803e-001
3.583242e+003,7.804474e-001
3.587099e+003,7.665595e-001
3.590957e+003,7.498107e-001
3.594813e+003,7.321706e-001
3.598671e+003,7.234577e-001
3.602528e+003,7.030368e-001
3.606385e+003,6.760731e-001
3.610242e+003,6.516939e-001
3.614099e+003,6.259133e-001
3.617956e+003,5.981859e-001
3.621813e+003,5.707521e-001
3.625670e+003,5.417366e-001
3.629527e+003,5.108748e-001
3.633385e+003,4.788953e-001
3.637242e+003,4.450940e-001
3.641099e+003,4.123332e-001
3.644956e+003,3.831909e-001
3.648813e+003,3.553409e-001
3.652670e+003,3.267235e-001
3.656527e+003,2.997751e-001
3.660384e+003,2.734523e-001
3.664241e+003,2.498933e-001
3.668098e+003,2.324098e-001
3.671956e+003,2.157470e-001
3.675813e+003,1.998254e-001
3.679670e+003,1.857265e-001
3.683527e+003,1.715713e-001
3.687384e+003,1.598733e-001
3.691241e+003,1.507050e-001
3.695098e+003,1.420945e-001
3.698955e+003,1.360470e-001
3.702812e+003,1.294654e-001
3.706669e+003,1.243841e-001
3.710526e+003,1.188996e-001
3.714384e+003,1.121343e-001
3.718241e+003,1.080261e-001
3.722098e+003,1.055870e-001
3.725955e+003,1.032938e-001
3.729812e+003,1.005023e-001
3.733669e+003,9.838773e-002
3.737526e+003,9.699095e-002
3.741383e+003,9.520032e-002
3.745240e+003,9.301034e-002
3.749097e+003,9.146214e-002
3.752955e+003,9.026167e-002
3.756812e+003,9.000123e-002
3.760669e+003,9.076292e-002
3.764526e+003,9.039409e-002
3.768383e+003,8.837973e-002
3.772240e+003,8.733414e-002
3.776097e+003,8.779625e-002
3.779954e+003,8.789912e-002
3.783811e+003,8.706687e-002
3.787668e+003,8.787011e-002
3.791525e+003,8.979187e-002
3.795383e+003,8.982423e-002
3.799240e+003,8.866127e-002
3.803097e+003,8.935466e-002
3.806954e+003,8.953099e-002
3.810811e+003,8.788188e-002
3.814668e+003,8.762116e-002
3.818525e+003,8.726875e-002
3.822382e+003,8.683383e-002
3.826239e+003,8.810062e-002
3.830096e+003,8.925345e-002
3.833954e+003,8.930676e-002
3.837811e+003,8.724392e-002
3.841668e+003,8.608716e-002
3.845525e+003,8.590326e-002
3.849382e+003,8.362892e-002
3.853239e+003,8.360980e-002
3.857096e+003,8.526245e-002
3.860953e+003,8.677524e-002
3.864810e+003,8.636608e-002
3.868667e+003,8.490358e-002
3.872524e+003,8.512171e-002
3.876382e+003,8.450986e-002
3.880239e+003,8.376306e-002
3.884096e+003,8.366635e-002
3.887953e+003,8.340896e-002
3.891810e+003,8.279546e-002
3.895667e+003,8.250849e-002
3.899524e+003,8.220053e-002
3.903381e+003,8.126316e-002
3.907238e+003,8.094614e-002
3.911095e+003,8.145425e-002
3.914953e+003,8.272863e-002
3.918810e+003,8.250889e-002
3.922667e+003,8.179913e-002
3.926524e+003,8.112507e-002
3.930381e+003,8.199634e-002
3.934238e+003,8.313727e-002
3.938095e+003,8.324947e-002
3.941952e+003,8.280079e-002
3.945809e+003,8.431926e-002
3.949667e+003,8.424778e-002
3.953523e+003,8.335528e-002
3.957381e+003,8.333766e-002
3.961238e+003,8.418426e-002
3.965095e+003,8.479880e-002
3.968952e+003,8.472823e-002
3.972809e+003,8.509676e-002
3.976666e+003,8.419794e-002
3.980523e+003,8.381373e-002
3.984380e+003,8.462169e-002
3.988237e+003,8.573879e-002
3.992094e+003,8.517415e-002
3.995952e+003,8.422714e-002
3.999809e+003,8.478253e-002
4.003666e+003,8.358634e-002
4.007523e+003,8.175501e-002
4.011380e+003,8.064917e-002
4.015237e+003,8.172117e-002
4.019094e+003,8.225991e-002
4.022951e+003,8.139830e-002
4.026808e+003,8.009984e-002
4.030666e+003,8.005638e-002
4.034522e+003,7.999498e-002
4.038380e+003,7.978228e-002
4.042237e+003,8.026981e-002
4.046094e+003,8.060808e-002
4.049951e+003,7.932897e-002
4.053808e+003,7.921559e-002
4.057665e+003,8.089472e-002
4.061522e+003,8.070918e-002
4.065379e+003,8.031733e-002
4.069236e+003,8.030952e-002
4.073094e+003,7.962567e-002
4.076951e+003,7.999658e-002
4.080808e+003,8.113941e-002
4.084665e+003,8.057231e-002
4.088522e+003,8.250505e-002
4.092379e+003,8.373675e-002
4.096236e+003,8.314586e-002
4.100093e+003,8.169482e-002
4.103950e+003,8.065756e-002
4.107808e+003,8.110841e-002
4.111665e+003,8.222379e-002
4.115521e+003,8.305237e-002
4.119379e+003,8.262201e-002
4.123236e+003,8.288981e-002
4.127093e+003,8.372220e-002
4.130950e+003,8.413559e-002
4.134807e+003,8.350127e-002
4.138664e+003,8.174253e-002
4.142521e+003,8.217690e-002
4.146378e+003,8.211973e-002
4.150235e+003,8.162204e-002
4.154093e+003,8.135606e-002
4.157950e+003,8.190642e-002
4.161807e+003,8.223785e-002
4.165664e+003,8.318032e-002
4.169521e+003,8.210316e-002
4.173378e+003,7.787784e-002
4.177235e+003,7.603916e-002
4.181092e+003,7.722116e-002
4.184949e+003,7.969783e-002
4.188807e+003,7.984933e-002
4.192664e+003,7.688124e-002
4.196521e+003,7.550224e-002
4.200378e+003,7.432997e-002
4.204235e+003,7.361817e-002
4.208092e+003,7.408988e-002
4.211949e+003,7.576974e-002
4.215806e+003,7.586969e-002
4.219663e+003,7.577129e-002
4.223521e+003,7.867204e-002
4.227377e+003,8.029637e-002
4.231234e+003,7.971587e-002
4.235092e+003,7.918497e-002
4.238949e+003,8.040863e-002
4.242806e+003,8.082455e-002
4.246663e+003,8.015635e-002
4.250520e+003,8.067503e-002
4.254377e+003,8.117943e-002
4.258234e+003,8.140726e-002
4.262091e+003,8.226451e-002
4.265948e+003,8.412200e-002
4.269806e+003,8.270041e-002
4.273663e+003,8.168526e-002
4.277520e+003,8.067463e-002
4.281377e+003,7.867049e-002
4.285234e+003,7.947023e-002
4.289091e+003,8.011913e-002
4.292948e+003,7.984638e-002
4.296805e+003,7.926263e-002
4.300662e+003,8.036378e-002
4.304520e+003,8.091352e-002
4.308376e+003,8.164559e-002
4.312233e+003,8.067352e-002
4.316091e+003,8.015265e-002
4.319948e+003,8.130999e-002
4.323805e+003,8.189042e-002
4.327662e+003,8.117564e-002
4.331519e+003,7.979836e-002
4.335376e+003,8.017783e-002
4.339233e+003,8.016831e-002
4.343090e+003,8.051363e-002
4.346947e+003,8.067679e-002
4.350805e+003,8.083776e-002
4.354662e+003,8.100463e-002
4.358519e+003,8.224232e-002
4.362376e+003,8.173765e-002
4.366233e+003,8.058371e-002
4.370090e+003,8.025607e-002
4.373947e+003,8.167750e-002
4.377804e+003,8.380960e-002
4.381661e+003,8.496941e-002
4.385519e+003,8.607722e-002
4.389375e+003,8.475671e-002
4.393232e+003,8.465298e-002
4.397090e+003,8.499153e-002
4.400947e+003,8.572167e-002
4.404804e+003,8.711064e-002
4.408661e+003,8.681955e-002
4.412518e+003,8.718224e-002
4.416375e+003,8.789607e-002
4.420232e+003,8.703780e-002
4.424089e+003,8.804912e-002
4.427946e+003,9.132571e-002
4.431804e+003,9.080008e-002
4.435661e+003,9.083924e-002
4.439518e+003,9.214048e-002
4.443375e+003,9.171809e-002
4.447232e+003,9.138418e-002
4.451089e+003,9.010752e-002
4.454946e+003,8.625469e-002
4.458803e+003,8.550065e-002
4.462660e+003,9.067831e-002
4.466518e+003,9.110472e-002
4.470375e+003,8.923388e-002
4.474231e+003,9.051067e-002
4.478089e+003,8.995831e-002
4.481946e+003,8.953864e-002
4.485803e+003,8.887260e-002
4.489660e+003,8.796269e-002
4.493517e+003,8.931555e-002
4.497375e+003,8.794621e-002
4.501231e+003,8.612352e-002
4.505088e+003,8.750138e-002
4.508946e+003,8.900329e-002
4.512803e+003,8.938239e-002
4.516660e+003,8.985263e-002
4.520517e+003,8.799868e-002
4.524374e+003,8.676334e-002
4.528231e+003,8.813362e-002
4.532088e+003,8.945737e-002
4.535945e+003,9.029666e-002
4.539802e+003,9.127153e-002
4.543660e+003,9.137993e-002
4.547517e+003,9.301391e-002
4.551374e+003,9.588366e-002
4.555231e+003,9.247980e-002
4.559088e+003,9.074336e-002
4.562945e+003,9.228691e-002
4.566802e+003,9.125490e-002
4.570659e+003,9.201973e-002
4.574516e+003,9.309515e-002
4.578374e+003,9.177703e-002
4.582230e+003,8.936737e-002
4.586087e+003,9.119631e-002
4.589945e+003,9.411658e-002
4.593802e+003,9.501446e-002
4.597659e+003,9.400652e-002
4.601516e+003,9.360100e-002
4.605373e+003,9.413567e-002
4.609230e+003,9.257689e-002
4.613087e+003,8.951446e-002
4.616944e+003,9.153801e-002
4.620801e+003,9.339143e-002
4.624659e+003,9.335988e-002
4.628516e+003,9.090595e-002
4.632373e+003,8.924396e-002
4.636230e+003,9.231888e-002
4.640087e+003,9.301892e-002
4.643944e+003,8.852828e-002
4.647801e+003,8.759748e-002
4.651658e+003,8.793766e-002
4.655515e+003,8.827586e-002
4.659373e+003,9.012325e-002
4.663229e+003,9.131688e-002
4.667086e+003,9.101032e-002
4.670944e+003,9.049083e-002
4.674801e+003,9.225425e-002
4.678658e+003,9.373942e-002
4.682515e+003,9.398014e-002
4.686372e+003,9.341957e-002
4.690229e+003,9.335934e-002
4.694086e+003,9.555347e-002
4.697943e+003,9.988701e-002
4.701800e+003,1.001025e-001
4.705658e+003,9.672947e-002
4.709515e+003,9.698150e-002
4.713372e+003,1.004026e-001
4.717229e+003,9.943695e-002
4.721086e+003,9.947411e-002
4.724943e+003,1.031857e-001
4.728800e+003,1.020896e-001
4.732657e+003,9.877615e-002
4.736514e+003,1.005863e-001
4.740372e+003,1.001049e-001
4.744229e+003,1.007517e-001
4.748085e+003,1.037061e-001
4.751943e+003,1.035335e-001
4.755800e+003,1.012299e-001
4.759657e+003,1.018396e-001
4.763514e+003,1.021529e-001
4.767371e+003,1.016468e-001
4.771228e+003,1.003004e-001
4.775085e+003,1.002743e-001
4.778942e+003,9.837008e-002
4.782799e+003,9.783934e-002
4.786657e+003,9.671717e-002
4.790514e+003,9.878534e-002
4.794371e+003,1.028262e-001
4.798228e+003,1.005980e-001
4.802085e+003,9.993977e-002
4.805942e+003,1.019227e-001
4.809799e+003,1.025031e-001
4.813656e+003,9.849900e-002
4.817513e+003,9.743629e-002
4.821371e+003,9.987680e-002
4.825228e+003,1.007119e-001
4.829084e+003,9.877170e-002
4.832942e+003,9.853737e-002
4.836799e+003,9.906596e-002
4.840656e+003,1.015001e-001
4.844513e+003,1.048548e-001
4.848370e+003,1.071998e-001
4.852227e+003,1.055866e-001
4.856084e+003,1.040502e-001
4.859941e+003,1.023091e-001
4.863798e+003,1.028142e-001
4.867656e+003,1.046972e-001
4.871513e+003,1.053520e-001
4.875370e+003,1.068479e-001
4.879227e+003,1.066757e-001
4.883084e+003,1.064996e-001
4.886941e+003,1.036999e-001
4.890798e+003,1.042901e-001
4.894655e+003,1.064255e-001
4.898512e+003,1.074303e-001
4.902370e+003,1.102529e-001
4.906227e+003,1.117129e-001
4.910083e+003,1.078250e-001
4.913941e+003,1.057153e-001
4.917798e+003,1.039730e-001
4.921655e+003,1.034340e-001
4.925512e+003,1.055517e-001
4.929369e+003,1.054261e-001
4.933226e+003,1.039976e-001
4.937083e+003,1.040545e-001
4.940940e+003,1.034559e-001
4.944797e+003,1.080846e-001
4.948655e+003,1.078802e-001
4.952512e+003,1.051815e-001
4.956369e+003,1.080093e-001
4.960226e+003,1.093902e-001
4.964083e+003,1.085754e-001
4.967940e+003,1.065608e-001
4.971797e+003,1.070017e-001
4.975654e+003,1.096111e-001
4.979511e+003,1.114652e-001
4.983369e+003,1.114199e-001
4.987226e+003,1.088785e-001
4.991083e+003,1.085921e-001
4.994940e+003,1.128204e-001
4.998797e+003,1.135490e-001
5.002654e+003,1.107052e-001
5.006511e+003,1.110901e-001
5.010368e+003,1.120159e-001
5.014225e+003,1.114570e-001
5.018083e+003,1.170776e-001
5.021939e+003,1.213708e-001
5.025796e+003,1.177325e-001
5.029654e+003,1.136793e-001
5.033511e+003,1.148467e-001
5.037368e+003,1.139148e-001
5.041225e+003,1.150601e-001
5.045082e+003,1.159221e-001
5.048939e+003,1.158819e-001
5.052796e+003,1.166143e-001
5.056653e+003,1.145962e-001
5.060510e+003,1.156856e-001
5.064368e+003,1.165299e-001
5.068225e+003,1.125842e-001
5.072082e+003,1.115300e-001
5.075939e+003,1.111866e-001
5.079796e+003,1.112454e-001
5.083653e+003,1.091371e-001
5.087510e+003,1.080946e-001
5.091367e+003,1.110965e-001
5.095224e+003,1.129376e-001
5.099082e+003,1.156682e-001
5.102938e+003,1.169427e-001
5.106795e+003,1.169704e-001
5.110653e+003,1.169755e-001
5.114510e+003,1.188222e-001
5.118367e+003,1.183682e-001
5.122224e+003,1.166957e-001
5.126081e+003,1.174707e-001
5.129938e+003,1.161907e-001
5.133795e+003,1.170688e-001
5.137652e+003,1.192648e-001
5.141509e+003,1.197894e-001
5.145367e+003,1.195943e-001
5.149224e+003,1.231340e-001
5.153081e+003,1.248240e-001
5.156938e+003,1.221644e-001
5.160795e+003,1.223959e-001
5.164652e+003,1.249007e-001
5.168509e+003,1.252785e-001
5.172366e+003,1.242811e-001
5.176223e+003,1.215526e-001
5.180081e+003,1.195023e-001
5.183938e+003,1.239568e-001
5.187794e+003,1.271387e-001
5.191652e+003,1.268487e-001
5.195509e+003,1.236682e-001
5.199366e+003,1.241302e-001
5.203223e+003,1.250940e-001
5.207080e+003,1.213243e-001
5.210937e+003,1.180087e-001
5.214794e+003,1.167397e-001
5.218651e+003,1.167917e-001
5.222508e+003,1.202346e-001
5.226366e+003,1.249134e-001
5.230223e+003,1.241597e-001
5.234080e+003,1.241535e-001
5.237937e+003,1.257677e-001
5.241794e+003,1.241678e-001
5.245651e+003,1.223929e-001
5.249508e+003,1.239998e-001
5.253365e+003,1.243824e-001
5.257222e+003,1.219686e-001
5.261080e+003,1.210561e-001
5.264937e+003,1.194572e-001
5.268793e+003,1.193216e-001
5.272651e+003,1.198149e-001
5.276508e+003,1.229628e-001
5.280365e+003,1.265334e-001
5.284222e+003,1.242927e-001
5.288079e+003,1.226605e-001
5.291936e+003,1.281348e-001
5.295793e+003,1.303708e-001
5.299650e+003,1.283393e-001
5.303507e+003,1.302803e-001
5.307365e+003,1.286858e-001
5.311222e+003,1.253662e-001
5.315079e+003,1.247052e-001
5.318936e+003,1.251822e-001
5.322793e+003,1.269383e-001
5.326650e+003,1.285627e-001
5.330507e+003,1.301759e-001
5.334364e+003,1.277683e-001
5.338221e+003,1.270156e-001
5.342079e+003,1.243614e-001
5.345936e+003,1.229284e-001
5.349792e+003,1.266341e-001
5.353650e+003,1.274827e-001
5.357507e+003,1.239891e-001
5.361364e+003,1.221918e-001
5.365221e+003,1.264471e-001
5.369078e+003,1.319352e-001
5.372935e+003,1.285902e-001
5.376792e+003,1.244905e-001
5.380649e+003,1.256602e-001
5.384506e+003,1.263055e-001
5.388364e+003,1.255232e-001
5.392221e+003,1.254401e-001
5.396078e+003,1.243743e-001
5.399935e+003,1.261496e-001
5.403792e+003,1.269486e-001
5.407649e+003,1.268674e-001
5.411506e+003,1.300859e-001
5.415363e+003,1.289022e-001
5.419220e+003,1.294512e-001
5.423078e+003,1.325498e-001
5.426935e+003,1.303855e-001
5.430792e+003,1.288754e-001
5.434649e+003,1.281517e-001
5.438506e+003,1.246967e-001
5.442363e+003,1.250903e-001
5.446220e+003,1.300422e-001
5.450077e+003,1.293017e-001
5.453934e+003,1.254314e-001
5.457792e+003,1.258189e-001
5.461648e+003,1.301400e-001
5.465505e+003,1.303119e-001
5.469363e+003,1.333575e-001
5.473220e+003,1.359905e-001
5.477077e+003,1.344356e-001
5.480934e+003,1.320872e-001
5.484791e+003,1.306200e-001
5.488648e+003,1.293624e-001
5.492505e+003,1.287383e-001
5.496362e+003,1.279290e-001
5.500219e+003,1.279785e-001
5.504077e+003,1.288631e-001
5.507934e+003,1.279879e-001
5.511791e+003,1.264357e-001
5.515648e+003,1.239776e-001
5.519505e+003,1.223681e-001
5.523362e+003,1.242787e-001
5.527219e+003,1.252912e-001
5.531076e+003,1.277006e-001
5.534933e+003,1.283102e-001
5.538791e+003,1.290893e-001
5.542647e+003,1.311055e-001
5.546504e+003,1.292647e-001
5.550362e+003,1.298299e-001
5.554219e+003,1.315694e-001
5.558076e+003,1.303947e-001
5.561933e+003,1.305596e-001
5.565790e+003,1.309311e-001
5.569647e+003,1.292599e-001
5.573504e+003,1.306830e-001
5.577361e+003,1.324730e-001
5.581218e+003,1.330287e-001
5.585076e+003,1.376023e-001
5.588933e+003,1.338541e-001
5.592790e+003,1.316558e-001
5.596647e+003,1.378711e-001
5.600504e+003,1.393065e-001
5.604361e+003,1.326985e-001
5.608218e+003,1.274842e-001
5.612075e+003,1.294193e-001
5.615932e+003,1.304022e-001
5.619790e+003,1.291071e-001
5.623646e+003,1.293787e-001
5.627503e+003,1.276757e-001
5.631361e+003,1.263053e-001
5.635218e+003,1.269044e-001
5.639075e+003,1.286294e-001
5.642932e+003,1.359015e-001
5.646789e+003,1.384705e-001
5.650646e+003,1.302611e-001
5.654503e+003,1.297083e-001
5.658360e+003,1.322840e-001
5.662217e+003,1.299201e-001
5.666075e+003,1.310347e-001
5.669932e+003,1.321123e-001
5.673789e+003,1.320632e-001
5.677646e+003,1.324754e-001
5.681503e+003,1.318655e-001
5.685360e+003,1.284589e-001
5.689217e+003,1.270105e-001
5.693074e+003,1.305158e-001
5.696931e+003,1.302697e-001
5.700789e+003,1.299031e-001
5.704646e+003,1.355179e-001
5.708502e+003,1.377330e-001
5.712360e+003,1.350212e-001
5.716217e+003,1.334521e-001
5.720074e+003,1.337039e-001
5.723931e+003,1.345130e-001
5.727788e+003,1.339091e-001
5.731645e+003,1.295724e-001
5.735502e+003,1.325503e-001
5.739359e+003,1.392441e-001
5.743216e+003,1.371318e-001
5.747074e+003,1.351999e-001
5.750931e+003,1.353834e-001
5.754788e+003,1.337358e-001
5.758645e+003,1.342815e-001
5.762502e+003,1.381075e-001
5.766359e+003,1.390199e-001
5.770216e+003,1.386418e-001
5.774073e+003,1.381376e-001
5.777930e+003,1.347633e-001
5.781788e+003,1.320764e-001
5.785645e+003,1.325134e-001
5.789501e+003,1.306160e-001
5.793359e+003,1.288445e-001
5.797216e+003,1.288047e-001
5.801073e+003,1.277494e-001
5.804930e+003,1.305684e-001
5.808787e+003,1.366878e-001
5.812644e+003,1.360398e-001
5.816501e+003,1.294420e-001
5.820358e+003,1.290480e-001
5.824215e+003,1.323256e-001
5.828073e+003,1.351945e-001
5.831930e+003,1.333992e-001
5.835787e+003,1.319404e-001
5.839644e+003,1.282222e-001
5.843501e+003,1.266405e-001
5.847358e+003,1.287622e-001
5.851215e+003,1.352551e-001
5.855072e+003,1.367411e-001
5.858929e+003,1.330046e-001
5.862787e+003,1.313369e-001
5.866644e+003,1.322259e-001
5.870500e+003,1.344236e-001
5.874358e+003,1.370077e-001
5.878215e+003,1.352857e-001
5.882072e+003,1.331194e-001
5.885929e+003,1.335026e-001
5.889786e+003,1.293095e-001
5.893643e+003,1.282832e-001
5.897500e+003,1.317875e-001
5.901357e+003,1.307391e-001
5.905214e+003,1.280667e-001
5.909072e+003,1.327582e-001
5.912929e+003,1.381659e-001
5.916786e+003,1.385753e-001
5.920643e+003,1.350658e-001
5.924500e+003,1.283827e-001
5.928357e+003,1.287363e-001
5.932214e+003,1.308889e-001
5.936071e+003,1.309779e-001
5.939928e+003,1.338230e-001
5.943786e+003,1.310349e-001
5.947643e+003,1.276981e-001
5.951500e+003,1.276285e-001
5.955357e+003,1.304574e-001
5.959214e+003,1.323148e-001
5.963071e+003,1.324424e-001
5.966928e+003,1.351198e-001
5.970785e+003,1.390254e-001
5.974642e+003,1.357700e-001
5.978500e+003,1.356998e-001
5.982356e+003,1.380589e-001
5.986213e+003,1.374428e-001
5.990071e+003,1.365520e-001
5.993928e+003,1.326740e-001
5.997785e+003,1.362336e-001
6.001642e+003,1.400105e-001
6.005499e+003,1.411317e-001
6.009356e+003,1.358982e-001
6.013213e+003,1.354841e-001
6.017070e+003,1.341451e-001
6.020927e+003,1.322846e-001
6.024785e+003,1.297290e-001
6.028642e+003,1.289302e-001
6.032499e+003,1.339627e-001
6.036356e+003,1.293903e-001
6.040213e+003,1.271206e-001
6.044070e+003,1.340478e-001
6.047927e+003,1.373576e-001
6.051784e+003,1.379604e-001
6.055641e+003,1.341730e-001
6.059499e+003,1.300429e-001
6.063355e+003,1.333195e-001
6.067212e+003,1.345467e-001
6.071070e+003,1.338294e-001
6.074927e+003,1.323460e-001
6.078784e+003,1.313402e-001
6.082641e+003,1.309735e-001
6.086498e+003,1.318941e-001
6.090355e+003,1.324245e-001
6.094212e+003,1.308694e-001
6.098069e+003,1.312693e-001
6.101926e+003,1.339589e-001
6.105784e+003,1.341286e-001
6.109641e+003,1.301637e-001
6.113498e+003,1.289955e-001
6.117355e+003,1.251588e-001
6.121212e+003,1.229988e-001
6.125069e+003,1.202607e-001
6.128926e+003,1.176865e-001
6.132783e+003,1.178556e-001
6.136640e+003,1.219228e-001
6.140498e+003,1.287212e-001
6.144354e+003,1.264561e-001
6.148211e+003,1.255791e-001
6.152069e+003,1.277752e-001
6.155926e+003,1.296539e-001
6.159783e+003,1.292044e-001
6.163640e+003,1.301596e-001
6.167497e+003,1.327296e-001
6.171354e+003,1.285029e-001
6.175211e+003,1.251388e-001
6.179068e+003,1.249020e-001
6.182925e+003,1.270710e-001
6.186783e+003,1.225611e-001
6.190640e+003,1.228650e-001
6.194497e+003,1.301629e-001
6.198354e+003,1.313543e-001
6.202211e+003,1.258130e-001
6.206068e+003,1.252243e-001
6.209925e+003,1.293796e-001
6.213782e+003,1.295662e-001
6.217639e+003,1.250456e-001
6.221497e+003,1.319161e-001
6.225354e+003,1.346592e-001
6.229210e+003,1.244257e-001
6.233068e+003,1.266853e-001
6.236925e+003,1.279069e-001
6.240782e+003,1.270394e-001
6.244639e+003,1.301207e-001
6.248496e+003,1.295906e-001
6.252353e+003,1.261817e-001
6.256210e+003,1.199180e-001
6.260067e+003,1.129424e-001
6.263924e+003,1.177549e-001
6.267782e+003,1.198369e-001
6.271639e+003,1.228635e-001
6.275496e+003,1.284210e-001
6.279353e+003,1.301151e-001
6.283210e+003,1.342271e-001
6.287067e+003,1.324593e-001
6.290924e+003,1.286047e-001
6.294781e+003,1.279072e-001
6.298638e+003,1.300179e-001
6.302496e+003,1.320473e-001
6.306353e+003,1.320257e-001
6.310209e+003,1.297272e-001
6.314067e+003,1.234095e-001
6.317924e+003,1.194427e-001
6.321781e+003,1.219794e-001
6.325638e+003,1.256529e-001
6.329495e+003,1.212066e-001
6.333352e+003,1.195572e-001
6.337209e+003,1.274664e-001
6.341066e+003,1.272646e-001
6.344923e+003,1.250629e-001
6.348780e+003,1.299332e-001
6.352638e+003,1.300836e-001
6.356495e+003,1.286947e-001
6.360352e+003,1.218982e-001
6.364209e+003,1.161408e-001
6.368066e+003,1.205918e-001
6.371923e+003,1.231935e-001
6.375780e+003,1.183560e-001
6.379637e+003,1.143978e-001
6.383494e+003,1.156577e-001
6.387352e+003,1.182818e-001
6.391208e+003,1.253737e-001
6.395065e+003,1.308574e-001
6.398923e+003,1.254039e-001
6.402780e+003,1.208463e-001
6.406637e+003,1.217705e-001
6.410494e+003,1.179162e-001
6.414351e+003,1.207126e-001
6.418208e+003,1.289507e-001
6.422065e+003,1.349900e-001
6.425922e+003,1.343659e-001
6.429779e+003,1.288975e-001
6.433637e+003,1.244936e-001
6.437494e+003,1.205489e-001
6.441351e+003,1.312075e-001
6.445208e+003,1.334769e-001
6.449065e+003,1.319753e-001
6.452922e+003,1.297260e-001
6.456779e+003,1.251079e-001
6.460636e+003,1.215703e-001
6.464493e+003,1.217281e-001
6.468351e+003,1.267492e-001
6.472208e+003,1.329493e-001
6.476064e+003,1.305966e-001
6.479922e+003,1.292770e-001
6.483779e+003,1.292186e-001
6.487636e+003,1.225409e-001
6.491493e+003,1.167372e-001
6.495350e+003,1.128077e-001
6.499207e+003,1.170638e-001
6.503064e+003,1.219468e-001
6.506921e+003,1.275850e-001
6.510778e+003,1.383143e-001
6.514636e+003,1.416526e-001
6.518493e+003,1.297452e-001
6.522350e+003,1.127864e-001
6.526207e+003,1.086022e-001
6.530064e+003,1.219612e-001
6.533921e+003,1.292926e-001
6.537778e+003,1.264096e-001
6.541635e+003,1.236486e-001
6.545492e+003,1.231216e-001
6.549350e+003,1.209894e-001
6.553207e+003,1.170901e-001
6.557063e+003,1.190708e-001
6.560921e+003,1.250951e-001
6.564778e+003,1.222999e-001
6.568635e+003,1.165765e-001
6.572492e+003,1.211014e-001
6.576349e+003,1.198673e-001
6.580206e+003,1.124359e-001
6.584063e+003,1.198482e-001
6.587920e+003,1.311732e-001
6.591777e+003,1.305417e-001
6.595635e+003,1.246406e-001
6.599492e+003,1.212068e-001
6.603349e+003,1.112584e-001
6.607206e+003,1.110863e-001
6.611063e+003,1.174335e-001
6.614920e+003,1.197518e-001
6.618777e+003,1.261634e-001
6.622634e+003,1.212208e-001
6.626491e+003,1.188597e-001
6.630349e+003,1.124437e-001
6.634206e+003,1.085808e-001
6.638063e+003,1.099578e-001
6.641920e+003,1.139791e-001
6.645777e+003,1.156638e-001
6.649634e+003,1.171181e-001
6.653491e+003,1.210290e-001
6.657348e+003,1.195887e-001
6.661205e+003,1.142494e-001
6.665063e+003,1.124782e-001
6.668919e+003,1.139648e-001
6.672776e+003,1.154591e-001
6.676634e+003,1.144502e-001
6.680491e+003,1.182542e-001
6.684348e+003,1.217434e-001
6.688205e+003,1.274951e-001
6.692062e+003,1.289915e-001
6.695919e+003,1.189561e-001
6.699776e+003,1.229967e-001
6.703633e+003,1.157466e-001
6.707490e+003,9.854061e-002
6.711348e+003,1.025433e-001
6.715205e+003,1.153214e-001
6.719062e+003,1.098764e-001
6.722919e+003,1.137263e-001
6.726776e+003,1.212592e-001
6.730633e+003,1.193698e-001
6.734490e+003,1.198560e-001
6.738347e+003,1.203619e-001
6.742204e+003,1.215558e-001
6.746062e+003,1.186078e-001
6.749918e+003,1.253764e-001
6.753775e+003,1.254897e-001
6.757633e+003,1.227921e-001
6.761490e+003,1.217476e-001
6.765347e+003,1.165443e-001
6.769204e+003,1.128660e-001
6.773061e+003,1.033563e-001
6.776918e+003,1.080445e-001
6.780775e+003,1.107478e-001
6.784632e+003,1.128677e-001
6.788489e+003,1.218222e-001
6.792347e+003,1.225380e-001
6.796204e+003,1.172606e-001
6.800061e+003,1.142702e-001
6.803918e+003,1.127345e-001
6.807775e+003,1.211400e-001
6.811632e+003,1.277535e-001
6.815489e+003,1.271590e-001
6.819346e+003,1.330670e-001
6.823203e+003,1.248107e-001
6.827061e+003,1.205231e-001
6.830917e+003,1.218752e-001
6.834774e+003,1.113908e-001
6.838632e+003,1.095979e-001
6.842489e+003,1.157978e-001
6.846346e+003,1.205656e-001
6.850203e+003,1.210961e-001
6.854060e+003,1.209618e-001
6.857917e+003,1.242340e-001
6.861774e+003,1.192525e-001
6.865631e+003,1.138439e-001
6.869488e+003,1.094730e-001
6.873346e+003,1.001681e-001
6.877203e+003,1.038493e-001
6.881060e+003,1.085061e-001
6.884917e+003,1.079675e-001
6.888774e+003,1.137062e-001
6.892631e+003,1.283323e-001
6.896488e+003,1.175151e-001
6.900345e+003,9.611560e-002
6.904202e+003,1.024498e-001
6.908060e+003,1.214338e-001
6.911917e+003,1.273330e-001
6.915773e+003,1.175870e-001
6.919631e+003,1.142659e-001
6.923488e+003,1.141460e-001
6.927345e+003,1.111910e-001
6.931202e+003,1.208086e-001
6.935059e+003,1.265941e-001
6.938916e+003,1.155502e-001
6.942773e+003,1.158383e-001
6.946630e+003,1.240856e-001
6.950487e+003,1.355685e-001
6.954345e+003,1.218460e-001
6.958202e+003,1.053021e-001
6.962059e+003,1.161072e-001
6.965916e+003,1.275464e-001
6.969773e+003,1.192007e-001
6.973630e+003,1.209434e-001
6.977487e+003,1.171354e-001
6.981344e+003,1.045758e-001
6.985201e+003,1.053930e-001
6.989059e+003,1.141872e-001
6.992916e+003,1.156380e-001
6.996772e+003,1.125186e-001
7.000630e+003,1.187848e-001
7.004487e+003,1.242073e-001
7.008344e+003,1.148386e-001
7.012201e+003,1.091207e-001
7.016058e+003,1.185921e-001
7.019915e+003,1.238106e-001
7.023772e+003,1.200677e-001
7.027629e+003,1.134493e-001
7.031486e+003,1.063552e-001
7.035344e+003,1.189715e-001
7.039201e+003,1.264948e-001
7.043058e+003,1.159310e-001
7.046915e+003,1.088152e-001
7.050772e+003,1.139466e-001
7.054629e+003,1.099954e-001
7.058486e+003,1.159826e-001
7.062343e+003,1.250909e-001
7.066200e+003,1.153576e-001
7.070058e+003,1.009407e-001
7.073915e+003,9.925190e-002
7.077771e+003,9.539144e-002
7.081629e+003,9.732833e-002
7.085486e+003,1.137441e-001
7.089343e+003,1.284489e-001
7.093200e+003,1.185297e-001
7.097057e+003,1.068077e-001
7.100914e+003,1.062591e-001
7.104771e+003,1.098101e-001
7.108628e+003,1.128495e-001
7.112485e+003,1.145643e-001
7.116343e+003,1.264017e-001
7.120200e+003,1.251929e-001
7.124057e+003,1.215570e-001
7.127914e+003,1.244006e-001
7.131771e+003,1.123460e-001
7.135628e+003,1.031095e-001
7.139485e+003,1.016834e-001
7.143342e+003,1.041480e-001
7.147199e+003,1.037210e-001
7.151057e+003,1.118166e-001
7.154914e+003,1.095744e-001
7.158771e+003,1.110414e-001
7.162628e+003,1.141592e-001
7.166485e+003,1.031867e-001
7.170342e+003,9.482481e-002
7.174199e+003,9.910292e-002
7.178056e+003,1.143430e-001
7.181913e+003,1.228393e-001
7.185771e+003,1.276488e-001
7.189627e+003,1.213533e-001
7.193484e+003,1.191061e-001
7.197342e+003,1.025508e-001
7.201199e+003,8.841373e-002
7.205056e+003,9.605777e-002
7.208913e+003,1.098566e-001
7.212770e+003,1.140401e-001
7.216627e+003,1.043279e-001
7.220484e+003,1.067612e-001
7.224341e+003,1.053148e-001
7.228198e+003,1.026149e-001
7.232056e+003,8.956657e-002
7.235913e+003,8.635282e-002
7.239770e+003,9.580681e-002
7.243627e+003,1.028294e-001
7.247484e+003,1.164927e-001
7.251341e+003,1.091460e-001
7.255198e+003,1.014739e-001
7.259055e+003,1.101221e-001
7.262912e+003,1.209370e-001
7.266770e+003,1.270660e-001
7.270626e+003,1.261222e-001
7.274483e+003,1.004661e-001
7.278341e+003,9.034146e-002
7.282198e+003,1.019638e-001
7.286055e+003,9.907308e-002
7.289912e+003,1.024361e-001
7.293769e+003,1.076492e-001
7.297626e+003,1.148268e-001
7.301483e+003,1.065180e-001
7.305340e+003,9.527259e-002
7.309197e+003,9.475816e-002
7.313055e+003,9.458720e-002
7.316912e+003,1.086032e-001
7.320769e+003,1.046063e-001
7.324626e+003,8.837897e-002
7.328483e+003,1.075096e-001
7.332340e+003,1.294478e-001
7.336197e+003,1.165934e-001
7.340054e+003,1.061915e-001
7.343911e+003,8.876320e-002
7.347769e+003,9.173688e-002
7.351625e+003,1.114523e-001
7.355482e+003,1.085443e-001
7.359340e+003,7.894309e-002
7.363197e+003,6.534488e-002
7.367054e+003,9.702898e-002
7.370911e+003,1.171237e-001
7.374768e+003,1.088296e-001
7.378625e+003,1.064902e-001
7.382482e+003,1.091085e-001
7.386339e+003,1.021189e-001
7.390196e+003,9.972978e-002
7.394054e+003,1.053770e-001
7.397911e+003,1.105795e-001
7.401768e+003,9.779090e-002
7.405625e+003,6.737465e-002
7.409482e+003,6.456094e-002
7.413339e+003,8.305815e-002
7.417196e+003,8.372903e-002
7.421053e+003,9.384999e-002
7.424910e+003,9.459276e-002
7.428768e+003,8.177817e-002
7.432625e+003,8.196292e-002
7.436481e+003,1.128457e-001
7.440339e+003,1.138661e-001
7.444196e+003,8.419005e-002
7.448053e+003,7.791943e-002
7.451910e+003,8.294600e-002
7.455767e+003,8.327504e-002
7.459624e+003,7.543439e-002
7.463481e+003,1.031777e-001
7.467338e+003,1.008807e-001
7.471195e+003,6.559850e-002
7.475053e+003,6.715732e-002
7.478910e+003,9.631000e-002
7.482767e+003,9.868398e-002
7.486624e+003,9.084615e-002
7.490481e+003,8.493685e-002
7.494338e+003,9.728318e-002
7.498195e+003,1.189053e-001
7.502052e+003,1.085550e-001
7.505909e+003,9.607377e-002
7.509767e+003,1.029164e-001
7.513624e+003,1.042641e-001
7.517480e+003,9.477836e-002
7.521338e+003,9.642442e-002
7.525195e+003,8.120855e-002
7.529052e+003,6.999539e-002
7.532909e+003,8.268370e-002
7.536766e+003,1.116893e-001
7.540623e+003,1.055463e-001
7.544480e+003,7.557590e-002
7.548337e+003,7.670876e-002
7.552194e+003,7.589127e-002
7.556052e+003,9.050120e-002
7.559909e+003,9.447084e-002
7.563766e+003,1.078131e-001
7.567623e+003,1.031853e-001
7.571480e+003,9.896191e-002
7.575337e+003,9.495244e-002
7.579194e+003,9.459528e-002
7.583051e+003,7.729657e-002
7.586908e+003,4.917365e-002
7.590766e+003,5.898802e-002
7.594623e+003,8.733957e-002
7.598479e+003,9.636807e-002
7.602337e+003,9.410568e-002
7.606194e+003,9.496011e-002
7.610051e+003,9.444588e-002
7.613908e+003,9.289657e-002
7.617765e+003,8.003343e-002
7.621622e+003,4.613693e-002
7.625479e+003,3.146237e-002
7.629336e+003,6.037104e-002
7.633193e+003,8.167926e-002
7.637051e+003,1.057572e-001
7.640908e+003,1.197892e-001
7.644765e+003,1.166338e-001
7.648622e+003,1.025974e-001
7.652479e+003,1.070702e-001
7.656336e+003,1.225090e-001
7.660193e+003,1.251153e-001
7.664050e+003,1.279733e-001
7.667907e+003,1.259652e-001
7.671765e+003,1.077835e-001
7.675622e+003,9.460916e-002
7.679479e+003,1.200164e-001
7.683336e+003,1.000617e-001
7.687193e+003,7.121939e-002
7.691050e+003,6.848013e-002
7.694907e+003,8.469255e-002
7.698764e+003,7.957254e-002
7.702621e+003,7.889143e-002
7.706479e+003,9.729794e-002
7.710335e+003,1.435452e-001
7.714192e+003,1.610467e-001
7.718050e+003,1.134210e-001
7.721907e+003,7.945328e-002
7.725764e+003,9.746665e-002
7.729621e+003,8.476198e-002
7.733478e+003,7.553090e-002
7.737335e+003,9.232339e-002
7.741192e+003,6.119822e-002
7.745049e+003,4.379356e-002
7.748906e+003,5.575630e-002
7.752764e+003,6.786670e-002
7.756621e+003,6.321137e-002
7.760478e+003,7.758356e-002
7.764335e+003,9.948523e-002
7.768192e+003,8.969756e-002
7.772049e+003,9.503433e-002
7.775906e+003,1.288111e-001
7.779763e+003,1.298905e-001
7.783620e+003,1.198234e-001
7.787478e+003,9.079979e-002
7.791334e+003,8.539391e-002
7.795191e+003,1.091205e-001
7.799049e+003,1.065368e-001
7.802906e+003,1.036458e-001
7.806763e+003,1.258391e-001
7.810620e+003,1.241665e-001
7.814477e+003,1.171942e-001
7.818334e+003,8.806393e-002
7.822191e+003,1.118623e-001
7.826048e+003,1.340724e-001
7.829905e+003,1.078749e-001
7.833763e+003,9.316861e-002
7.837620e+003,9.747038e-002
7.841477e+003,6.284571e-002
7.845334e+003,7.225957e-002
7.849191e+003,1.036239e-001
7.853048e+003,8.046031e-002
7.856905e+003,7.218745e-002
7.860762e+003,7.108231e-002
7.864619e+003,6.223406e-002
7.868477e+003,6.227586e-002
7.872333e+003,8.266538e-002
7.876190e+003,8.253277e-002
7.880048e+003,8.656214e-002
7.883905e+003,8.625594e-002
7.887762e+003,5.107855e-002
7.891619e+003,1.993939e-002
7.895476e+003,4.099771e-002
7.899333e+003,6.752977e-002
7.903190e+003,1.170477e-001
7.907047e+003,1.273217e-001
7.910904e+003,8.700626e-002
7.914762e+003,9.189353e-002
7.918619e+003,1.136370e-001
7.922476e+003,7.757933e-002
7.926333e+003,1.081986e-001
7.930190e+003,1.345548e-001
7.934047e+003,1.282928e-001
7.937904e+003,1.639445e-001
7.941761e+003,1.429395e-001
7.945618e+003,8.042287e-002
7.949476e+003,8.161576e-002
7.953333e+003,1.097128e-001
7.957189e+003,9.987709e-002
7.961047e+003,6.178556e-002
7.964904e+003,6.176279e-002
7.968761e+003,9.762630e-002
7.972618e+003,1.046135e-001
7.976475e+003,7.561395e-002
7.980332e+003,6.231759e-002
7.984189e+003,8.275297e-002
7.988046e+003,1.220719e-001
7.991903e+003,1.125800e-001
7.995761e+003,6.803613e-002
7.999618e+003,4.261186e-002
