4.011380e+002,6.000000e+000
4.049951e+002,2.752374e-001
4.088522e+002,7.129927e-001
4.127093e+002,7.350145e-002
4.165664e+002,6.000000e+000
4.204235e+002,-5.219907e-001
4.242806e+002,6.000000e+000
4.281377e+002,6.000000e+000
4.319948e+002,1.203767e+000
4.358519e+002,6.000000e+000
4.397090e+002,6.000000e+000
4.435661e+002,6.000000e+000
4.474232e+002,2.265644e-001
4.512803e+002,6.000000e+000
4.551374e+002,6.000000e+000
4.589945e+002,6.000000e+000
4.628516e+002,6.000000e+000
4.667087e+002,6.000000e+000
4.705658e+002,5.290642e-001
4.744229e+002,1.037568e-001
4.782800e+002,2.870094e-001
4.821371e+002,6.000000e+000
4.859941e+002,-5.440701e-001
4.898513e+002,6.000000e+000
4.937083e+002,6.000000e+000
4.975654e+002,6.000000e+000
5.014225e+002,6.000000e+000
5.052796e+002,-5.506790e-001
5.091367e+002,-5.277665e-001
5.129938e+002,2.330774e-002
5.168509e+002,5.568578e-001
5.207080e+002,1.183374e+000
5.245651e+002,8.089779e-002
5.284222e+002,6.000000e+000
5.322793e+002,6.000000e+000
5.361364e+002,6.000000e+000
5.399935e+002,6.000000e+000
5.438506e+002,1.198817e+000
5.477077e+002,6.000000e+000
5.515648e+002,-7.417592e-002
5.554219e+002,6.000000e+000
5.592790e+002,6.000000e+000
5.631361e+002,6.000000e+000
5.669932e+002,-9.164957e-001
5.708503e+002,6.000000e+000
5.747074e+002,-2.291411e-002
5.785645e+002,7.276345e-001
5.824216e+002,6.000000e+000
5.862787e+002,8.437926e-001
5.901357e+002,1.237570e-001
5.939929e+002,6.000000e+000
5.978499e+002,6.000000e+000
6.017070e+002,-1.977737e-001
6.055641e+002,-1.016250e-001
6.094212e+002,1.003852e+000
6.132783e+002,6.000000e+000
6.171354e+002,6.638128e-001
6.209925e+002,5.843246e-001
6.248496e+002,6.000000e+000
6.287067e+002,6.000000e+000
6.325638e+002,-1.078367e+000
6.364209e+002,5.594131e-001
6.402780e+002,-1.418115e-001
6.441351e+002,6.000000e+000
6.479922e+002,6.000000e+000
6.518493e+002,6.000000e+000
6.557064e+002,6.000000e+000
6.595635e+002,6.000000e+000
6.634205e+002,3.529585e-001
6.672777e+002,-1.023023e-001
6.711348e+002,-5.037510e-001
6.749918e+002,6.000000e+000
6.788490e+002,6.000000e+000
6.827061e+002,4.822106e-001
6.865631e+002,-4.732164e-001
6.904203e+002,6.000000e+000
6.942773e+002,4.356075e-001
6.981344e+002,-2.218137e-002
7.019916e+002,-4.669301e-002
7.058486e+002,6.382123e-001
7.097057e+002,6.000000e+000
7.135629e+002,5.049772e-001
7.174199e+002,8.773420e-001
7.212770e+002,6.000000e+000
7.251342e+002,-5.141653e-001
7.289912e+002,-8.844317e-002
7.328483e+002,4.940965e-001
7.367054e+002,1.425477e+000
7.405625e+002,6.000000e+000
7.444196e+002,6.000000e+000
7.482767e+002,6.000000e+000
7.521338e+002,6.000000e+000
7.559908e+002,-2.884041e+000
7.598480e+002,6.000000e+000
7.637051e+002,6.000000e+000
7.675621e+002,6.000000e+000
7.714193e+002,6.000000e+000
7.752764e+002,6.347248e-001
7.791334e+002,6.000000e+000
7.829905e+002,6.000000e+000
7.868477e+002,6.000000e+000
7.907047e+002,9.499794e-003
7.945618e+002,-2.002578e-002
7.984189e+002,-2.023944e-001
8.022760e+002,1.166910e+000
8.061331e+002,6.000000e+000
8.099902e+002,2.697622e+000
8.138473e+002,4.788470e-001
8.177044e+002,6.777020e-001
8.215615e+002,6.000000e+000
8.254186e+002,6.000000e+000
8.292757e+002,-1.179767e-001
8.331328e+002,6.000000e+000
8.369899e+002,6.000000e+000
8.408470e+002,6.000000e+000
8.447041e+002,6.000000e+000
8.485612e+002,6.000000e+000
8.524183e+002,1.660250e+000
8.562754e+002,6.399600e-001
8.601324e+002,7.693936e-001
8.639896e+002,9.633726e-001
8.678467e+002,9.349262e-001
8.717037e+002,1.243914e+000
8.755609e+002,2.432085e+000
8.794180e+002,8.659863e-001
8.832750e+002,8.106623e-001
8.871321e+002,6.000000e+000
8.909893e+002,6.000000e+000
8.948463e+002,6.000000e+000
8.987034e+002,1.280582e+000
9.025605e+002,6.000000e+000
9.064176e+002,2.490361e+000
9.102747e+002,1.051489e+000
9.141318e+002,1.269873e+000
9.179889e+002,6.000000e+000
9.218461e+002,2.331492e+000
9.257031e+002,1.098253e+000
9.295602e+002,1.384008e+000
9.334174e+002,2.166657e+000
9.372744e+002,1.459726e+000
9.411315e+002,1.427115e+000
9.449886e+002,1.577926e+000
9.488457e+002,1.220339e+000
9.527028e+002,1.115595e+000
9.565599e+002,1.372494e+000
9.604170e+002,2.034465e+000
9.642740e+002,6.000000e+000
9.681312e+002,1.935537e+000
9.719883e+002,1.739024e+000
9.758453e+002,6.000000e+000
9.797025e+002,2.771561e+000
9.835596e+002,1.652868e+000
9.874166e+002,2.308731e+000
9.912738e+002,6.000000e+000
9.951309e+002,6.000000e+000
9.989879e+002,6.000000e+000
1.002845e+003,1.990980e+000
1.006702e+003,2.201707e+000
1.010559e+003,2.510230e+000
1.014416e+003,1.533405e+000
1.018273e+003,1.409748e+000
1.022130e+003,1.413368e+000
1.025988e+003,1.303366e+000
1.029845e+003,1.462456e+000
1.033702e+003,1.939481e+000
1.037559e+003,1.557871e+000
1.041416e+003,1.378491e+000
1.045273e+003,1.557893e+000
1.049130e+003,2.012878e+000
1.052987e+003,1.890827e+000
1.056844e+003,1.782563e+000
1.060702e+003,6.000000e+000
1.064559e+003,6.000000e+000
1.068416e+003,1.602869e+000
1.072273e+003,1.597659e+000
1.076130e+003,1.803833e+000
1.079987e+003,1.608127e+000
1.083844e+003,1.412966e+000
1.087701e+003,1.648427e+000
1.091558e+003,2.070048e+000
1.095415e+003,1.725447e+000
1.099272e+003,1.455042e+000
1.103130e+003,1.518238e+000
1.106987e+003,1.567090e+000
1.110844e+003,1.589875e+000
1.114701e+003,1.762161e+000
1.118558e+003,1.686733e+000
1.122415e+003,1.510899e+000
1.126272e+003,1.541002e+000
1.130129e+003,1.549028e+000
1.133986e+003,1.349292e+000
1.137843e+003,1.284381e+000
1.141701e+003,1.343042e+000
1.145558e+003,1.375301e+000
1.149415e+003,1.467579e+000
1.153272e+003,1.548400e+000
1.157129e+003,1.367059e+000
1.160986e+003,1.319508e+000
1.164843e+003,1.552104e+000
1.168700e+003,1.685948e+000
1.172557e+003,1.668107e+000
1.176414e+003,1.483797e+000
1.180271e+003,1.449183e+000
1.184129e+003,1.436773e+000
1.187986e+003,1.416730e+000
1.191843e+003,1.397017e+000
1.195700e+003,1.348091e+000
1.199557e+003,1.260770e+000
1.203414e+003,1.248011e+000
1.207271e+003,1.210218e+000
1.211128e+003,1.179184e+000
1.214985e+003,1.128879e+000
1.218842e+003,1.028557e+000
1.222699e+003,9.481606e-001
1.226557e+003,8.480242e-001
1.230414e+003,7.666723e-001
1.234271e+003,7.306616e-001
1.238128e+003,6.858994e-001
1.241985e+003,6.456708e-001
1.245842e+003,6.144332e-001
1.249699e+003,5.885541e-001
1.253556e+003,5.749853e-001
1.257413e+003,5.468147e-001
1.261271e+003,5.059742e-001
1.265128e+003,4.839117e-001
1.268985e+003,4.781881e-001
1.272842e+003,4.685119e-001
1.276699e+003,4.453302e-001
1.280556e+003,4.233902e-001
1.284413e+003,4.082470e-001
1.288270e+003,4.102558e-001
1.292127e+003,4.084141e-001
1.295984e+003,3.974820e-001
1.299841e+003,3.896190e-001
1.303698e+003,3.824416e-001
1.307556e+003,3.747906e-001
1.311413e+003,3.637607e-001
1.315270e+003,3.595409e-001
1.319127e+003,3.576266e-001
1.322984e+003,3.519681e-001
1.326841e+003,3.523981e-001
1.330698e+003,3.520816e-001
1.334555e+003,3.405909e-001
1.338412e+003,3.255296e-001
1.342270e+003,3.215103e-001
1.346127e+003,3.260518e-001
1.349984e+003,3.304343e-001
1.353841e+003,3.329111e-001
1.357698e+003,3.236425e-001
1.361555e+003,3.292692e-001
1.365412e+003,3.412155e-001
1.369269e+003,3.413299e-001
1.373126e+003,3.376684e-001
1.376983e+003,3.468994e-001
1.380840e+003,3.542787e-001
1.384698e+003,3.586609e-001
1.388555e+003,3.659208e-001
1.392412e+003,3.806919e-001
1.396269e+003,3.955565e-001
1.400126e+003,4.043111e-001
1.403983e+003,4.140539e-001
1.407840e+003,4.237809e-001
1.411697e+003,4.397644e-001
1.415554e+003,4.462902e-001
1.419411e+003,4.578213e-001
1.423269e+003,4.687050e-001
1.427126e+003,4.666831e-001
1.430983e+003,4.659352e-001
1.434840e+003,4.645419e-001
1.438697e+003,4.660245e-001
1.442554e+003,4.644338e-001
1.446411e+003,4.527821e-001
1.450268e+003,4.485138e-001
1.454125e+003,4.446687e-001
1.457982e+003,4.348097e-001
1.461839e+003,4.289059e-001
1.465697e+003,4.299794e-001
1.469554e+003,4.291748e-001
1.473411e+003,4.253353e-001
1.477268e+003,4.233149e-001
1.481125e+003,4.369320e-001
1.484982e+003,4.592742e-001
1.488839e+003,4.752273e-001
1.492696e+003,4.779952e-001
1.496553e+003,4.769533e-001
1.500411e+003,4.805536e-001
1.504268e+003,4.949533e-001
1.508125e+003,4.887179e-001
1.511982e+003,4.774385e-001
1.515839e+003,4.822937e-001
1.519696e+003,4.828530e-001
1.523553e+003,4.664428e-001
1.527410e+003,4.549944e-001
1.531267e+003,4.526300e-001
1.535124e+003,4.450422e-001
1.538981e+003,4.320973e-001
1.542839e+003,4.209785e-001
1.546696e+003,4.099807e-001
1.550553e+003,4.049883e-001
1.554410e+003,3.955406e-001
1.558267e+003,3.876971e-001
1.562124e+003,3.878770e-001
1.565981e+003,3.854224e-001
1.569838e+003,3.736173e-001
1.573695e+003,3.639728e-001
1.577552e+003,3.666791e-001
1.581410e+003,3.765461e-001
1.585267e+003,3.738279e-001
1.589124e+003,3.706124e-001
1.592981e+003,3.758217e-001
1.596838e+003,3.859603e-001
1.600695e+003,3.997700e-001
1.604552e+003,4.091884e-001
1.608409e+003,4.214817e-001
1.612266e+003,4.431018e-001
1.616123e+003,4.612262e-001
1.619980e+003,4.848694e-001
1.623838e+003,5.043287e-001
1.627695e+003,5.197949e-001
1.631552e+003,5.351905e-001
1.635409e+003,5.423415e-001
1.639266e+003,5.429001e-001
1.643123e+003,5.384080e-001
1.646980e+003,5.285219e-001
1.650837e+003,5.217223e-001
1.654694e+003,5.038564e-001
1.658551e+003,4.805707e-001
1.662409e+003,4.672076e-001
1.666266e+003,4.586848e-001
1.670123e+003,4.406351e-001
1.673980e+003,4.177808e-001
1.677837e+003,4.065465e-001
1.681694e+003,3.953697e-001
1.685551e+003,3.822334e-001
1.689408e+003,3.648219e-001
1.693265e+003,3.521270e-001
1.697122e+003,3.400965e-001
1.700979e+003,3.323719e-001
1.704837e+003,3.279611e-001
1.708694e+003,3.216920e-001
1.712551e+003,3.168824e-001
1.716408e+003,3.138520e-001
1.720265e+003,3.079210e-001
1.724122e+003,3.045129e-001
1.727979e+003,3.004070e-001
1.731836e+003,2.940810e-001
1.735693e+003,2.976787e-001
1.739550e+003,3.006739e-001
1.743408e+003,2.995259e-001
1.747265e+003,3.005476e-001
1.751122e+003,2.985518e-001
1.754979e+003,3.030527e-001
1.758836e+003,3.077964e-001
1.762693e+003,3.130358e-001
1.766550e+003,3.217009e-001
1.770407e+003,3.251421e-001
1.774264e+003,3.292634e-001
1.778121e+003,3.222995e-001
1.781979e+003,3.135632e-001
1.785836e+003,3.103938e-001
1.789693e+003,3.104095e-001
1.793550e+003,3.045165e-001
1.797407e+003,3.016918e-001
1.801264e+003,2.960849e-001
1.805121e+003,2.841355e-001
1.808978e+003,2.776350e-001
1.812835e+003,2.767564e-001
1.816692e+003,2.757540e-001
1.820549e+003,2.769260e-001
1.824407e+003,2.713683e-001
1.828264e+003,2.711089e-001
1.832121e+003,2.730078e-001
1.835978e+003,2.709563e-001
1.839835e+003,2.679620e-001
1.843692e+003,2.711747e-001
1.847549e+003,2.757244e-001
1.851406e+003,2.740697e-001
1.855263e+003,2.749268e-001
1.859120e+003,2.793387e-001
1.862978e+003,2.821827e-001
1.866835e+003,2.832921e-001
1.870692e+003,2.813746e-001
1.874549e+003,2.821328e-001
1.878406e+003,2.835464e-001
1.882263e+003,2.843827e-001
1.886120e+003,2.822536e-001
1.889977e+003,2.798969e-001
1.893834e+003,2.761113e-001
1.897691e+003,2.718728e-001
1.901548e+003,2.681699e-001
1.905406e+003,2.622187e-001
1.909263e+003,2.577460e-001
1.913120e+003,2.575513e-001
1.916977e+003,2.573022e-001
1.920834e+003,2.520328e-001
1.924691e+003,2.521792e-001
1.928548e+003,2.526466e-001
1.932405e+003,2.521167e-001
1.936262e+003,2.528093e-001
1.940119e+003,2.564882e-001
1.943977e+003,2.532771e-001
1.947834e+003,2.498354e-001
1.951691e+003,2.517936e-001
1.955548e+003,2.572835e-001
1.959405e+003,2.590002e-001
1.963262e+003,2.604837e-001
1.967119e+003,2.617084e-001
1.970976e+003,2.636012e-001
1.974833e+003,2.665626e-001
1.978690e+003,2.644024e-001
1.982547e+003,2.606266e-001
1.986405e+003,2.602101e-001
1.990262e+003,2.567848e-001
1.994119e+003,2.511886e-001
1.997976e+003,2.501990e-001
2.001833e+003,2.489318e-001
2.005690e+003,2.464362e-001
2.009547e+003,2.422137e-001
2.013404e+003,2.359157e-001
2.017261e+003,2.325756e-001
2.021118e+003,2.320308e-001
2.024976e+003,2.323471e-001
2.028833e+003,2.297518e-001
2.032690e+003,2.244706e-001
2.036547e+003,2.264562e-001
2.040404e+003,2.255615e-001
2.044261e+003,2.248733e-001
2.048118e+003,2.277321e-001
2.051975e+003,2.289595e-001
2.055832e+003,2.336168e-001
2.059689e+003,2.378337e-001
2.063546e+003,2.412394e-001
2.067404e+003,2.471872e-001
2.071261e+003,2.448937e-001
2.075118e+003,2.394638e-001
2.078975e+003,2.404038e-001
2.082832e+003,2.436448e-001
2.086689e+003,2.443971e-001
2.090546e+003,2.392715e-001
2.094403e+003,2.351113e-001
2.098260e+003,2.289619e-001
2.102117e+003,2.247184e-001
2.105975e+003,2.277856e-001
2.109832e+003,2.267705e-001
2.113689e+003,2.204884e-001
2.117546e+003,2.174973e-001
2.121403e+003,2.141494e-001
2.125260e+003,2.135997e-001
2.129117e+003,2.157768e-001
2.132974e+003,2.152226e-001
2.136831e+003,2.180747e-001
2.140688e+003,2.170430e-001
2.144545e+003,2.189842e-001
2.148403e+003,2.234161e-001
2.152260e+003,2.268178e-001
2.156117e+003,2.319542e-001
2.159974e+003,2.351005e-001
2.163831e+003,2.377819e-001
2.167688e+003,2.423585e-001
2.171545e+003,2.432847e-001
2.175402e+003,2.415172e-001
2.179259e+003,2.429765e-001
2.183116e+003,2.437857e-001
2.186974e+003,2.428014e-001
2.190831e+003,2.410469e-001
2.194688e+003,2.395718e-001
2.198545e+003,2.347428e-001
2.202402e+003,2.338231e-001
2.206259e+003,2.346319e-001
2.210116e+003,2.333398e-001
2.213973e+003,2.292291e-001
2.217830e+003,2.246815e-001
2.221688e+003,2.218339e-001
2.225544e+003,2.220248e-001
2.229402e+003,2.253407e-001
2.233259e+003,2.255539e-001
2.237116e+003,2.241836e-001
2.240973e+003,2.239785e-001
2.244830e+003,2.256967e-001
2.248687e+003,2.315548e-001
2.252544e+003,2.356930e-001
2.256401e+003,2.372717e-001
2.260258e+003,2.399756e-001
2.264115e+003,2.398924e-001
2.267973e+003,2.369875e-001
2.271830e+003,2.395442e-001
2.275687e+003,2.448096e-001
2.279544e+003,2.482156e-001
2.283401e+003,2.484934e-001
2.287258e+003,2.465881e-001
2.291115e+003,2.456842e-001
2.294972e+003,2.473849e-001
2.298829e+003,2.504267e-001
2.302687e+003,2.479099e-001
2.306543e+003,2.418305e-001
2.310401e+003,2.394081e-001
2.314258e+003,2.372762e-001
2.318115e+003,2.338874e-001
2.321972e+003,2.337600e-001
2.325829e+003,2.322420e-001
2.329686e+003,2.294647e-001
2.333543e+003,2.319210e-001
2.337400e+003,2.342928e-001
2.341257e+003,2.328200e-001
2.345115e+003,2.314535e-001
2.348972e+003,2.339534e-001
2.352829e+003,2.406453e-001
2.356686e+003,2.425709e-001
2.360543e+003,2.472284e-001
2.364400e+003,2.528595e-001
2.368257e+003,2.475591e-001
2.372114e+003,2.418426e-001
2.375971e+003,2.416709e-001
2.379828e+003,2.441339e-001
2.383686e+003,2.490810e-001
2.387542e+003,2.514329e-001
2.391400e+003,2.514656e-001
2.395257e+003,2.502873e-001
2.399114e+003,2.479126e-001
2.402971e+003,2.461573e-001
2.406828e+003,2.425500e-001
2.410685e+003,2.386288e-001
2.414542e+003,2.360960e-001
2.418399e+003,2.347409e-001
2.422256e+003,2.338210e-001
2.426114e+003,2.328253e-001
2.429971e+003,2.291348e-001
2.433828e+003,2.275959e-001
2.437685e+003,2.272736e-001
2.441542e+003,2.270038e-001
2.445399e+003,2.267594e-001
2.449256e+003,2.288730e-001
2.453113e+003,2.310207e-001
2.456970e+003,2.332989e-001
2.460827e+003,2.318278e-001
2.464684e+003,2.329756e-001
2.468542e+003,2.351006e-001
2.472399e+003,2.325019e-001
2.476256e+003,2.293561e-001
2.480113e+003,2.304405e-001
2.483970e+003,2.342585e-001
2.487827e+003,2.342043e-001
2.491684e+003,2.338222e-001
2.495541e+003,2.343464e-001
2.499398e+003,2.349433e-001
2.503255e+003,2.345666e-001
2.507113e+003,2.375318e-001
2.510969e+003,2.391740e-001
2.514827e+003,2.358608e-001
2.518684e+003,2.319877e-001
2.522541e+003,2.269394e-001
2.526398e+003,2.252871e-001
2.530255e+003,2.264385e-001
2.534112e+003,2.255055e-001
2.537969e+003,2.238159e-001
2.541826e+003,2.201549e-001
2.545683e+003,2.203764e-001
2.549541e+003,2.255061e-001
2.553398e+003,2.251785e-001
2.557255e+003,2.209133e-001
2.561112e+003,2.210772e-001
2.564969e+003,2.289987e-001
2.568826e+003,2.326287e-001
2.572683e+003,2.328562e-001
2.576540e+003,2.357290e-001
2.580397e+003,2.362116e-001
2.584254e+003,2.386891e-001
2.588112e+003,2.460086e-001
2.591969e+003,2.485288e-001
2.595826e+003,2.486241e-001
2.599683e+003,2.512947e-001
2.603540e+003,2.553984e-001
2.607397e+003,2.542624e-001
2.611254e+003,2.538691e-001
2.615111e+003,2.541374e-001
2.618968e+003,2.542806e-001
2.622825e+003,2.528210e-001
2.626682e+003,2.505644e-001
2.630540e+003,2.533351e-001
2.634397e+003,2.563674e-001
2.638254e+003,2.572694e-001
2.642111e+003,2.574382e-001
2.645968e+003,2.547010e-001
2.649825e+003,2.538791e-001
2.653682e+003,2.561578e-001
2.657539e+003,2.582048e-001
2.661396e+003,2.609939e-001
2.665253e+003,2.633085e-001
2.669111e+003,2.660839e-001
2.672968e+003,2.696508e-001
2.676825e+003,2.742070e-001
2.680682e+003,2.747670e-001
2.684539e+003,2.774256e-001
2.688396e+003,2.855740e-001
2.692253e+003,2.881193e-001
2.696110e+003,2.878823e-001
2.699967e+003,2.911612e-001
2.703824e+003,2.939706e-001
2.707681e+003,2.943124e-001
2.711539e+003,2.961026e-001
2.715396e+003,3.024846e-001
2.719253e+003,3.035452e-001
2.723110e+003,3.025523e-001
2.726967e+003,3.042880e-001
2.730824e+003,3.049162e-001
2.734681e+003,3.064134e-001
2.738538e+003,3.071831e-001
2.742395e+003,3.097392e-001
2.746252e+003,3.090564e-001
2.750110e+003,3.089569e-001
2.753967e+003,3.167119e-001
2.757824e+003,3.197322e-001
2.761681e+003,3.187123e-001
2.765538e+003,3.179975e-001
2.769395e+003,3.211872e-001
2.773252e+003,3.260466e-001
2.777109e+003,3.275070e-001
2.780966e+003,3.316065e-001
2.784823e+003,3.354110e-001
2.788680e+003,3.406701e-001
2.792538e+003,3.445584e-001
2.796395e+003,3.456405e-001
2.800252e+003,3.499725e-001
2.804109e+003,3.540610e-001
2.807966e+003,3.554736e-001
2.811823e+003,3.560848e-001
2.815680e+003,3.592006e-001
2.819537e+003,3.640839e-001
2.823394e+003,3.653331e-001
2.827251e+003,3.654085e-001
2.831109e+003,3.679104e-001
2.834966e+003,3.698947e-001
2.838823e+003,3.703532e-001
2.842680e+003,3.725497e-001
2.846537e+003,3.769759e-001
2.850394e+003,3.805653e-001
2.854251e+003,3.813731e-001
2.858108e+003,3.832135e-001
2.861965e+003,3.866329e-001
2.865823e+003,3.939724e-001
2.869679e+003,3.996574e-001
2.873537e+003,3.971261e-001
2.877394e+003,3.980247e-001
2.881251e+003,4.059646e-001
2.885108e+003,4.154953e-001
2.888965e+003,4.206289e-001
2.892822e+003,4.197866e-001
2.896679e+003,4.252918e-001
2.900536e+003,4.295663e-001
2.904393e+003,4.307151e-001
2.908250e+003,4.382202e-001
2.912108e+003,4.462807e-001
2.915965e+003,4.500936e-001
2.919822e+003,4.519323e-001
2.923679e+003,4.564583e-001
2.927536e+003,4.663667e-001
2.931393e+003,4.674644e-001
2.935250e+003,4.634143e-001
2.939107e+003,4.610314e-001
2.942964e+003,4.731946e-001
2.946822e+003,4.831501e-001
2.950678e+003,4.799806e-001
2.954536e+003,4.765766e-001
2.958393e+003,4.812278e-001
2.962250e+003,4.867537e-001
2.966107e+003,4.901634e-001
2.969964e+003,4.960464e-001
2.973821e+003,5.044360e-001
2.977678e+003,5.058429e-001
2.981535e+003,4.984847e-001
2.985392e+003,4.995973e-001
2.989250e+003,5.057131e-001
2.993107e+003,5.074005e-001
2.996964e+003,5.133034e-001
3.000821e+003,5.296703e-001
3.004678e+003,5.412956e-001
3.008535e+003,5.422534e-001
3.012392e+003,5.433660e-001
3.016249e+003,5.508182e-001
3.020106e+003,5.546699e-001
3.023963e+003,5.561981e-001
3.027821e+003,5.578290e-001
3.031677e+003,5.611080e-001
3.035535e+003,5.687008e-001
3.039392e+003,5.733241e-001
3.043249e+003,5.783457e-001
3.047106e+003,5.793597e-001
3.050963e+003,5.738199e-001
3.054820e+003,5.748197e-001
3.058677e+003,5.878524e-001
3.062534e+003,5.915601e-001
3.066391e+003,5.926707e-001
3.070249e+003,5.993994e-001
3.074106e+003,6.142620e-001
3.077963e+003,6.181893e-001
3.081820e+003,6.155424e-001
3.085677e+003,6.217968e-001
3.089534e+003,6.280546e-001
3.093391e+003,6.356947e-001
3.097248e+003,6.364427e-001
3.101105e+003,6.328604e-001
3.104962e+003,6.476687e-001
3.108820e+003,6.542940e-001
3.112677e+003,6.576815e-001
3.116534e+003,6.634592e-001
3.120391e+003,6.658931e-001
3.124248e+003,6.760700e-001
3.128105e+003,6.870060e-001
3.131962e+003,6.819828e-001
3.135819e+003,6.896384e-001
3.139676e+003,7.069214e-001
3.143533e+003,7.059004e-001
3.147390e+003,7.085602e-001
3.151248e+003,7.139616e-001
3.155105e+003,7.250342e-001
3.158962e+003,7.355825e-001
3.162819e+003,7.359027e-001
3.166676e+003,7.348172e-001
3.170533e+003,7.303711e-001
3.174390e+003,7.264594e-001
3.178247e+003,7.313534e-001
3.182104e+003,7.414748e-001
3.185961e+003,7.596025e-001
3.189819e+003,7.687255e-001
3.193676e+003,7.771218e-001
3.197533e+003,7.930537e-001
3.201390e+003,8.095477e-001
3.205247e+003,8.030338e-001
3.209104e+003,8.027942e-001
3.212961e+003,7.981554e-001
3.216818e+003,7.888175e-001
3.220675e+003,8.103329e-001
3.224532e+003,8.310149e-001
3.228389e+003,8.331078e-001
3.232247e+003,8.309708e-001
3.236104e+003,8.337411e-001
3.239961e+003,8.379468e-001
3.243818e+003,8.256253e-001
3.247675e+003,8.386826e-001
3.251532e+003,8.662416e-001
3.255389e+003,8.717187e-001
3.259246e+003,8.667045e-001
3.263103e+003,8.708659e-001
3.266960e+003,8.698293e-001
3.270818e+003,8.570475e-001
3.274675e+003,8.689887e-001
3.278532e+003,8.883216e-001
3.282389e+003,9.067189e-001
3.286246e+003,9.029080e-001
3.290103e+003,8.828855e-001
3.293960e+003,8.740837e-001
3.297817e+003,8.731049e-001
3.301674e+003,8.826189e-001
3.305531e+003,8.965402e-001
3.309388e+003,9.116750e-001
3.313246e+003,9.037185e-001
3.317103e+003,8.945037e-001
3.320960e+003,9.092886e-001
3.324817e+003,9.190785e-001
3.328674e+003,9.320682e-001
3.332531e+003,9.377030e-001
3.336388e+003,9.459718e-001
3.340245e+003,9.624773e-001
3.344102e+003,9.592094e-001
3.347959e+003,9.558861e-001
3.351817e+003,9.576135e-001
3.355674e+003,9.526387e-001
3.359531e+003,9.591215e-001
3.363388e+003,9.795058e-001
3.367245e+003,9.861326e-001
3.371102e+003,9.878217e-001
3.374959e+003,9.980722e-001
3.378816e+003,9.968618e-001
3.382673e+003,9.911774e-001
3.386530e+003,1.013648e+000
3.390387e+003,1.024512e+000
3.394245e+003,1.019966e+000
3.398102e+003,1.043677e+000
3.401959e+003,1.057135e+000
3.405816e+003,1.051956e+000
3.409673e+003,1.050665e+000
3.413530e+003,1.041814e+000
3.417387e+003,1.041912e+000
3.421244e+003,1.048653e+000
3.425101e+003,1.032771e+000
3.428958e+003,1.038468e+000
3.432815e+003,1.058241e+000
3.436673e+003,1.066544e+000
3.440530e+003,1.067700e+000
3.444387e+003,1.076182e+000
3.448244e+003,1.074301e+000
3.452101e+003,1.068561e+000
3.455958e+003,1.076053e+000
3.459815e+003,1.082786e+000
3.463672e+003,1.052634e+000
3.467529e+003,1.032858e+000
3.471386e+003,1.068170e+000
3.475244e+003,1.086275e+000
3.479101e+003,1.064207e+000
3.482958e+003,1.063359e+000
3.486815e+003,1.065112e+000
3.490672e+003,1.070085e+000
3.494529e+003,1.098375e+000
3.498386e+003,1.090944e+000
3.502243e+003,1.080082e+000
3.506100e+003,1.076048e+000
3.509958e+003,1.083487e+000
3.513814e+003,1.074951e+000
3.517672e+003,1.081624e+000
3.521529e+003,1.100321e+000
3.525386e+003,1.091874e+000
3.529243e+003,1.061952e+000
3.533100e+003,1.064073e+000
3.536957e+003,1.093523e+000
3.540814e+003,1.106332e+000
3.544671e+003,1.100007e+000
3.548528e+003,1.079123e+000
3.552385e+003,1.065505e+000
3.556243e+003,1.048407e+000
3.560100e+003,1.042014e+000
3.563957e+003,1.052618e+000
3.567814e+003,1.042871e+000
3.571671e+003,1.037779e+000
3.575528e+003,1.048058e+000
3.579385e+003,1.014381e+000
3.583242e+003,1.002959e+000
3.587099e+003,1.009454e+000
3.590957e+003,9.628981e-001
3.594813e+003,9.379332e-001
3.598671e+003,9.126470e-001
3.602528e+003,8.879530e-001
3.606385e+003,8.530704e-001
3.610242e+003,8.003398e-001
3.614099e+003,7.745703e-001
3.617956e+003,7.592814e-001
3.621813e+003,7.228180e-001
3.625670e+003,6.833519e-001
3.629527e+003,6.423340e-001
3.633385e+003,5.925066e-001
3.637242e+003,5.471092e-001
3.641099e+003,5.135528e-001
3.644956e+003,4.758113e-001
3.648813e+003,4.358276e-001
3.652670e+003,3.984579e-001
3.656527e+003,3.627640e-001
3.660384e+003,3.292907e-001
3.664241e+003,3.015316e-001
3.668098e+003,2.788841e-001
3.671956e+003,2.565174e-001
3.675813e+003,2.285993e-001
3.679670e+003,2.082315e-001
3.683527e+003,1.989527e-001
3.687384e+003,1.833401e-001
3.691241e+003,1.707086e-001
3.695098e+003,1.622528e-001
3.698955e+003,1.523340e-001
3.702812e+003,1.459207e-001
3.706669e+003,1.416769e-001
3.710526e+003,1.416823e-001
3.714384e+003,1.357296e-001
3.718241e+003,1.251090e-001
3.722098e+003,1.206694e-001
3.725955e+003,1.196001e-001
3.729812e+003,1.144639e-001
3.733669e+003,1.138409e-001
3.737526e+003,1.157508e-001
3.741383e+003,1.171896e-001
3.745240e+003,1.152681e-001
3.749097e+003,1.098732e-001
3.752955e+003,1.063827e-001
3.756812e+003,1.054308e-001
3.760669e+003,1.028219e-001
3.764526e+003,9.979448e-002
3.768383e+003,9.968168e-002
3.772240e+003,1.031209e-001
3.776097e+003,1.016795e-001
3.779954e+003,9.687444e-002
3.783811e+003,9.425924e-002
3.787668e+003,9.366928e-002
3.791525e+003,9.599296e-002
3.795383e+003,9.972853e-002
3.799240e+003,1.017244e-001
3.803097e+003,9.689187e-002
3.806954e+003,9.191228e-002
3.810811e+003,9.142332e-002
3.814668e+003,9.055626e-002
3.818525e+003,9.253774e-002
3.822382e+003,9.566373e-002
3.826239e+003,9.534761e-002
3.830096e+003,9.422170e-002
3.833954e+003,9.559361e-002
3.837811e+003,9.459347e-002
3.841668e+003,9.204320e-002
3.845525e+003,9.267671e-002
3.849382e+003,9.268758e-002
3.853239e+003,9.422137e-002
3.857096e+003,9.602359e-002
3.860953e+003,9.505025e-002
3.864810e+003,9.287302e-002
3.868667e+003,9.121463e-002
3.872524e+003,9.206277e-002
3.876382e+003,9.270026e-002
3.880239e+003,9.170295e-002
3.884096e+003,9.284996e-002
3.887953e+003,8.948041e-002
3.891810e+003,8.671099e-002
3.895667e+003,8.796013e-002
3.899524e+003,8.675452e-002
3.903381e+003,8.454806e-002
3.907238e+003,8.806337e-002
3.911095e+003,8.985499e-002
3.914953e+003,8.953127e-002
3.918810e+003,9.330615e-002
3.922667e+003,9.422783e-002
3.926524e+003,8.876149e-002
3.930381e+003,8.266181e-002
3.934238e+003,8.649530e-002
3.938095e+003,9.254708e-002
3.941952e+003,8.862429e-002
3.945809e+003,8.367230e-002
3.949667e+003,8.374671e-002
3.953523e+003,8.410572e-002
3.957381e+003,8.462064e-002
3.961238e+003,8.926757e-002
3.965095e+003,9.480127e-002
3.968952e+003,9.177936e-002
3.972809e+003,8.697335e-002
3.976666e+003,9.011526e-002
3.980523e+003,9.469515e-002
3.984380e+003,9.228630e-002
3.988237e+003,8.913789e-002
3.992094e+003,9.366653e-002
3.995952e+003,9.534060e-002
3.999809e+003,8.765817e-002
4.003666e+003,8.478482e-002
4.007523e+003,8.766486e-002
4.011380e+003,8.632000e-002
4.015237e+003,8.177049e-002
4.019094e+003,8.335958e-002
4.022951e+003,8.872211e-002
4.026808e+003,8.993528e-002
4.030666e+003,8.934795e-002
4.034522e+003,9.089610e-002
4.038380e+003,8.716369e-002
4.042237e+003,8.163651e-002
4.046094e+003,8.541542e-002
4.049951e+003,8.944748e-002
4.053808e+003,8.914933e-002
4.057665e+003,8.990300e-002
4.061522e+003,9.321526e-002
4.065379e+003,8.891777e-002
4.069236e+003,8.319172e-002
4.073094e+003,8.616821e-002
4.076951e+003,8.866513e-002
4.080808e+003,8.352043e-002
4.084665e+003,8.504521e-002
4.088522e+003,9.378675e-002
4.092379e+003,9.585044e-002
4.096236e+003,8.980381e-002
4.100093e+003,8.351288e-002
4.103950e+003,8.100559e-002
4.107808e+003,8.320464e-002
4.111665e+003,8.493025e-002
4.115521e+003,8.540671e-002
4.119379e+003,8.571130e-002
4.123236e+003,8.241318e-002
4.127093e+003,7.903843e-002
4.130950e+003,7.690866e-002
4.134807e+003,8.145545e-002
4.138664e+003,8.530571e-002
4.142521e+003,8.733989e-002
4.146378e+003,8.362630e-002
4.150235e+003,8.127583e-002
4.154093e+003,8.258935e-002
4.157950e+003,8.131586e-002
4.161807e+003,8.041601e-002
4.165664e+003,8.367354e-002
4.169521e+003,8.439229e-002
4.173378e+003,8.443657e-002
4.177235e+003,8.703331e-002
4.181092e+003,8.696849e-002
4.184949e+003,8.188786e-002
4.188807e+003,7.916322e-002
4.192664e+003,8.152860e-002
4.196521e+003,8.337523e-002
4.200378e+003,7.831027e-002
4.204235e+003,7.778822e-002
4.208092e+003,8.363233e-002
4.211949e+003,8.326641e-002
4.215806e+003,8.137216e-002
4.219663e+003,7.570821e-002
4.223521e+003,7.686012e-002
4.227377e+003,8.315405e-002
4.231234e+003,8.211229e-002
4.235092e+003,8.410535e-002
4.238949e+003,8.408159e-002
4.242806e+003,8.236227e-002
4.246663e+003,8.601425e-002
4.250520e+003,8.725211e-002
4.254377e+003,8.629663e-002
4.258234e+003,8.239844e-002
4.262091e+003,8.222972e-002
4.265948e+003,8.581197e-002
4.269806e+003,8.272178e-002
4.273663e+003,7.964294e-002
4.277520e+003,7.908332e-002
4.281377e+003,8.090917e-002
4.285234e+003,8.445202e-002
4.289091e+003,8.218031e-002
4.292948e+003,7.862073e-002
4.296805e+003,7.913928e-002
4.300662e+003,8.661997e-002
4.304520e+003,8.476964e-002
4.308376e+003,8.603372e-002
4.312233e+003,8.515126e-002
4.316091e+003,8.271757e-002
4.319948e+003,7.953446e-002
4.323805e+003,7.417610e-002
4.327662e+003,7.981043e-002
4.331519e+003,8.681636e-002
4.335376e+003,9.074377e-002
4.339233e+003,8.926798e-002
4.343090e+003,8.237513e-002
4.346947e+003,7.750838e-002
4.350805e+003,7.962794e-002
4.354662e+003,8.775902e-002
4.358519e+003,9.035455e-002
4.362376e+003,8.581678e-002
4.366233e+003,8.609007e-002
4.370090e+003,8.811665e-002
4.373947e+003,9.248616e-002
4.377804e+003,9.167209e-002
4.381661e+003,8.412494e-002
4.385519e+003,8.239552e-002
4.389375e+003,8.170801e-002
4.393232e+003,8.521257e-002
4.397090e+003,8.843140e-002
4.400947e+003,8.864360e-002
4.404804e+003,9.060030e-002
4.408661e+003,9.331531e-002
4.412518e+003,9.065366e-002
4.416375e+003,8.663737e-002
4.420232e+003,8.789839e-002
4.424089e+003,9.193345e-002
4.427946e+003,9.818701e-002
4.431804e+003,9.878904e-002
4.435661e+003,9.923565e-002
4.439518e+003,1.006934e-001
4.443375e+003,9.685294e-002
4.447232e+003,9.393185e-002
4.451089e+003,9.730859e-002
4.454946e+003,9.537155e-002
4.458803e+003,9.433343e-002
4.462660e+003,9.184125e-002
4.466518e+003,9.607621e-002
4.470375e+003,1.060434e-001
4.474231e+003,1.009278e-001
4.478089e+003,9.025595e-002
4.481946e+003,8.947194e-002
4.485803e+003,9.117216e-002
4.489660e+003,9.138549e-002
4.493517e+003,9.003527e-002
4.497375e+003,9.535422e-002
4.501231e+003,9.958170e-002
4.505088e+003,9.638210e-002
4.508946e+003,9.520064e-002
4.512803e+003,9.406885e-002
4.516660e+003,9.901847e-002
4.520517e+003,9.714574e-002
4.524374e+003,9.326512e-002
4.528231e+003,9.901976e-002
4.532088e+003,9.202002e-002
4.535945e+003,8.815797e-002
4.539802e+003,9.041440e-002
4.543660e+003,9.748859e-002
4.547517e+003,1.039788e-001
4.551374e+003,9.650142e-002
4.555231e+003,8.951401e-002
4.559088e+003,9.192210e-002
4.562945e+003,9.341657e-002
4.566802e+003,9.452974e-002
4.570659e+003,9.373761e-002
4.574516e+003,9.449151e-002
4.578374e+003,9.718867e-002
4.582230e+003,1.036457e-001
4.586087e+003,1.030589e-001
4.589945e+003,1.002357e-001
4.593802e+003,9.844285e-002
4.597659e+003,9.815021e-002
4.601516e+003,1.027614e-001
4.605373e+003,1.060710e-001
4.609230e+003,9.850411e-002
4.613087e+003,9.161693e-002
4.616944e+003,9.655058e-002
4.620801e+003,1.068886e-001
4.624659e+003,1.083641e-001
4.628516e+003,1.036677e-001
4.632373e+003,1.004345e-001
4.636230e+003,9.563404e-002
4.640087e+003,9.343165e-002
4.643944e+003,9.348942e-002
4.647801e+003,9.125809e-002
4.651658e+003,8.964433e-002
4.655515e+003,9.198545e-002
4.659373e+003,9.011167e-002
4.663229e+003,9.310645e-002
4.667086e+003,1.007191e-001
4.670944e+003,9.749871e-002
4.674801e+003,8.946112e-002
4.678658e+003,9.727357e-002
4.682515e+003,1.044021e-001
4.686372e+003,1.050857e-001
4.690229e+003,1.041009e-001
4.694086e+003,9.932469e-002
4.697943e+003,9.754980e-002
4.701800e+003,9.101965e-002
4.705658e+003,9.065896e-002
4.709515e+003,9.927209e-002
4.713372e+003,9.926938e-002
4.717229e+003,9.557594e-002
4.721086e+003,9.886584e-002
4.724943e+003,1.010702e-001
4.728800e+003,9.722067e-002
4.732657e+003,9.338789e-002
4.736514e+003,9.177882e-002
4.740372e+003,9.947190e-002
4.744229e+003,1.114437e-001
4.748085e+003,1.100610e-001
4.751943e+003,1.028607e-001
4.755800e+003,1.061203e-001
4.759657e+003,1.149682e-001
4.763514e+003,1.154868e-001
4.767371e+003,1.078087e-001
4.771228e+003,1.096357e-001
4.775085e+003,1.204734e-001
4.778942e+003,1.235351e-001
4.782799e+003,1.197514e-001
4.786657e+003,1.188518e-001
4.790514e+003,1.208846e-001
4.794371e+003,1.140770e-001
4.798228e+003,1.008177e-001
4.802085e+003,1.044121e-001
4.805942e+003,1.107184e-001
4.809799e+003,1.102613e-001
4.813656e+003,1.080299e-001
4.817513e+003,1.072777e-001
4.821371e+003,1.039621e-001
4.825228e+003,1.022071e-001
4.829084e+003,1.019330e-001
4.832942e+003,1.011584e-001
4.836799e+003,1.073684e-001
4.840656e+003,1.173221e-001
4.844513e+003,1.091243e-001
4.848370e+003,1.006746e-001
4.852227e+003,1.012219e-001
4.856084e+003,9.854756e-002
4.859941e+003,1.011374e-001
4.863798e+003,1.027539e-001
4.867656e+003,1.039648e-001
4.871513e+003,1.094879e-001
4.875370e+003,1.116129e-001
4.879227e+003,1.098657e-001
4.883084e+003,1.171778e-001
4.886941e+003,1.230531e-001
4.890798e+003,1.182593e-001
4.894655e+003,1.113745e-001
4.898512e+003,1.153003e-001
4.902370e+003,1.205973e-001
4.906227e+003,1.183426e-001
4.910083e+003,1.189886e-001
4.913941e+003,1.181953e-001
4.917798e+003,1.186019e-001
4.921655e+003,1.154058e-001
4.925512e+003,1.117821e-001
4.929369e+003,1.129082e-001
4.933226e+003,1.119346e-001
4.937083e+003,1.130441e-001
4.940940e+003,1.176800e-001
4.944797e+003,1.158508e-001
4.948655e+003,1.115075e-001
4.952512e+003,1.188798e-001
4.956369e+003,1.244381e-001
4.960226e+003,1.253970e-001
4.964083e+003,1.223115e-001
4.967940e+003,1.246274e-001
4.971797e+003,1.241350e-001
4.975654e+003,1.144471e-001
4.979511e+003,1.157437e-001
4.983369e+003,1.269173e-001
4.987226e+003,1.370995e-001
4.991083e+003,1.320673e-001
4.994940e+003,1.262192e-001
4.998797e+003,1.286008e-001
5.002654e+003,1.319458e-001
5.006511e+003,1.310619e-001
5.010368e+003,1.283507e-001
5.014225e+003,1.354440e-001
5.018083e+003,1.402270e-001
5.021939e+003,1.270151e-001
5.025796e+003,1.136331e-001
5.029654e+003,1.171013e-001
5.033511e+003,1.137525e-001
5.037368e+003,1.074810e-001
5.041225e+003,1.224854e-001
5.045082e+003,1.359523e-001
5.048939e+003,1.289768e-001
5.052796e+003,1.170983e-001
5.056653e+003,1.082558e-001
5.060510e+003,1.152310e-001
5.064368e+003,1.211910e-001
5.068225e+003,1.224601e-001
5.072082e+003,1.213613e-001
5.075939e+003,1.168391e-001
5.079796e+003,1.274769e-001
5.083653e+003,1.370066e-001
5.087510e+003,1.297020e-001
5.091367e+003,1.250475e-001
5.095224e+003,1.318467e-001
5.099082e+003,1.382703e-001
5.102938e+003,1.489282e-001
5.106795e+003,1.435788e-001
5.110653e+003,1.409198e-001
5.114510e+003,1.348101e-001
5.118367e+003,1.283014e-001
5.122224e+003,1.329890e-001
5.126081e+003,1.364643e-001
5.129938e+003,1.293760e-001
5.133795e+003,1.323556e-001
5.137652e+003,1.285891e-001
5.141509e+003,1.272793e-001
5.145367e+003,1.348723e-001
5.149224e+003,1.347996e-001
5.153081e+003,1.265028e-001
5.156938e+003,1.211799e-001
5.160795e+003,1.253565e-001
5.164652e+003,1.249547e-001
5.168509e+003,1.265111e-001
5.172366e+003,1.348410e-001
5.176223e+003,1.370396e-001
5.180081e+003,1.410262e-001
5.183938e+003,1.372010e-001
5.187794e+003,1.287047e-001
5.191652e+003,1.239560e-001
5.195509e+003,1.227722e-001
5.199366e+003,1.206800e-001
5.203223e+003,1.188811e-001
5.207080e+003,1.256156e-001
5.210937e+003,1.305618e-001
5.214794e+003,1.359344e-001
5.218651e+003,1.453421e-001
5.222508e+003,1.445668e-001
5.226366e+003,1.363389e-001
5.230223e+003,1.445574e-001
5.234080e+003,1.497255e-001
5.237937e+003,1.508682e-001
5.241794e+003,1.475639e-001
5.245651e+003,1.424833e-001
5.249508e+003,1.465803e-001
5.253365e+003,1.390150e-001
5.257222e+003,1.315512e-001
5.261080e+003,1.304737e-001
5.264937e+003,1.235482e-001
5.268793e+003,1.230406e-001
5.272651e+003,1.271793e-001
5.276508e+003,1.254373e-001
5.280365e+003,1.275002e-001
5.284222e+003,1.376085e-001
5.288079e+003,1.376356e-001
5.291936e+003,1.278944e-001
5.295793e+003,1.197703e-001
5.299650e+003,1.294596e-001
5.303507e+003,1.351126e-001
5.307365e+003,1.341255e-001
5.311222e+003,1.316229e-001
5.315079e+003,1.322273e-001
5.318936e+003,1.359672e-001
5.322793e+003,1.454112e-001
5.326650e+003,1.432029e-001
5.330507e+003,1.343868e-001
5.334364e+003,1.352241e-001
5.338221e+003,1.415980e-001
5.342079e+003,1.433788e-001
5.345936e+003,1.388107e-001
5.349792e+003,1.385123e-001
5.353650e+003,1.351787e-001
5.357507e+003,1.285296e-001
5.361364e+003,1.252015e-001
5.365221e+003,1.257831e-001
5.369078e+003,1.255262e-001
5.372935e+003,1.320413e-001
5.376792e+003,1.248495e-001
5.380649e+003,1.306820e-001
5.384506e+003,1.377985e-001
5.388364e+003,1.298040e-001
5.392221e+003,1.201764e-001
5.396078e+003,1.249775e-001
5.399935e+003,1.316396e-001
5.403792e+003,1.355235e-001
5.407649e+003,1.341142e-001
5.411506e+003,1.270609e-001
5.415363e+003,1.304457e-001
5.419220e+003,1.341449e-001
5.423078e+003,1.339413e-001
5.426935e+003,1.321827e-001
5.430792e+003,1.286434e-001
5.434649e+003,1.323619e-001
5.438506e+003,1.375748e-001
5.442363e+003,1.551856e-001
5.446220e+003,1.581939e-001
5.450077e+003,1.415592e-001
5.453934e+003,1.362282e-001
5.457792e+003,1.375227e-001
5.461648e+003,1.461213e-001
5.465505e+003,1.447567e-001
5.469363e+003,1.364373e-001
5.473220e+003,1.328100e-001
5.477077e+003,1.353258e-001
5.480934e+003,1.337380e-001
5.484791e+003,1.333723e-001
5.488648e+003,1.400184e-001
5.492505e+003,1.361164e-001
5.496362e+003,1.330171e-001
5.500219e+003,1.391066e-001
5.504077e+003,1.423475e-001
5.507934e+003,1.350511e-001
5.511791e+003,1.402716e-001
5.515648e+003,1.464211e-001
5.519505e+003,1.415897e-001
5.523362e+003,1.465717e-001
5.527219e+003,1.513936e-001
5.531076e+003,1.487186e-001
5.534933e+003,1.465576e-001
5.538791e+003,1.518266e-001
5.542647e+003,1.549751e-001
5.546504e+003,1.486158e-001
5.550362e+003,1.473071e-001
5.554219e+003,1.372606e-001
5.558076e+003,1.401511e-001
5.561933e+003,1.506397e-001
5.565790e+003,1.465121e-001
5.569647e+003,1.416069e-001
5.573504e+003,1.389610e-001
5.577361e+003,1.398795e-001
5.581218e+003,1.410427e-001
5.585076e+003,1.314877e-001
5.588933e+003,1.267171e-001
5.592790e+003,1.392152e-001
5.596647e+003,1.434959e-001
5.600504e+003,1.354844e-001
5.604361e+003,1.342742e-001
5.608218e+003,1.377776e-001
5.612075e+003,1.314884e-001
5.615932e+003,1.269913e-001
5.619790e+003,1.328443e-001
5.623646e+003,1.452952e-001
5.627503e+003,1.453067e-001
5.631361e+003,1.356974e-001
5.635218e+003,1.320877e-001
5.639075e+003,1.376785e-001
5.642932e+003,1.491740e-001
5.646789e+003,1.562390e-001
5.650646e+003,1.502486e-001
5.654503e+003,1.461433e-001
5.658360e+003,1.480642e-001
5.662217e+003,1.379236e-001
5.666075e+003,1.371040e-001
5.669932e+003,1.519772e-001
5.673789e+003,1.513842e-001
5.677646e+003,1.419065e-001
5.681503e+003,1.407122e-001
5.685360e+003,1.418507e-001
5.689217e+003,1.410689e-001
5.693074e+003,1.481941e-001
5.696931e+003,1.457709e-001
5.700789e+003,1.440986e-001
5.704646e+003,1.405211e-001
5.708502e+003,1.261431e-001
5.712360e+003,1.276460e-001
5.716217e+003,1.274240e-001
5.720074e+003,1.304325e-001
5.723931e+003,1.377854e-001
5.727788e+003,1.335569e-001
5.731645e+003,1.374720e-001
5.735502e+003,1.378106e-001
5.739359e+003,1.401333e-001
5.743216e+003,1.406282e-001
5.747074e+003,1.360576e-001
5.750931e+003,1.403663e-001
5.754788e+003,1.501181e-001
5.758645e+003,1.505900e-001
5.762502e+003,1.468908e-001
5.766359e+003,1.455029e-001
5.770216e+003,1.507705e-001
5.774073e+003,1.557076e-001
5.777930e+003,1.542299e-001
5.781788e+003,1.369567e-001
5.785645e+003,1.306035e-001
5.789501e+003,1.413098e-001
5.793359e+003,1.409349e-001
5.797216e+003,1.334754e-001
5.801073e+003,1.422613e-001
5.804930e+003,1.436276e-001
5.808787e+003,1.298849e-001
5.812644e+003,1.287201e-001
5.816501e+003,1.388086e-001
5.820358e+003,1.449437e-001
5.824215e+003,1.453449e-001
5.828073e+003,1.385779e-001
5.831930e+003,1.432668e-001
5.835787e+003,1.457382e-001
5.839644e+003,1.404507e-001
5.843501e+003,1.365456e-001
5.847358e+003,1.503024e-001
5.851215e+003,1.542443e-001
5.855072e+003,1.528331e-001
5.858929e+003,1.565811e-001
5.862787e+003,1.641760e-001
5.866644e+003,1.594973e-001
5.870500e+003,1.482801e-001
5.874358e+003,1.470416e-001
5.878215e+003,1.478953e-001
5.882072e+003,1.423808e-001
5.885929e+003,1.462117e-001
5.889786e+003,1.621864e-001
5.893643e+003,1.703912e-001
5.897500e+003,1.606074e-001
5.901357e+003,1.495507e-001
5.905214e+003,1.394427e-001
5.909072e+003,1.338503e-001
5.912929e+003,1.406358e-001
5.916786e+003,1.406628e-001
5.920643e+003,1.569304e-001
5.924500e+003,1.567093e-001
5.928357e+003,1.478499e-001
5.932214e+003,1.501183e-001
5.936071e+003,1.535326e-001
5.939928e+003,1.487516e-001
5.943786e+003,1.388027e-001
5.947643e+003,1.421334e-001
5.951500e+003,1.457369e-001
5.955357e+003,1.393975e-001
5.959214e+003,1.413225e-001
5.963071e+003,1.538846e-001
5.966928e+003,1.577891e-001
5.970785e+003,1.459128e-001
5.974642e+003,1.380577e-001
5.978500e+003,1.420199e-001
5.982356e+003,1.365502e-001
5.986213e+003,1.307186e-001
5.990071e+003,1.505954e-001
5.993928e+003,1.512867e-001
5.997785e+003,1.437831e-001
6.001642e+003,1.487779e-001
6.005499e+003,1.355688e-001
6.009356e+003,1.306310e-001
6.013213e+003,1.452164e-001
6.017070e+003,1.464500e-001
6.020927e+003,1.491291e-001
6.024785e+003,1.471221e-001
6.028642e+003,1.431410e-001
6.032499e+003,1.495396e-001
6.036356e+003,1.497438e-001
6.040213e+003,1.510164e-001
6.044070e+003,1.535162e-001
6.047927e+003,1.494891e-001
6.051784e+003,1.494517e-001
6.055641e+003,1.311404e-001
6.059499e+003,1.282135e-001
6.063355e+003,1.533337e-001
6.067212e+003,1.696118e-001
6.071070e+003,1.560031e-001
6.074927e+003,1.345204e-001
6.078784e+003,1.358581e-001
6.082641e+003,1.421942e-001
6.086498e+003,1.448829e-001
6.090355e+003,1.515825e-001
6.094212e+003,1.368902e-001
6.098069e+003,1.157677e-001
6.101926e+003,1.323496e-001
6.105784e+003,1.629798e-001
6.109641e+003,1.701468e-001
6.113498e+003,1.555604e-001
6.117355e+003,1.470414e-001
6.121212e+003,1.370905e-001
6.125069e+003,1.423675e-001
6.128926e+003,1.477611e-001
6.132783e+003,1.526036e-001
6.136640e+003,1.581849e-001
6.140498e+003,1.427791e-001
6.144354e+003,1.378711e-001
6.148211e+003,1.474908e-001
6.152069e+003,1.378006e-001
6.155926e+003,1.358254e-001
6.159783e+003,1.313464e-001
6.163640e+003,1.276054e-001
6.167497e+003,1.384878e-001
6.171354e+003,1.465955e-001
6.175211e+003,1.367921e-001
6.179068e+003,1.317858e-001
6.182925e+003,1.315940e-001
6.186783e+003,1.460399e-001
6.190640e+003,1.593297e-001
6.194497e+003,1.604041e-001
6.198354e+003,1.573029e-001
6.202211e+003,1.529297e-001
6.206068e+003,1.623353e-001
6.209925e+003,1.632362e-001
6.213782e+003,1.633037e-001
6.217639e+003,1.456649e-001
6.221497e+003,1.388685e-001
6.225354e+003,1.532037e-001
6.229210e+003,1.600049e-001
6.233068e+003,1.480698e-001
6.236925e+003,1.346194e-001
6.240782e+003,1.286132e-001
6.244639e+003,1.269308e-001
6.248496e+003,1.232293e-001
6.252353e+003,1.173712e-001
6.256210e+003,1.231044e-001
6.260067e+003,1.428097e-001
6.263924e+003,1.529292e-001
6.267782e+003,1.437466e-001
6.271639e+003,1.542165e-001
6.275496e+003,1.784326e-001
6.279353e+003,1.529987e-001
6.283210e+003,1.313895e-001
6.287067e+003,1.407073e-001
6.290924e+003,1.401160e-001
6.294781e+003,1.369189e-001
6.298638e+003,1.469521e-001
6.302496e+003,1.554979e-001
6.306353e+003,1.574332e-001
6.310209e+003,1.373050e-001
6.314067e+003,1.246270e-001
6.317924e+003,1.426976e-001
6.321781e+003,1.547352e-001
6.325638e+003,1.473785e-001
6.329495e+003,1.398322e-001
6.333352e+003,1.454784e-001
6.337209e+003,1.436777e-001
6.341066e+003,1.440801e-001
6.344923e+003,1.417262e-001
6.348780e+003,1.413276e-001
6.352638e+003,1.670776e-001
6.356495e+003,1.574019e-001
6.360352e+003,1.488252e-001
6.364209e+003,1.622557e-001
6.368066e+003,1.506511e-001
6.371923e+003,1.432414e-001
6.375780e+003,1.442283e-001
6.379637e+003,1.461585e-001
6.383494e+003,1.572260e-001
6.387352e+003,1.571687e-001
6.391208e+003,1.544956e-001
6.395065e+003,1.444981e-001
6.398923e+003,1.307337e-001
6.402780e+003,1.322556e-001
6.406637e+003,1.350492e-001
6.410494e+003,1.400686e-001
6.414351e+003,1.464206e-001
6.418208e+003,1.472733e-001
6.422065e+003,1.492536e-001
6.425922e+003,1.433399e-001
6.429779e+003,1.588486e-001
6.433637e+003,1.625046e-001
6.437494e+003,1.503053e-001
6.441351e+003,1.465128e-001
6.445208e+003,1.570617e-001
6.449065e+003,1.507674e-001
6.452922e+003,1.464690e-001
6.456779e+003,1.345703e-001
6.460636e+003,1.268554e-001
6.464493e+003,1.432702e-001
6.468351e+003,1.449570e-001
6.472208e+003,1.517801e-001
6.476064e+003,1.419770e-001
6.479922e+003,1.288287e-001
6.483779e+003,1.352056e-001
6.487636e+003,1.451166e-001
6.491493e+003,1.338818e-001
6.495350e+003,1.311822e-001
6.499207e+003,1.483925e-001
6.503064e+003,1.550834e-001
6.506921e+003,1.527012e-001
6.510778e+003,1.480714e-001
6.514636e+003,1.301666e-001
6.518493e+003,1.336527e-001
6.522350e+003,1.238263e-001
6.526207e+003,1.335329e-001
6.530064e+003,1.376052e-001
6.533921e+003,1.425282e-001
6.537778e+003,1.314334e-001
6.541635e+003,1.239714e-001
6.545492e+003,1.345115e-001
6.549350e+003,1.414416e-001
6.553207e+003,1.467658e-001
6.557063e+003,1.500272e-001
6.560921e+003,1.468161e-001
6.564778e+003,1.502080e-001
6.568635e+003,1.409981e-001
6.572492e+003,1.208241e-001
6.576349e+003,1.155798e-001
6.580206e+003,1.259331e-001
6.584063e+003,1.329515e-001
6.587920e+003,1.387356e-001
6.591777e+003,1.297897e-001
6.595635e+003,1.042093e-001
6.599492e+003,1.013453e-001
6.603349e+003,1.201911e-001
6.607206e+003,1.320874e-001
6.611063e+003,1.294062e-001
6.614920e+003,1.340836e-001
6.618777e+003,1.387228e-001
6.622634e+003,1.256991e-001
6.626491e+003,1.266828e-001
6.630349e+003,1.561476e-001
6.634206e+003,1.752025e-001
6.638063e+003,1.617597e-001
6.641920e+003,1.612701e-001
6.645777e+003,1.653253e-001
6.649634e+003,1.542260e-001
6.653491e+003,1.400017e-001
6.657348e+003,1.492717e-001
6.661205e+003,1.532813e-001
6.665063e+003,1.485749e-001
6.668919e+003,1.505649e-001
6.672776e+003,1.457088e-001
6.676634e+003,1.485424e-001
6.680491e+003,1.496053e-001
6.684348e+003,1.438814e-001
6.688205e+003,1.563146e-001
6.692062e+003,1.472897e-001
6.695919e+003,1.465909e-001
6.699776e+003,1.515720e-001
6.703633e+003,1.209601e-001
6.707490e+003,1.266202e-001
6.711348e+003,1.453277e-001
6.715205e+003,1.445186e-001
6.719062e+003,1.574980e-001
6.722919e+003,1.526868e-001
6.726776e+003,1.488025e-001
6.730633e+003,1.529256e-001
6.734490e+003,1.438110e-001
6.738347e+003,1.362003e-001
6.742204e+003,1.653514e-001
6.746062e+003,1.887405e-001
6.749918e+003,1.984340e-001
6.753775e+003,1.841217e-001
6.757633e+003,1.430819e-001
6.761490e+003,1.192697e-001
6.765347e+003,1.220872e-001
6.769204e+003,1.311333e-001
6.773061e+003,1.374002e-001
6.776918e+003,1.326373e-001
6.780775e+003,1.197176e-001
6.784632e+003,1.308812e-001
6.788489e+003,1.523578e-001
6.792347e+003,1.397230e-001
6.796204e+003,1.289101e-001
6.800061e+003,1.389876e-001
6.803918e+003,1.466766e-001
6.807775e+003,1.536539e-001
6.811632e+003,1.514878e-001
6.815489e+003,1.274399e-001
6.819346e+003,1.064170e-001
6.823203e+003,1.344940e-001
6.827061e+003,1.523648e-001
6.830917e+003,1.348599e-001
6.834774e+003,1.030663e-001
6.838632e+003,1.070842e-001
6.842489e+003,1.298511e-001
6.846346e+003,1.414297e-001
6.850203e+003,1.394711e-001
6.854060e+003,1.352662e-001
6.857917e+003,1.468716e-001
6.861774e+003,1.553681e-001
6.865631e+003,1.624884e-001
6.869488e+003,1.467926e-001
6.873346e+003,1.324197e-001
6.877203e+003,1.317043e-001
6.881060e+003,1.359514e-001
6.884917e+003,1.637904e-001
6.888774e+003,1.880677e-001
6.892631e+003,1.754876e-001
6.896488e+003,1.485494e-001
6.900345e+003,1.325515e-001
6.904202e+003,1.425056e-001
6.908060e+003,1.229371e-001
6.911917e+003,9.850183e-002
6.915773e+003,1.212859e-001
6.919631e+003,1.568841e-001
6.923488e+003,1.430305e-001
6.927345e+003,1.177579e-001
6.931202e+003,1.379482e-001
6.935059e+003,1.328252e-001
6.938916e+003,1.152649e-001
6.942773e+003,1.252366e-001
6.946630e+003,1.443758e-001
6.950487e+003,1.505692e-001
6.954345e+003,1.447524e-001
6.958202e+003,1.564214e-001
6.962059e+003,1.566091e-001
6.965916e+003,1.643562e-001
6.969773e+003,1.548925e-001
6.973630e+003,1.482095e-001
6.977487e+003,1.662797e-001
6.981344e+003,1.865425e-001
6.985201e+003,1.730187e-001
6.989059e+003,1.246749e-001
6.992916e+003,1.264741e-001
6.996772e+003,1.165240e-001
7.000630e+003,1.148696e-001
7.004487e+003,1.147439e-001
7.008344e+003,1.277696e-001
7.012201e+003,1.489070e-001
7.016058e+003,1.438522e-001
7.019915e+003,1.475631e-001
7.023772e+003,1.487238e-001
7.027629e+003,1.594572e-001
7.031486e+003,1.664820e-001
7.035344e+003,1.626718e-001
7.039201e+003,1.561961e-001
7.043058e+003,1.377157e-001
7.046915e+003,1.419249e-001
7.050772e+003,1.331643e-001
7.054629e+003,1.343100e-001
7.058486e+003,1.550070e-001
7.062343e+003,1.333104e-001
7.066200e+003,1.102659e-001
7.070058e+003,1.389518e-001
7.073915e+003,1.687597e-001
7.077771e+003,1.537375e-001
7.081629e+003,1.248605e-001
7.085486e+003,1.074719e-001
7.089343e+003,1.195141e-001
7.093200e+003,1.223698e-001
7.097057e+003,1.471484e-001
7.100914e+003,1.887949e-001
7.104771e+003,1.373103e-001
7.108628e+003,7.207901e-002
7.112485e+003,7.993583e-002
7.116343e+003,1.208903e-001
7.120200e+003,1.334869e-001
7.124057e+003,1.215780e-001
7.127914e+003,1.122830e-001
7.131771e+003,1.246749e-001
7.135628e+003,1.243413e-001
7.139485e+003,8.936574e-002
7.143342e+003,8.064152e-002
7.147199e+003,1.265888e-001
7.151057e+003,1.549900e-001
7.154914e+003,1.606505e-001
7.158771e+003,1.452790e-001
7.162628e+003,1.448547e-001
7.166485e+003,1.627983e-001
7.170342e+003,1.676346e-001
7.174199e+003,1.519804e-001
7.178056e+003,1.463874e-001
7.181913e+003,1.496458e-001
7.185771e+003,1.352633e-001
7.189627e+003,1.130449e-001
7.193484e+003,1.074931e-001
7.197342e+003,1.414289e-001
7.201199e+003,1.603915e-001
7.205056e+003,1.484375e-001
7.208913e+003,1.369043e-001
7.212770e+003,1.270735e-001
7.216627e+003,1.463432e-001
7.220484e+003,1.596073e-001
7.224341e+003,1.257071e-001
7.228198e+003,1.052179e-001
7.232056e+003,1.294226e-001
7.235913e+003,1.007888e-001
7.239770e+003,9.659482e-002
7.243627e+003,9.961845e-002
7.247484e+003,8.976262e-002
7.251341e+003,1.195675e-001
7.255198e+003,1.232183e-001
7.259055e+003,1.161212e-001
7.262912e+003,1.482392e-001
7.266770e+003,1.842826e-001
7.270626e+003,1.967384e-001
7.274483e+003,1.546826e-001
7.278341e+003,1.025663e-001
7.282198e+003,5.744632e-002
7.286055e+003,4.543742e-002
7.289912e+003,5.754023e-002
7.293769e+003,6.468037e-002
7.297626e+003,6.270179e-002
7.301483e+003,9.331243e-002
7.305340e+003,1.226405e-001
7.309197e+003,1.006642e-001
7.313055e+003,8.270258e-002
7.316912e+003,1.092853e-001
7.320769e+003,1.289815e-001
7.324626e+003,1.395806e-001
7.328483e+003,1.091786e-001
7.332340e+003,9.578665e-002
7.336197e+003,1.145284e-001
7.340054e+003,1.031763e-001
7.343911e+003,9.033729e-002
7.347769e+003,8.073584e-002
7.351625e+003,7.325353e-002
7.355482e+003,5.871070e-002
7.359340e+003,9.082802e-002
7.363197e+003,9.770197e-002
7.367054e+003,1.239000e-001
7.370911e+003,1.253852e-001
7.374768e+003,9.613090e-002
7.378625e+003,1.216229e-001
7.382482e+003,1.392948e-001
7.386339e+003,1.381015e-001
7.390196e+003,1.441399e-001
7.394054e+003,1.217214e-001
7.397911e+003,9.355941e-002
7.401768e+003,1.025303e-001
7.405625e+003,7.757382e-002
7.409482e+003,1.088282e-001
7.413339e+003,1.694228e-001
7.417196e+003,1.747843e-001
7.421053e+003,1.900845e-001
7.424910e+003,1.602596e-001
7.428768e+003,1.229817e-001
7.432625e+003,1.299798e-001
7.436481e+003,1.405695e-001
7.440339e+003,1.656048e-001
7.444196e+003,1.421876e-001
7.448053e+003,1.336313e-001
7.451910e+003,1.311546e-001
7.455767e+003,5.824816e-002
7.459624e+003,4.500192e-002
7.463481e+003,4.998882e-002
7.467338e+003,9.226388e-002
7.471195e+003,1.259518e-001
7.475053e+003,1.202784e-001
7.478910e+003,1.105182e-001
7.482767e+003,1.065364e-001
7.486624e+003,8.669372e-002
7.490481e+003,1.351303e-001
7.494338e+003,1.417738e-001
7.498195e+003,9.006303e-002
7.502052e+003,9.953452e-002
7.505909e+003,9.957336e-002
7.509767e+003,1.047322e-001
7.513624e+003,4.844293e-002
7.517480e+003,3.906924e-002
7.521338e+003,1.559246e-001
7.525195e+003,2.071342e-001
7.529052e+003,1.893877e-001
7.532909e+003,1.839041e-001
7.536766e+003,1.616089e-001
7.540623e+003,7.226469e-002
7.544480e+003,7.486839e-002
7.548337e+003,1.494705e-001
7.552194e+003,1.300839e-001
7.556052e+003,8.515388e-002
7.559909e+003,4.332920e-002
7.563766e+003,6.912772e-002
7.567623e+003,1.366353e-001
7.571480e+003,1.732000e-001
7.575337e+003,1.016983e-001
7.579194e+003,7.588062e-002
7.583051e+003,9.179483e-002
7.586908e+003,9.369481e-002
7.590766e+003,6.340626e-002
7.594623e+003,4.059123e-002
7.598479e+003,5.380242e-002
7.602337e+003,5.872799e-002
7.606194e+003,8.662863e-002
7.610051e+003,1.457818e-001
7.613908e+003,1.895441e-001
7.617765e+003,1.142137e-001
7.621622e+003,9.999283e-002
7.625479e+003,1.221796e-001
7.629336e+003,7.546676e-002
7.633193e+003,3.468353e-002
7.637051e+003,5.232507e-002
7.640908e+003,6.615031e-002
7.644765e+003,1.075112e-001
7.648622e+003,1.162422e-001
7.652479e+003,9.768957e-002
7.656336e+003,1.332929e-001
7.660193e+003,1.736244e-001
7.664050e+003,1.835073e-001
7.667907e+003,1.626940e-001
7.671765e+003,1.570248e-001
7.675622e+003,1.561915e-001
7.679479e+003,1.349984e-001
7.683336e+003,1.188275e-001
7.687193e+003,1.087974e-001
7.691050e+003,4.952597e-002
7.694907e+003,7.406603e-002
7.698764e+003,1.588561e-001
7.702621e+003,1.944211e-001
7.706479e+003,1.250786e-001
7.710335e+003,-4.742759e-003
7.714192e+003,-1.731957e-002
7.718050e+003,4.564835e-002
7.721907e+003,7.557034e-002
7.725764e+003,8.166482e-002
7.729621e+003,6.004820e-002
7.733478e+003,9.526261e-002
7.737335e+003,5.525520e-002
7.741192e+003,-4.546493e-002
7.745049e+003,4.703200e-002
7.748906e+003,1.141883e-001
7.752764e+003,4.980031e-002
7.756621e+003,1.234424e-001
7.760478e+003,1.590545e-001
7.764335e+003,6.288343e-002
7.768192e+003,1.480382e-001
7.772049e+003,2.195219e-001
7.775906e+003,1.408418e-001
7.779763e+003,1.407773e-001
7.783620e+003,1.597911e-001
7.787478e+003,1.227121e-001
7.791334e+003,9.141944e-002
7.795191e+003,1.129855e-001
7.799049e+003,1.108220e-001
7.802906e+003,1.158927e-001
7.806763e+003,1.363245e-001
7.810620e+003,6.689414e-002
7.814477e+003,5.341570e-002
7.818334e+003,1.849076e-001
7.822191e+003,2.664623e-001
7.826048e+003,1.512291e-001
7.829905e+003,5.566883e-002
7.833763e+003,1.340340e-001
7.837620e+003,1.868655e-001
7.841477e+003,9.807479e-002
7.845334e+003,5.036547e-002
7.849191e+003,-1.662920e-002
7.853048e+003,-1.168569e-002
7.856905e+003,9.551755e-002
7.860762e+003,1.842718e-001
7.864619e+003,1.752643e-001
7.868477e+003,1.558947e-001
7.872333e+003,6.048810e-002
7.876190e+003,7.302132e-002
7.880048e+003,8.549763e-002
7.883905e+003,8.182785e-002
7.887762e+003,6.811722e-002
7.891619e+003,7.499620e-002
7.895476e+003,7.733485e-002
7.899333e+003,4.022104e-002
7.903190e+003,3.093557e-002
7.907047e+003,1.480994e-001
7.910904e+003,2.474416e-001
7.914762e+003,1.922697e-001
7.918619e+003,1.583258e-001
7.922476e+003,1.910304e-001
7.926333e+003,2.309776e-001
7.930190e+003,2.187670e-001
7.934047e+003,2.097724e-001
7.937904e+003,2.136884e-001
7.941761e+003,1.572039e-001
7.945618e+003,1.466268e-001
7.949476e+003,1.937324e-001
7.953333e+003,2.477533e-001
7.957189e+003,3.026722e-001
7.961047e+003,2.520224e-001
7.964904e+003,8.621621e-002
7.968761e+003,2.328512e-002
7.972618e+003,1.232273e-001
7.976475e+003,1.965687e-001
7.980332e+003,1.945235e-001
7.984189e+003,6.850484e-002
7.988046e+003,6.803741e-002
7.991903e+003,8.585715e-002
7.995761e+003,1.163107e-001
7.999618e+003,2.377420e-001
