4.011380e+002,6.000000e+000
4.049951e+002,6.000000e+000
4.088522e+002,4.051185e-001
4.127093e+002,-5.096304e-001
4.165664e+002,6.000000e+000
4.204235e+002,6.000000e+000
4.242806e+002,-4.159319e-001
4.281377e+002,9.412932e-001
4.319948e+002,6.000000e+000
4.358519e+002,-1.251056e-001
4.397090e+002,1.707757e-001
4.435661e+002,4.983999e-001
4.474232e+002,-3.008524e-001
4.512803e+002,-4.892827e-001
4.551374e+002,6.000000e+000
4.589945e+002,7.928241e-001
4.628516e+002,-8.174664e-001
4.667087e+002,6.000000e+000
4.705658e+002,6.000000e+000
4.744229e+002,2.850164e-001
4.782800e+002,-2.778965e-002
4.821371e+002,-3.662035e-002
4.859941e+002,6.000000e+000
4.898513e+002,6.000000e+000
4.937083e+002,6.000000e+000
4.975654e+002,3.695646e-001
5.014225e+002,7.598579e-002
5.052796e+002,2.758152e-001
5.091367e+002,1.361968e+000
5.129938e+002,6.000000e+000
5.168509e+002,8.399918e-001
5.207080e+002,-1.097430e+000
5.245651e+002,6.000000e+000
5.284222e+002,9.102400e-001
5.322793e+002,-3.536388e-001
5.361364e+002,6.000000e+000
5.399935e+002,7.582948e-002
5.438506e+002,3.031081e-001
5.477077e+002,-3.379653e-001
5.515648e+002,6.000000e+000
5.554219e+002,4.991678e-002
5.592790e+002,3.560300e-001
5.631361e+002,-8.240553e-002
5.669932e+002,5.543364e-003
5.708503e+002,-3.234572e-001
5.747074e+002,6.000000e+000
5.785645e+002,3.488770e-001
5.824216e+002,6.000000e+000
5.862787e+002,6.000000e+000
5.901357e+002,1.483051e+000
5.939929e+002,6.000000e+000
5.978499e+002,6.000000e+000
6.017070e+002,6.000000e+000
6.055641e+002,-5.719052e-003
6.094212e+002,3.302012e-001
6.132783e+002,3.274677e-001
6.171354e+002,6.000000e+000
6.209925e+002,6.000000e+000
6.248496e+002,-2.899270e-001
6.287067e+002,1.323002e-001
6.325638e+002,6.000000e+000
6.364209e+002,1.738732e-001
6.402780e+002,6.000000e+000
6.441351e+002,6.053932e-001
6.479922e+002,2.350402e-001
6.518493e+002,1.165863e+000
6.557064e+002,6.000000e+000
6.595635e+002,6.000000e+000
6.634205e+002,-2.716863e-001
6.672777e+002,-3.218597e+000
6.711348e+002,6.000000e+000
6.749918e+002,2.264040e-001
6.788490e+002,6.000000e+000
6.827061e+002,5.700362e-001
6.865631e+002,-2.006735e-002
6.904203e+002,8.853728e-001
6.942773e+002,6.000000e+000
6.981344e+002,1.843599e-001
7.019916e+002,7.417791e-002
7.058486e+002,-7.672191e-002
7.097057e+002,6.000000e+000
7.135629e+002,3.826202e-001
7.174199e+002,5.877472e-001
7.212770e+002,3.420441e-001
7.251342e+002,-2.202415e-001
7.289912e+002,-3.743190e-001
7.328483e+002,-4.296998e-001
7.367054e+002,6.000000e+000
7.405625e+002,6.000000e+000
7.444196e+002,6.000000e+000
7.482767e+002,6.000000e+000
7.521338e+002,6.000000e+000
7.559908e+002,6.000000e+000
7.598480e+002,1.777321e-001
7.637051e+002,-2.200166e-001
7.675621e+002,6.000000e+000
7.714193e+002,-1.738040e-001
7.752764e+002,6.000000e+000
7.791334e+002,6.000000e+000
7.829905e+002,6.000000e+000
7.868477e+002,-1.456303e-001
7.907047e+002,-1.201170e-001
7.945618e+002,-9.966030e-001
7.984189e+002,6.000000e+000
8.022760e+002,6.000000e+000
8.061331e+002,-8.296572e-001
8.099902e+002,-1.488102e-001
8.138473e+002,6.417870e-001
8.177044e+002,6.000000e+000
8.215615e+002,6.000000e+000
8.254186e+002,6.000000e+000
8.292757e+002,6.000000e+000
8.331328e+002,4.049273e-001
8.369899e+002,2.944934e-001
8.408470e+002,1.119045e+000
8.447041e+002,1.336693e+000
8.485612e+002,7.812822e-001
8.524183e+002,6.000000e+000
8.562754e+002,6.000000e+000
8.601324e+002,6.000000e+000
8.639896e+002,6.000000e+000
8.678467e+002,1.307381e+000
8.717037e+002,6.000000e+000
8.755609e+002,6.000000e+000
8.794180e+002,6.000000e+000
8.832750e+002,6.000000e+000
8.871321e+002,1.573731e+000
8.909893e+002,1.952418e+000
8.948463e+002,6.000000e+000
8.987034e+002,1.355642e+000
9.025605e+002,1.347690e+000
9.064176e+002,1.785739e+000
9.102747e+002,1.548365e+000
9.141318e+002,2.121262e+000
9.179889e+002,2.186676e+000
9.218461e+002,1.645395e+000
9.257031e+002,1.587203e+000
9.295602e+002,1.345888e+000
9.334174e+002,1.472376e+000
9.372744e+002,2.256230e+000
9.411315e+002,2.271606e+000
9.449886e+002,1.968542e+000
9.488457e+002,1.991007e+000
9.527028e+002,1.821016e+000
9.565599e+002,1.909950e+000
9.604170e+002,2.445466e+000
9.642740e+002,2.464067e+000
9.681312e+002,2.864185e+000
9.719883e+002,2.559188e+000
9.758453e+002,2.014921e+000
9.797025e+002,2.145791e+000
9.835596e+002,6.000000e+000
9.874166e+002,6.000000e+000
9.912738e+002,6.000000e+000
9.951309e+002,2.912441e+000
9.989879e+002,2.981858e+000
1.002845e+003,2.111884e+000
1.006702e+003,1.909698e+000
1.010559e+003,2.702061e+000
1.014416e+003,6.000000e+000
1.018273e+003,6.000000e+000
1.022130e+003,6.000000e+000
1.025988e+003,2.835643e+000
1.029845e+003,6.000000e+000
1.033702e+003,6.000000e+000
1.037559e+003,6.000000e+000
1.041416e+003,2.332140e+000
1.045273e+003,2.273182e+000
1.049130e+003,2.200972e+000
1.052987e+003,2.335480e+000
1.056844e+003,3.158444e+000
1.060702e+003,3.005512e+000
1.064559e+003,4.793397e+000
1.068416e+003,2.984050e+000
1.072273e+003,2.200868e+000
1.076130e+003,1.961925e+000
1.079987e+003,2.123878e+000
1.083844e+003,2.223508e+000
1.087701e+003,2.135018e+000
1.091558e+003,2.013608e+000
1.095415e+003,2.035669e+000
1.099272e+003,2.339001e+000
1.103130e+003,2.580714e+000
1.106987e+003,2.313564e+000
1.110844e+003,2.114258e+000
1.114701e+003,1.965254e+000
1.118558e+003,1.907954e+000
1.122415e+003,1.833334e+000
1.126272e+003,1.899135e+000
1.130129e+003,1.869122e+000
1.133986e+003,1.677239e+000
1.137843e+003,1.676366e+000
1.141701e+003,1.860190e+000
1.145558e+003,1.860690e+000
1.149415e+003,1.770761e+000
1.153272e+003,1.794975e+000
1.157129e+003,1.807760e+000
1.160986e+003,1.833601e+000
1.164843e+003,1.803616e+000
1.168700e+003,1.773626e+000
1.172557e+003,1.856753e+000
1.176414e+003,1.930910e+000
1.180271e+003,1.808834e+000
1.184129e+003,1.775733e+000
1.187986e+003,1.854626e+000
1.191843e+003,1.952936e+000
1.195700e+003,1.840813e+000
1.199557e+003,1.742104e+000
1.203414e+003,1.774307e+000
1.207271e+003,1.757195e+000
1.211128e+003,1.729139e+000
1.214985e+003,1.757118e+000
1.218842e+003,1.813831e+000
1.222699e+003,1.781374e+000
1.226557e+003,1.788953e+000
1.230414e+003,1.778888e+000
1.234271e+003,1.672941e+000
1.238128e+003,1.611858e+000
1.241985e+003,1.602308e+000
1.245842e+003,1.587480e+000
1.249699e+003,1.531870e+000
1.253556e+003,1.466130e+000
1.257413e+003,1.408077e+000
1.261271e+003,1.374366e+000
1.265128e+003,1.386881e+000
1.268985e+003,1.356479e+000
1.272842e+003,1.290424e+000
1.276699e+003,1.274080e+000
1.280556e+003,1.236786e+000
1.284413e+003,1.216155e+000
1.288270e+003,1.223092e+000
1.292127e+003,1.174374e+000
1.295984e+003,1.119204e+000
1.299841e+003,1.115170e+000
1.303698e+003,1.117746e+000
1.307556e+003,1.102049e+000
1.311413e+003,1.068850e+000
1.315270e+003,1.057158e+000
1.319127e+003,1.047449e+000
1.322984e+003,1.016666e+000
1.326841e+003,9.959565e-001
1.330698e+003,1.006921e+000
1.334555e+003,1.004060e+000
1.338412e+003,9.906721e-001
1.342270e+003,9.791465e-001
1.346127e+003,9.674708e-001
1.349984e+003,9.575955e-001
1.353841e+003,9.445112e-001
1.357698e+003,9.510196e-001
1.361555e+003,9.582115e-001
1.365412e+003,9.681446e-001
1.369269e+003,9.723017e-001
1.373126e+003,9.796314e-001
1.376983e+003,9.823640e-001
1.380840e+003,9.938881e-001
1.384698e+003,1.021197e+000
1.388555e+003,1.039722e+000
1.392412e+003,1.062162e+000
1.396269e+003,1.098593e+000
1.400126e+003,1.116779e+000
1.403983e+003,1.136598e+000
1.407840e+003,1.164323e+000
1.411697e+003,1.166994e+000
1.415554e+003,1.178089e+000
1.419411e+003,1.208916e+000
1.423269e+003,1.230788e+000
1.427126e+003,1.222276e+000
1.430983e+003,1.217186e+000
1.434840e+003,1.218556e+000
1.438697e+003,1.225487e+000
1.442554e+003,1.236549e+000
1.446411e+003,1.212536e+000
1.450268e+003,1.196983e+000
1.454125e+003,1.191862e+000
1.457982e+003,1.179040e+000
1.461839e+003,1.173898e+000
1.465697e+003,1.149355e+000
1.469554e+003,1.130333e+000
1.473411e+003,1.134244e+000
1.477268e+003,1.142092e+000
1.481125e+003,1.156380e+000
1.484982e+003,1.171398e+000
1.488839e+003,1.175194e+000
1.492696e+003,1.175647e+000
1.496553e+003,1.193166e+000
1.500411e+003,1.223966e+000
1.504268e+003,1.230951e+000
1.508125e+003,1.220197e+000
1.511982e+003,1.215075e+000
1.515839e+003,1.236139e+000
1.519696e+003,1.229347e+000
1.523553e+003,1.192310e+000
1.527410e+003,1.172204e+000
1.531267e+003,1.184462e+000
1.535124e+003,1.165578e+000
1.538981e+003,1.134380e+000
1.542839e+003,1.111427e+000
1.546696e+003,1.088683e+000
1.550553e+003,1.068746e+000
1.554410e+003,1.063783e+000
1.558267e+003,1.044676e+000
1.562124e+003,1.035701e+000
1.565981e+003,1.031757e+000
1.569838e+003,1.010052e+000
1.573695e+003,9.933876e-001
1.577552e+003,9.785191e-001
1.581410e+003,9.639529e-001
1.585267e+003,9.702292e-001
1.589124e+003,9.908866e-001
1.592981e+003,1.001773e+000
1.596838e+003,1.018417e+000
1.600695e+003,1.037859e+000
1.604552e+003,1.060590e+000
1.608409e+003,1.103116e+000
1.612266e+003,1.150608e+000
1.616123e+003,1.195676e+000
1.619980e+003,1.249413e+000
1.623838e+003,1.294500e+000
1.627695e+003,1.315925e+000
1.631552e+003,1.341163e+000
1.635409e+003,1.344848e+000
1.639266e+003,1.360106e+000
1.643123e+003,1.378943e+000
1.646980e+003,1.386694e+000
1.650837e+003,1.362041e+000
1.654694e+003,1.349323e+000
1.658551e+003,1.337131e+000
1.662409e+003,1.299984e+000
1.666266e+003,1.238798e+000
1.670123e+003,1.169631e+000
1.673980e+003,1.123372e+000
1.677837e+003,1.071689e+000
1.681694e+003,1.022646e+000
1.685551e+003,9.937708e-001
1.689408e+003,9.679894e-001
1.693265e+003,9.349860e-001
1.697122e+003,9.066920e-001
1.700979e+003,8.851792e-001
1.704837e+003,8.692416e-001
1.708694e+003,8.519847e-001
1.712551e+003,8.318033e-001
1.716408e+003,8.190212e-001
1.720265e+003,8.130097e-001
1.724122e+003,8.068787e-001
1.727979e+003,8.011729e-001
1.731836e+003,7.974389e-001
1.735693e+003,7.912278e-001
1.739550e+003,7.803204e-001
1.743408e+003,7.698021e-001
1.747265e+003,7.661281e-001
1.751122e+003,7.677652e-001
1.754979e+003,7.671717e-001
1.758836e+003,7.650570e-001
1.762693e+003,7.616094e-001
1.766550e+003,7.564806e-001
1.770407e+003,7.561174e-001
1.774264e+003,7.577031e-001
1.778121e+003,7.568915e-001
1.781979e+003,7.488371e-001
1.785836e+003,7.424693e-001
1.789693e+003,7.436191e-001
1.793550e+003,7.443725e-001
1.797407e+003,7.382702e-001
1.801264e+003,7.392862e-001
1.805121e+003,7.411107e-001
1.808978e+003,7.298760e-001
1.812835e+003,7.238413e-001
1.816692e+003,7.242256e-001
1.820549e+003,7.203427e-001
1.824407e+003,7.170241e-001
1.828264e+003,7.110355e-001
1.832121e+003,7.097349e-001
1.835978e+003,7.106752e-001
1.839835e+003,7.103193e-001
1.843692e+003,7.069612e-001
1.847549e+003,7.016289e-001
1.851406e+003,6.943165e-001
1.855263e+003,6.922249e-001
1.859120e+003,6.951007e-001
1.862978e+003,6.945968e-001
1.866835e+003,6.886362e-001
1.870692e+003,6.809022e-001
1.874549e+003,6.752861e-001
1.878406e+003,6.728404e-001
1.882263e+003,6.714675e-001
1.886120e+003,6.718534e-001
1.889977e+003,6.708180e-001
1.893834e+003,6.668949e-001
1.897691e+003,6.661536e-001
1.901548e+003,6.669668e-001
1.905406e+003,6.670383e-001
1.909263e+003,6.647505e-001
1.913120e+003,6.601916e-001
1.916977e+003,6.540776e-001
1.920834e+003,6.500835e-001
1.924691e+003,6.504518e-001
1.928548e+003,6.490719e-001
1.932405e+003,6.461408e-001
1.936262e+003,6.446148e-001
1.940119e+003,6.374432e-001
1.943977e+003,6.268962e-001
1.947834e+003,6.250809e-001
1.951691e+003,6.288250e-001
1.955548e+003,6.282985e-001
1.959405e+003,6.230107e-001
1.963262e+003,6.174394e-001
1.967119e+003,6.177128e-001
1.970976e+003,6.219892e-001
1.974833e+003,6.198653e-001
1.978690e+003,6.117045e-001
1.982547e+003,6.054525e-001
1.986405e+003,6.046033e-001
1.990262e+003,6.060144e-001
1.994119e+003,6.017104e-001
1.997976e+003,5.987909e-001
2.001833e+003,5.964292e-001
2.005690e+003,5.978327e-001
2.009547e+003,5.989680e-001
2.013404e+003,5.927737e-001
2.017261e+003,5.899563e-001
2.021118e+003,5.885978e-001
2.024976e+003,5.854793e-001
2.028833e+003,5.866623e-001
2.032690e+003,5.839644e-001
2.036547e+003,5.789551e-001
2.040404e+003,5.757774e-001
2.044261e+003,5.718430e-001
2.048118e+003,5.689686e-001
2.051975e+003,5.675198e-001
2.055832e+003,5.633809e-001
2.059689e+003,5.617055e-001
2.063546e+003,5.592932e-001
2.067404e+003,5.597384e-001
2.071261e+003,5.599154e-001
2.075118e+003,5.585840e-001
2.078975e+003,5.562407e-001
2.082832e+003,5.571412e-001
2.086689e+003,5.576941e-001
2.090546e+003,5.552133e-001
2.094403e+003,5.533043e-001
2.098260e+003,5.517619e-001
2.102117e+003,5.546042e-001
2.105975e+003,5.558393e-001
2.109832e+003,5.518635e-001
2.113689e+003,5.489026e-001
2.117546e+003,5.483469e-001
2.121403e+003,5.508839e-001
2.125260e+003,5.517147e-001
2.129117e+003,5.514322e-001
2.132974e+003,5.496095e-001
2.136831e+003,5.474302e-001
2.140688e+003,5.485414e-001
2.144545e+003,5.498769e-001
2.148403e+003,5.475962e-001
2.152260e+003,5.518279e-001
2.156117e+003,5.555961e-001
2.159974e+003,5.501256e-001
2.163831e+003,5.500587e-001
2.167688e+003,5.542727e-001
2.171545e+003,5.541615e-001
2.175402e+003,5.501319e-001
2.179259e+003,5.500419e-001
2.183116e+003,5.537527e-001
2.186974e+003,5.566027e-001
2.190831e+003,5.554275e-001
2.194688e+003,5.564656e-001
2.198545e+003,5.590350e-001
2.202402e+003,5.598363e-001
2.206259e+003,5.608506e-001
2.210116e+003,5.614907e-001
2.213973e+003,5.629327e-001
2.217830e+003,5.652580e-001
2.221688e+003,5.684492e-001
2.225544e+003,5.705644e-001
2.229402e+003,5.711996e-001
2.233259e+003,5.691652e-001
2.237116e+003,5.661962e-001
2.240973e+003,5.676122e-001
2.244830e+003,5.698944e-001
2.248687e+003,5.690367e-001
2.252544e+003,5.709727e-001
2.256401e+003,5.712399e-001
2.260258e+003,5.744511e-001
2.264115e+003,5.813594e-001
2.267973e+003,5.827563e-001
2.271830e+003,5.829625e-001
2.275687e+003,5.829455e-001
2.279544e+003,5.827685e-001
2.283401e+003,5.830016e-001
2.287258e+003,5.831761e-001
2.291115e+003,5.842434e-001
2.294972e+003,5.862150e-001
2.298829e+003,5.877216e-001
2.302687e+003,5.912425e-001
2.306543e+003,5.921881e-001
2.310401e+003,5.912552e-001
2.314258e+003,5.891935e-001
2.318115e+003,5.911523e-001
2.321972e+003,5.950637e-001
2.325829e+003,5.968221e-001
2.329686e+003,5.920764e-001
2.333543e+003,5.871852e-001
2.337400e+003,5.917885e-001
2.341257e+003,5.911326e-001
2.345115e+003,5.923015e-001
2.348972e+003,5.931214e-001
2.352829e+003,5.899332e-001
2.356686e+003,5.879854e-001
2.360543e+003,5.846892e-001
2.364400e+003,5.827087e-001
2.368257e+003,5.869803e-001
2.372114e+003,5.917763e-001
2.375971e+003,5.975656e-001
2.379828e+003,6.018866e-001
2.383686e+003,6.040804e-001
2.387542e+003,6.043290e-001
2.391400e+003,6.039725e-001
2.395257e+003,6.000587e-001
2.399114e+003,5.977121e-001
2.402971e+003,5.971835e-001
2.406828e+003,5.959320e-001
2.410685e+003,5.954577e-001
2.414542e+003,5.959119e-001
2.418399e+003,5.927615e-001
2.422256e+003,5.912723e-001
2.426114e+003,5.915494e-001
2.429971e+003,5.892014e-001
2.433828e+003,5.877767e-001
2.437685e+003,5.874863e-001
2.441542e+003,5.875669e-001
2.445399e+003,5.868252e-001
2.449256e+003,5.841298e-001
2.453113e+003,5.799568e-001
2.456970e+003,5.797608e-001
2.460827e+003,5.809224e-001
2.464684e+003,5.836304e-001
2.468542e+003,5.817771e-001
2.472399e+003,5.771768e-001
2.476256e+003,5.779137e-001
2.480113e+003,5.812378e-001
2.483970e+003,5.819404e-001
2.487827e+003,5.786675e-001
2.491684e+003,5.796568e-001
2.495541e+003,5.820089e-001
2.499398e+003,5.794094e-001
2.503255e+003,5.810992e-001
2.507113e+003,5.794405e-001
2.510969e+003,5.764371e-001
2.514827e+003,5.794490e-001
2.518684e+003,5.818751e-001
2.522541e+003,5.843850e-001
2.526398e+003,5.843142e-001
2.530255e+003,5.850799e-001
2.534112e+003,5.866032e-001
2.537969e+003,5.873017e-001
2.541826e+003,5.924626e-001
2.545683e+003,5.939707e-001
2.549541e+003,5.924003e-001
2.553398e+003,5.913830e-001
2.557255e+003,5.969336e-001
2.561112e+003,6.007317e-001
2.564969e+003,5.993940e-001
2.568826e+003,5.992392e-001
2.572683e+003,6.048172e-001
2.576540e+003,6.090079e-001
2.580397e+003,6.167913e-001
2.584254e+003,6.192271e-001
2.588112e+003,6.205338e-001
2.591969e+003,6.241611e-001
2.595826e+003,6.258534e-001
2.599683e+003,6.302812e-001
2.603540e+003,6.369554e-001
2.607397e+003,6.368684e-001
2.611254e+003,6.371610e-001
2.615111e+003,6.485319e-001
2.618968e+003,6.588910e-001
2.622825e+003,6.651791e-001
2.626682e+003,6.657835e-001
2.630540e+003,6.674628e-001
2.634397e+003,6.781337e-001
2.638254e+003,6.783066e-001
2.642111e+003,6.734509e-001
2.645968e+003,6.835997e-001
2.649825e+003,6.951916e-001
2.653682e+003,7.018794e-001
2.657539e+003,7.028521e-001
2.661396e+003,7.019337e-001
2.665253e+003,7.036220e-001
2.669111e+003,7.086950e-001
2.672968e+003,7.157931e-001
2.676825e+003,7.292268e-001
2.680682e+003,7.393581e-001
2.684539e+003,7.432040e-001
2.688396e+003,7.525342e-001
2.692253e+003,7.543754e-001
2.696110e+003,7.553919e-001
2.699967e+003,7.614572e-001
2.703824e+003,7.677398e-001
2.707681e+003,7.764248e-001
2.711539e+003,7.843685e-001
2.715396e+003,7.948251e-001
2.719253e+003,8.006297e-001
2.723110e+003,7.987449e-001
2.726967e+003,8.025699e-001
2.730824e+003,8.156830e-001
2.734681e+003,8.274204e-001
2.738538e+003,8.359727e-001
2.742395e+003,8.425822e-001
2.746252e+003,8.441687e-001
2.750110e+003,8.466626e-001
2.753967e+003,8.573464e-001
2.757824e+003,8.736984e-001
2.761681e+003,8.826071e-001
2.765538e+003,8.869134e-001
2.769395e+003,8.939130e-001
2.773252e+003,9.001319e-001
2.777109e+003,9.061664e-001
2.780966e+003,9.065931e-001
2.784823e+003,9.155692e-001
2.788680e+003,9.271281e-001
2.792538e+003,9.404944e-001
2.796395e+003,9.470459e-001
2.800252e+003,9.530577e-001
2.804109e+003,9.661561e-001
2.807966e+003,9.710946e-001
2.811823e+003,9.727687e-001
2.815680e+003,9.853286e-001
2.819537e+003,1.000795e+000
2.823394e+003,1.011510e+000
2.827251e+003,1.017637e+000
2.831109e+003,1.024639e+000
2.834966e+003,1.030252e+000
2.838823e+003,1.035218e+000
2.842680e+003,1.038284e+000
2.846537e+003,1.040427e+000
2.850394e+003,1.056543e+000
2.854251e+003,1.071557e+000
2.858108e+003,1.070683e+000
2.861965e+003,1.078448e+000
2.865823e+003,1.100390e+000
2.869679e+003,1.113689e+000
2.873537e+003,1.109414e+000
2.877394e+003,1.108150e+000
2.881251e+003,1.130688e+000
2.885108e+003,1.145710e+000
2.888965e+003,1.151268e+000
2.892822e+003,1.157617e+000
2.896679e+003,1.184011e+000
2.900536e+003,1.196593e+000
2.904393e+003,1.207756e+000
2.908250e+003,1.218514e+000
2.912108e+003,1.231794e+000
2.915965e+003,1.246111e+000
2.919822e+003,1.242702e+000
2.923679e+003,1.236641e+000
2.927536e+003,1.239706e+000
2.931393e+003,1.237351e+000
2.935250e+003,1.233692e+000
2.939107e+003,1.251001e+000
2.942964e+003,1.262816e+000
2.946822e+003,1.267062e+000
2.950678e+003,1.275480e+000
2.954536e+003,1.295607e+000
2.958393e+003,1.325594e+000
2.962250e+003,1.341643e+000
2.966107e+003,1.335443e+000
2.969964e+003,1.353399e+000
2.973821e+003,1.381264e+000
2.977678e+003,1.362559e+000
2.981535e+003,1.344842e+000
2.985392e+003,1.377159e+000
2.989250e+003,1.417090e+000
2.993107e+003,1.426484e+000
2.996964e+003,1.402858e+000
3.000821e+003,1.397786e+000
3.004678e+003,1.411935e+000
3.008535e+003,1.415042e+000
3.012392e+003,1.423149e+000
3.016249e+003,1.440421e+000
3.020106e+003,1.449737e+000
3.023963e+003,1.454478e+000
3.027821e+003,1.486093e+000
3.031677e+003,1.490485e+000
3.035535e+003,1.479630e+000
3.039392e+003,1.487742e+000
3.043249e+003,1.494772e+000
3.047106e+003,1.543352e+000
3.050963e+003,1.561473e+000
3.054820e+003,1.545339e+000
3.058677e+003,1.534382e+000
3.062534e+003,1.554237e+000
3.066391e+003,1.593522e+000
3.070249e+003,1.647597e+000
3.074106e+003,1.663218e+000
3.077963e+003,1.650713e+000
3.081820e+003,1.619486e+000
3.085677e+003,1.604921e+000
3.089534e+003,1.618478e+000
3.093391e+003,1.621086e+000
3.097248e+003,1.589268e+000
3.101105e+003,1.592566e+000
3.104962e+003,1.627815e+000
3.108820e+003,1.671358e+000
3.112677e+003,1.695615e+000
3.116534e+003,1.690982e+000
3.120391e+003,1.718974e+000
3.124248e+003,1.762618e+000
3.128105e+003,1.754100e+000
3.131962e+003,1.698892e+000
3.135819e+003,1.718153e+000
3.139676e+003,1.747607e+000
3.143533e+003,1.748174e+000
3.147390e+003,1.764293e+000
3.151248e+003,1.710695e+000
3.155105e+003,1.665053e+000
3.158962e+003,1.741369e+000
3.162819e+003,1.789950e+000
3.166676e+003,1.813468e+000
3.170533e+003,1.811605e+000
3.174390e+003,1.779773e+000
3.178247e+003,1.824384e+000
3.182104e+003,1.880409e+000
3.185961e+003,1.840585e+000
3.189819e+003,1.785976e+000
3.193676e+003,1.778296e+000
3.197533e+003,1.730878e+000
3.201390e+003,1.716970e+000
3.205247e+003,1.715778e+000
3.209104e+003,1.699558e+000
3.212961e+003,1.753779e+000
3.216818e+003,1.809824e+000
3.220675e+003,1.785356e+000
3.224532e+003,1.743041e+000
3.228389e+003,1.788888e+000
3.232247e+003,1.921019e+000
3.236104e+003,2.026606e+000
3.239961e+003,1.915002e+000
3.243818e+003,1.794415e+000
3.247675e+003,1.804625e+000
3.251532e+003,1.859092e+000
3.255389e+003,1.897490e+000
3.259246e+003,1.933445e+000
3.263103e+003,1.928671e+000
3.266960e+003,1.807216e+000
3.270818e+003,1.750799e+000
3.274675e+003,1.819760e+000
3.278532e+003,1.913371e+000
3.282389e+003,1.878835e+000
3.286246e+003,1.821424e+000
3.290103e+003,1.863976e+000
3.293960e+003,1.888851e+000
3.297817e+003,1.895719e+000
3.301674e+003,1.963307e+000
3.305531e+003,2.015222e+000
3.309388e+003,1.999429e+000
3.313246e+003,1.939571e+000
3.317103e+003,1.915933e+000
3.320960e+003,2.022429e+000
3.324817e+003,2.077963e+000
3.328674e+003,1.966208e+000
3.332531e+003,1.945113e+000
3.336388e+003,1.914330e+000
3.340245e+003,1.932015e+000
3.344102e+003,2.039215e+000
3.347959e+003,1.934666e+000
3.351817e+003,1.931420e+000
3.355674e+003,1.955038e+000
3.359531e+003,2.016583e+000
3.363388e+003,2.052059e+000
3.367245e+003,1.959132e+000
3.371102e+003,1.888202e+000
3.374959e+003,1.918355e+000
3.378816e+003,1.896950e+000
3.382673e+003,1.921867e+000
3.386530e+003,1.953719e+000
3.390387e+003,1.955739e+000
3.394245e+003,2.013819e+000
3.398102e+003,1.923094e+000
3.401959e+003,1.844021e+000
3.405816e+003,1.895174e+000
3.409673e+003,1.931802e+000
3.413530e+003,1.896381e+000
3.417387e+003,1.858086e+000
3.421244e+003,1.798446e+000
3.425101e+003,1.869954e+000
3.428958e+003,1.888671e+000
3.432815e+003,1.895820e+000
3.436673e+003,1.861253e+000
3.440530e+003,1.898108e+000
3.444387e+003,1.961275e+000
3.448244e+003,1.978266e+000
3.452101e+003,1.885197e+000
3.455958e+003,1.926821e+000
3.459815e+003,2.086817e+000
3.463672e+003,2.189568e+000
3.467529e+003,2.089810e+000
3.471386e+003,1.936650e+000
3.475244e+003,2.003769e+000
3.479101e+003,2.114488e+000
3.482958e+003,1.982826e+000
3.486815e+003,1.910456e+000
3.490672e+003,2.024267e+000
3.494529e+003,2.000478e+000
3.498386e+003,1.968468e+000
3.502243e+003,1.915247e+000
3.506100e+003,1.866552e+000
3.509958e+003,1.973571e+000
3.513814e+003,1.958449e+000
3.517672e+003,1.945966e+000
3.521529e+003,1.964990e+000
3.525386e+003,1.915053e+000
3.529243e+003,1.909819e+000
3.533100e+003,1.940483e+000
3.536957e+003,1.998176e+000
3.540814e+003,2.004702e+000
3.544671e+003,1.943945e+000
3.548528e+003,2.026011e+000
3.552385e+003,2.009087e+000
3.556243e+003,1.916060e+000
3.560100e+003,1.958754e+000
3.563957e+003,1.975614e+000
3.567814e+003,2.010611e+000
3.571671e+003,2.078444e+000
3.575528e+003,2.027540e+000
3.579385e+003,1.964349e+000
3.583242e+003,1.938726e+000
3.587099e+003,1.953967e+000
3.590957e+003,1.936331e+000
3.594813e+003,1.922310e+000
3.598671e+003,2.016468e+000
3.602528e+003,2.109980e+000
3.606385e+003,1.951596e+000
3.610242e+003,1.835940e+000
3.614099e+003,1.796231e+000
3.617956e+003,1.749370e+000
3.621813e+003,1.753696e+000
3.625670e+003,1.742593e+000
3.629527e+003,1.671743e+000
3.633385e+003,1.580894e+000
3.637242e+003,1.505531e+000
3.641099e+003,1.410656e+000
3.644956e+003,1.326196e+000
3.648813e+003,1.243994e+000
3.652670e+003,1.141301e+000
3.656527e+003,1.041514e+000
3.660384e+003,9.550309e-001
3.664241e+003,8.751786e-001
3.668098e+003,8.029293e-001
3.671956e+003,7.275187e-001
3.675813e+003,6.711175e-001
3.679670e+003,6.262884e-001
3.683527e+003,5.831348e-001
3.687384e+003,5.468127e-001
3.691241e+003,5.078608e-001
3.695098e+003,4.760120e-001
3.698955e+003,4.538227e-001
3.702812e+003,4.356358e-001
3.706669e+003,4.164239e-001
3.710526e+003,4.000494e-001
3.714384e+003,3.880090e-001
3.718241e+003,3.757582e-001
3.722098e+003,3.647708e-001
3.725955e+003,3.541164e-001
3.729812e+003,3.444709e-001
3.733669e+003,3.387843e-001
3.737526e+003,3.360270e-001
3.741383e+003,3.318495e-001
3.745240e+003,3.250480e-001
3.749097e+003,3.207666e-001
3.752955e+003,3.216248e-001
3.756812e+003,3.201226e-001
3.760669e+003,3.167571e-001
3.764526e+003,3.157784e-001
3.768383e+003,3.121328e-001
3.772240e+003,3.093293e-001
3.776097e+003,3.078258e-001
3.779954e+003,3.049627e-001
3.783811e+003,3.023948e-001
3.787668e+003,3.021154e-001
3.791525e+003,3.017955e-001
3.795383e+003,3.023264e-001
3.799240e+003,3.022090e-001
3.803097e+003,3.000441e-001
3.806954e+003,2.983794e-001
3.810811e+003,2.958863e-001
3.814668e+003,2.948939e-001
3.818525e+003,2.944142e-001
3.822382e+003,2.930357e-001
3.826239e+003,2.930009e-001
3.830096e+003,2.898597e-001
3.833954e+003,2.888327e-001
3.837811e+003,2.912267e-001
3.841668e+003,2.911425e-001
3.845525e+003,2.879791e-001
3.849382e+003,2.860970e-001
3.853239e+003,2.887573e-001
3.857096e+003,2.918650e-001
3.860953e+003,2.896736e-001
3.864810e+003,2.874997e-001
3.868667e+003,2.880143e-001
3.872524e+003,2.874357e-001
3.876382e+003,2.843222e-001
3.880239e+003,2.811963e-001
3.884096e+003,2.810778e-001
3.887953e+003,2.828490e-001
3.891810e+003,2.825908e-001
3.895667e+003,2.835996e-001
3.899524e+003,2.832004e-001
3.903381e+003,2.812932e-001
3.907238e+003,2.828389e-001
3.911095e+003,2.845995e-001
3.914953e+003,2.864393e-001
3.918810e+003,2.851021e-001
3.922667e+003,2.850247e-001
3.926524e+003,2.857886e-001
3.930381e+003,2.823999e-001
3.934238e+003,2.807876e-001
3.938095e+003,2.792018e-001
3.941952e+003,2.797818e-001
3.945809e+003,2.812850e-001
3.949667e+003,2.815633e-001
3.953523e+003,2.795618e-001
3.957381e+003,2.776058e-001
3.961238e+003,2.756493e-001
3.965095e+003,2.760343e-001
3.968952e+003,2.745046e-001
3.972809e+003,2.743561e-001
3.976666e+003,2.786731e-001
3.980523e+003,2.796659e-001
3.984380e+003,2.783673e-001
3.988237e+003,2.768494e-001
3.992094e+003,2.753894e-001
3.995952e+003,2.755553e-001
3.999809e+003,2.759469e-001
4.003666e+003,2.750016e-001
4.007523e+003,2.755338e-001
4.011380e+003,2.778516e-001
4.015237e+003,2.766191e-001
4.019094e+003,2.740963e-001
4.022951e+003,2.726296e-001
4.026808e+003,2.705127e-001
4.030666e+003,2.676286e-001
4.034522e+003,2.684799e-001
4.038380e+003,2.702164e-001
4.042237e+003,2.703921e-001
4.046094e+003,2.716107e-001
4.049951e+003,2.715435e-001
4.053808e+003,2.709590e-001
4.057665e+003,2.692840e-001
4.061522e+003,2.672985e-001
4.065379e+003,2.645913e-001
4.069236e+003,2.660525e-001
4.073094e+003,2.675200e-001
4.076951e+003,2.688909e-001
4.080808e+003,2.647432e-001
4.084665e+003,2.613077e-001
4.088522e+003,2.640092e-001
4.092379e+003,2.650476e-001
4.096236e+003,2.667552e-001
4.100093e+003,2.652875e-001
4.103950e+003,2.588751e-001
4.107808e+003,2.571798e-001
4.111665e+003,2.584178e-001
4.115521e+003,2.597874e-001
4.119379e+003,2.620848e-001
4.123236e+003,2.637080e-001
4.127093e+003,2.631675e-001
4.130950e+003,2.582127e-001
4.134807e+003,2.537597e-001
4.138664e+003,2.566609e-001
4.142521e+003,2.597007e-001
4.146378e+003,2.580581e-001
4.150235e+003,2.548651e-001
4.154093e+003,2.509363e-001
4.157950e+003,2.491450e-001
4.161807e+003,2.537564e-001
4.165664e+003,2.582333e-001
4.169521e+003,2.559619e-001
4.173378e+003,2.537144e-001
4.177235e+003,2.535141e-001
4.181092e+003,2.516384e-001
4.184949e+003,2.499885e-001
4.188807e+003,2.501397e-001
4.192664e+003,2.500108e-001
4.196521e+003,2.496021e-001
4.200378e+003,2.500898e-001
4.204235e+003,2.498254e-001
4.208092e+003,2.508651e-001
4.211949e+003,2.523333e-001
4.215806e+003,2.513182e-001
4.219663e+003,2.509591e-001
4.223521e+003,2.501591e-001
4.227377e+003,2.491148e-001
4.231234e+003,2.483995e-001
4.235092e+003,2.475075e-001
4.238949e+003,2.447569e-001
4.242806e+003,2.447232e-001
4.246663e+003,2.454956e-001
4.250520e+003,2.477429e-001
4.254377e+003,2.479535e-001
4.258234e+003,2.482119e-001
4.262091e+003,2.480387e-001
4.265948e+003,2.456684e-001
4.269806e+003,2.428284e-001
4.273663e+003,2.427915e-001
4.277520e+003,2.473450e-001
4.281377e+003,2.492277e-001
4.285234e+003,2.503419e-001
4.289091e+003,2.486807e-001
4.292948e+003,2.454051e-001
4.296805e+003,2.449865e-001
4.300662e+003,2.469465e-001
4.304520e+003,2.474410e-001
4.308376e+003,2.439976e-001
4.312233e+003,2.455909e-001
4.316091e+003,2.480234e-001
4.319948e+003,2.484951e-001
4.323805e+003,2.494827e-001
4.327662e+003,2.472280e-001
4.331519e+003,2.452771e-001
4.335376e+003,2.453619e-001
4.339233e+003,2.476714e-001
4.343090e+003,2.492057e-001
4.346947e+003,2.487398e-001
4.350805e+003,2.504541e-001
4.354662e+003,2.533304e-001
4.358519e+003,2.567741e-001
4.362376e+003,2.566881e-001
4.366233e+003,2.510489e-001
4.370090e+003,2.523432e-001
4.373947e+003,2.543269e-001
4.377804e+003,2.522976e-001
4.381661e+003,2.514019e-001
4.385519e+003,2.529902e-001
4.389375e+003,2.515975e-001
4.393232e+003,2.524575e-001
4.397090e+003,2.527377e-001
4.400947e+003,2.516041e-001
4.404804e+003,2.514347e-001
4.408661e+003,2.531355e-001
4.412518e+003,2.535973e-001
4.416375e+003,2.530646e-001
4.420232e+003,2.517248e-001
4.424089e+003,2.551263e-001
4.427946e+003,2.560435e-001
4.431804e+003,2.521920e-001
4.435661e+003,2.559180e-001
4.439518e+003,2.582877e-001
4.443375e+003,2.536133e-001
4.447232e+003,2.514282e-001
4.451089e+003,2.520809e-001
4.454946e+003,2.549198e-001
4.458803e+003,2.577180e-001
4.462660e+003,2.588291e-001
4.466518e+003,2.556583e-001
4.470375e+003,2.538194e-001
4.474231e+003,2.516269e-001
4.478089e+003,2.485499e-001
4.481946e+003,2.475213e-001
4.485803e+003,2.482373e-001
4.489660e+003,2.541510e-001
4.493517e+003,2.584776e-001
4.497375e+003,2.585479e-001
4.501231e+003,2.535046e-001
4.505088e+003,2.490819e-001
4.508946e+003,2.487231e-001
4.512803e+003,2.468598e-001
4.516660e+003,2.490382e-001
4.520517e+003,2.507618e-001
4.524374e+003,2.503514e-001
4.528231e+003,2.513618e-001
4.532088e+003,2.519339e-001
4.535945e+003,2.494757e-001
4.539802e+003,2.476216e-001
4.543660e+003,2.499361e-001
4.547517e+003,2.480945e-001
4.551374e+003,2.457919e-001
4.555231e+003,2.432553e-001
4.559088e+003,2.405411e-001
4.562945e+003,2.388397e-001
4.566802e+003,2.405028e-001
4.570659e+003,2.426752e-001
4.574516e+003,2.418033e-001
4.578374e+003,2.394667e-001
4.582230e+003,2.373700e-001
4.586087e+003,2.415670e-001
4.589945e+003,2.431840e-001
4.593802e+003,2.373579e-001
4.597659e+003,2.372997e-001
4.601516e+003,2.422608e-001
4.605373e+003,2.421094e-001
4.609230e+003,2.393318e-001
4.613087e+003,2.430082e-001
4.616944e+003,2.439094e-001
4.620801e+003,2.404819e-001
4.624659e+003,2.408255e-001
4.628516e+003,2.398256e-001
4.632373e+003,2.382798e-001
4.636230e+003,2.377203e-001
4.640087e+003,2.383974e-001
4.643944e+003,2.412696e-001
4.647801e+003,2.385918e-001
4.651658e+003,2.389683e-001
4.655515e+003,2.415435e-001
4.659373e+003,2.400372e-001
4.663229e+003,2.395215e-001
4.667086e+003,2.394800e-001
4.670944e+003,2.382997e-001
4.674801e+003,2.433244e-001
4.678658e+003,2.456728e-001
4.682515e+003,2.452930e-001
4.686372e+003,2.429466e-001
4.690229e+003,2.384659e-001
4.694086e+003,2.380356e-001
4.697943e+003,2.423219e-001
4.701800e+003,2.450285e-001
4.705658e+003,2.403260e-001
4.709515e+003,2.384250e-001
4.713372e+003,2.379369e-001
4.717229e+003,2.372027e-001
4.721086e+003,2.361907e-001
4.724943e+003,2.362977e-001
4.728800e+003,2.376596e-001
4.732657e+003,2.335757e-001
4.736514e+003,2.335783e-001
4.740372e+003,2.419882e-001
4.744229e+003,2.427560e-001
4.748085e+003,2.384410e-001
4.751943e+003,2.391602e-001
4.755800e+003,2.388858e-001
4.759657e+003,2.369431e-001
4.763514e+003,2.355322e-001
4.767371e+003,2.399699e-001
4.771228e+003,2.450412e-001
4.775085e+003,2.387028e-001
4.778942e+003,2.395254e-001
4.782799e+003,2.446439e-001
4.786657e+003,2.452274e-001
4.790514e+003,2.405906e-001
4.794371e+003,2.389884e-001
4.798228e+003,2.418779e-001
4.802085e+003,2.459071e-001
4.805942e+003,2.421704e-001
4.809799e+003,2.348423e-001
4.813656e+003,2.358369e-001
4.817513e+003,2.394686e-001
4.821371e+003,2.414723e-001
4.825228e+003,2.386109e-001
4.829084e+003,2.423741e-001
4.832942e+003,2.441099e-001
4.836799e+003,2.448673e-001
4.840656e+003,2.479626e-001
4.844513e+003,2.520500e-001
4.848370e+003,2.519913e-001
4.852227e+003,2.486257e-001
4.856084e+003,2.449048e-001
4.859941e+003,2.423424e-001
4.863798e+003,2.413960e-001
4.867656e+003,2.473336e-001
4.871513e+003,2.481918e-001
4.875370e+003,2.473632e-001
4.879227e+003,2.430271e-001
4.883084e+003,2.392127e-001
4.886941e+003,2.345856e-001
4.890798e+003,2.363845e-001
4.894655e+003,2.398198e-001
4.898512e+003,2.435443e-001
4.902370e+003,2.479397e-001
4.906227e+003,2.462726e-001
4.910083e+003,2.436565e-001
4.913941e+003,2.456606e-001
4.917798e+003,2.478428e-001
4.921655e+003,2.441575e-001
4.925512e+003,2.439502e-001
4.929369e+003,2.446831e-001
4.933226e+003,2.490931e-001
4.937083e+003,2.505765e-001
4.940940e+003,2.421832e-001
4.944797e+003,2.379932e-001
4.948655e+003,2.438188e-001
4.952512e+003,2.502516e-001
4.956369e+003,2.499416e-001
4.960226e+003,2.455917e-001
4.964083e+003,2.453170e-001
4.967940e+003,2.471875e-001
4.971797e+003,2.452834e-001
4.975654e+003,2.419856e-001
4.979511e+003,2.397909e-001
4.983369e+003,2.424479e-001
4.987226e+003,2.427104e-001
4.991083e+003,2.462849e-001
4.994940e+003,2.477003e-001
4.998797e+003,2.470709e-001
5.002654e+003,2.485587e-001
5.006511e+003,2.507437e-001
5.010368e+003,2.530785e-001
5.014225e+003,2.498122e-001
5.018083e+003,2.497978e-001
5.021939e+003,2.507098e-001
5.025796e+003,2.490236e-001
5.029654e+003,2.530766e-001
5.033511e+003,2.511126e-001
5.037368e+003,2.458168e-001
5.041225e+003,2.472275e-001
5.045082e+003,2.433809e-001
5.048939e+003,2.412475e-001
5.052796e+003,2.436602e-001
5.056653e+003,2.490492e-001
5.060510e+003,2.498797e-001
5.064368e+003,2.503970e-001
5.068225e+003,2.483622e-001
5.072082e+003,2.530193e-001
5.075939e+003,2.575871e-001
5.079796e+003,2.592394e-001
5.083653e+003,2.561069e-001
5.087510e+003,2.526250e-001
5.091367e+003,2.525523e-001
5.095224e+003,2.559349e-001
5.099082e+003,2.584164e-001
5.102938e+003,2.560873e-001
5.106795e+003,2.558225e-001
5.110653e+003,2.585150e-001
5.114510e+003,2.564285e-001
5.118367e+003,2.480740e-001
5.122224e+003,2.489482e-001
5.126081e+003,2.531407e-001
5.129938e+003,2.524925e-001
5.133795e+003,2.565704e-001
5.137652e+003,2.559290e-001
5.141509e+003,2.574757e-001
5.145367e+003,2.601756e-001
5.149224e+003,2.591448e-001
5.153081e+003,2.596521e-001
5.156938e+003,2.591735e-001
5.160795e+003,2.563167e-001
5.164652e+003,2.636069e-001
5.168509e+003,2.703896e-001
5.172366e+003,2.690105e-001
5.176223e+003,2.629452e-001
5.180081e+003,2.619582e-001
5.183938e+003,2.580911e-001
5.187794e+003,2.605849e-001
5.191652e+003,2.641056e-001
5.195509e+003,2.625647e-001
5.199366e+003,2.633451e-001
5.203223e+003,2.690110e-001
5.207080e+003,2.652181e-001
5.210937e+003,2.629143e-001
5.214794e+003,2.607648e-001
5.218651e+003,2.589537e-001
5.222508e+003,2.568624e-001
5.226366e+003,2.585994e-001
5.230223e+003,2.639515e-001
5.234080e+003,2.637824e-001
5.237937e+003,2.586068e-001
5.241794e+003,2.528847e-001
5.245651e+003,2.547609e-001
5.249508e+003,2.587829e-001
5.253365e+003,2.613620e-001
5.257222e+003,2.591947e-001
5.261080e+003,2.519362e-001
5.264937e+003,2.470018e-001
5.268793e+003,2.518052e-001
5.272651e+003,2.554395e-001
5.276508e+003,2.480468e-001
5.280365e+003,2.408566e-001
5.284222e+003,2.413803e-001
5.288079e+003,2.477275e-001
5.291936e+003,2.447430e-001
5.295793e+003,2.423423e-001
5.299650e+003,2.414041e-001
5.303507e+003,2.422051e-001
5.307365e+003,2.436174e-001
5.311222e+003,2.412507e-001
5.315079e+003,2.413587e-001
5.318936e+003,2.421292e-001
5.322793e+003,2.372788e-001
5.326650e+003,2.345618e-001
5.330507e+003,2.386152e-001
5.334364e+003,2.426352e-001
5.338221e+003,2.423607e-001
5.342079e+003,2.440228e-001
5.345936e+003,2.439687e-001
5.349792e+003,2.372787e-001
5.353650e+003,2.342683e-001
5.357507e+003,2.337204e-001
5.361364e+003,2.333921e-001
5.365221e+003,2.362850e-001
5.369078e+003,2.380419e-001
5.372935e+003,2.421466e-001
5.376792e+003,2.446725e-001
5.380649e+003,2.446408e-001
5.384506e+003,2.399122e-001
5.388364e+003,2.366341e-001
5.392221e+003,2.348047e-001
5.396078e+003,2.308098e-001
5.399935e+003,2.347398e-001
5.403792e+003,2.426879e-001
5.407649e+003,2.402333e-001
5.411506e+003,2.340145e-001
5.415363e+003,2.379141e-001
5.419220e+003,2.402993e-001
5.423078e+003,2.389520e-001
5.426935e+003,2.337510e-001
5.430792e+003,2.305681e-001
5.434649e+003,2.338723e-001
5.438506e+003,2.402402e-001
5.442363e+003,2.469386e-001
5.446220e+003,2.456553e-001
5.450077e+003,2.420317e-001
5.453934e+003,2.401944e-001
5.457792e+003,2.421490e-001
5.461648e+003,2.406940e-001
5.465505e+003,2.352521e-001
5.469363e+003,2.346583e-001
5.473220e+003,2.396273e-001
5.477077e+003,2.463152e-001
5.480934e+003,2.456334e-001
5.484791e+003,2.372604e-001
5.488648e+003,2.319335e-001
5.492505e+003,2.319053e-001
5.496362e+003,2.360222e-001
5.500219e+003,2.381795e-001
5.504077e+003,2.370578e-001
5.507934e+003,2.388225e-001
5.511791e+003,2.363928e-001
5.515648e+003,2.323038e-001
5.519505e+003,2.371729e-001
5.523362e+003,2.458527e-001
5.527219e+003,2.438569e-001
5.531076e+003,2.411376e-001
5.534933e+003,2.493266e-001
5.538791e+003,2.442239e-001
5.542647e+003,2.321793e-001
5.546504e+003,2.302340e-001
5.550362e+003,2.328506e-001
5.554219e+003,2.365310e-001
5.558076e+003,2.355250e-001
5.561933e+003,2.302950e-001
5.565790e+003,2.335504e-001
5.569647e+003,2.397051e-001
5.573504e+003,2.436956e-001
5.577361e+003,2.418510e-001
5.581218e+003,2.359898e-001
5.585076e+003,2.380211e-001
5.588933e+003,2.437071e-001
5.592790e+003,2.438825e-001
5.596647e+003,2.429989e-001
5.600504e+003,2.336397e-001
5.604361e+003,2.327852e-001
5.608218e+003,2.301734e-001
5.612075e+003,2.334906e-001
5.615932e+003,2.411302e-001
5.619790e+003,2.432595e-001
5.623646e+003,2.423308e-001
5.627503e+003,2.367069e-001
5.631361e+003,2.295519e-001
5.635218e+003,2.265615e-001
5.639075e+003,2.320893e-001
5.642932e+003,2.323731e-001
5.646789e+003,2.334322e-001
5.650646e+003,2.369593e-001
5.654503e+003,2.391287e-001
5.658360e+003,2.357949e-001
5.662217e+003,2.420760e-001
5.666075e+003,2.355353e-001
5.669932e+003,2.270904e-001
5.673789e+003,2.254087e-001
5.677646e+003,2.281596e-001
5.681503e+003,2.334377e-001
5.685360e+003,2.387787e-001
5.689217e+003,2.355818e-001
5.693074e+003,2.332196e-001
5.696931e+003,2.371310e-001
5.700789e+003,2.384152e-001
5.704646e+003,2.391663e-001
5.708502e+003,2.368753e-001
5.712360e+003,2.314036e-001
5.716217e+003,2.283663e-001
5.720074e+003,2.347148e-001
5.723931e+003,2.394775e-001
5.727788e+003,2.289525e-001
5.731645e+003,2.190659e-001
5.735502e+003,2.253106e-001
5.739359e+003,2.271608e-001
5.743216e+003,2.248395e-001
5.747074e+003,2.273692e-001
5.750931e+003,2.304642e-001
5.754788e+003,2.340678e-001
5.758645e+003,2.296036e-001
5.762502e+003,2.275924e-001
5.766359e+003,2.262450e-001
5.770216e+003,2.206732e-001
5.774073e+003,2.199879e-001
5.777930e+003,2.254458e-001
5.781788e+003,2.284480e-001
5.785645e+003,2.326181e-001
5.789501e+003,2.301396e-001
5.793359e+003,2.276399e-001
5.797216e+003,2.330898e-001
5.801073e+003,2.357092e-001
5.804930e+003,2.283426e-001
5.808787e+003,2.230634e-001
5.812644e+003,2.292165e-001
5.816501e+003,2.343701e-001
5.820358e+003,2.374402e-001
5.824215e+003,2.311994e-001
5.828073e+003,2.283859e-001
5.831930e+003,2.316751e-001
5.835787e+003,2.252059e-001
5.839644e+003,2.237366e-001
5.843501e+003,2.241234e-001
5.847358e+003,2.218053e-001
5.851215e+003,2.220716e-001
5.855072e+003,2.286692e-001
5.858929e+003,2.284995e-001
5.862787e+003,2.287565e-001
5.866644e+003,2.294957e-001
5.870500e+003,2.312068e-001
5.874358e+003,2.282900e-001
5.878215e+003,2.213314e-001
5.882072e+003,2.259431e-001
5.885929e+003,2.308917e-001
5.889786e+003,2.307334e-001
5.893643e+003,2.294136e-001
5.897500e+003,2.233410e-001
5.901357e+003,2.231036e-001
5.905214e+003,2.231716e-001
5.909072e+003,2.275498e-001
5.912929e+003,2.293072e-001
5.916786e+003,2.239020e-001
5.920643e+003,2.210701e-001
5.924500e+003,2.249592e-001
5.928357e+003,2.239995e-001
5.932214e+003,2.183862e-001
5.936071e+003,2.152455e-001
5.939928e+003,2.161729e-001
5.943786e+003,2.216805e-001
5.947643e+003,2.283948e-001
5.951500e+003,2.279675e-001
5.955357e+003,2.216700e-001
5.959214e+003,2.177137e-001
5.963071e+003,2.164709e-001
5.966928e+003,2.220743e-001
5.970785e+003,2.186352e-001
5.974642e+003,2.210186e-001
5.978500e+003,2.277332e-001
5.982356e+003,2.251829e-001
5.986213e+003,2.214750e-001
5.990071e+003,2.195015e-001
5.993928e+003,2.190669e-001
5.997785e+003,2.171017e-001
6.001642e+003,2.195619e-001
6.005499e+003,2.185503e-001
6.009356e+003,2.211625e-001
6.013213e+003,2.221508e-001
6.017070e+003,2.263644e-001
6.020927e+003,2.323526e-001
6.024785e+003,2.314575e-001
6.028642e+003,2.259523e-001
6.032499e+003,2.179412e-001
6.036356e+003,2.179636e-001
6.040213e+003,2.198618e-001
6.044070e+003,2.226561e-001
6.047927e+003,2.306032e-001
6.051784e+003,2.327205e-001
6.055641e+003,2.287034e-001
6.059499e+003,2.228907e-001
6.063355e+003,2.241758e-001
6.067212e+003,2.170509e-001
6.071070e+003,2.147721e-001
6.074927e+003,2.168275e-001
6.078784e+003,2.143584e-001
6.082641e+003,2.185938e-001
6.086498e+003,2.245820e-001
6.090355e+003,2.218225e-001
6.094212e+003,2.198825e-001
6.098069e+003,2.266404e-001
6.101926e+003,2.319838e-001
6.105784e+003,2.223113e-001
6.109641e+003,2.089284e-001
6.113498e+003,2.090629e-001
6.117355e+003,2.118230e-001
6.121212e+003,2.132277e-001
6.125069e+003,2.185844e-001
6.128926e+003,2.267599e-001
6.132783e+003,2.288751e-001
6.136640e+003,2.176450e-001
6.140498e+003,2.225483e-001
6.144354e+003,2.238171e-001
6.148211e+003,2.266201e-001
6.152069e+003,2.281113e-001
6.155926e+003,2.254008e-001
6.159783e+003,2.215377e-001
6.163640e+003,2.206320e-001
6.167497e+003,2.305714e-001
6.171354e+003,2.254858e-001
6.175211e+003,2.202484e-001
6.179068e+003,2.146395e-001
6.182925e+003,2.032580e-001
6.186783e+003,2.057342e-001
6.190640e+003,2.094716e-001
6.194497e+003,2.055314e-001
6.198354e+003,2.084232e-001
6.202211e+003,2.098658e-001
6.206068e+003,2.125245e-001
6.209925e+003,2.167572e-001
6.213782e+003,2.125650e-001
6.217639e+003,2.182250e-001
6.221497e+003,2.201360e-001
6.225354e+003,2.141973e-001
6.229210e+003,2.121160e-001
6.233068e+003,2.036178e-001
6.236925e+003,1.977848e-001
6.240782e+003,2.106430e-001
6.244639e+003,2.158408e-001
6.248496e+003,2.145298e-001
6.252353e+003,2.134203e-001
6.256210e+003,2.226204e-001
6.260067e+003,2.302733e-001
6.263924e+003,2.211316e-001
6.267782e+003,2.155624e-001
6.271639e+003,2.113970e-001
6.275496e+003,2.049608e-001
6.279353e+003,2.101624e-001
6.283210e+003,2.203088e-001
6.287067e+003,2.185669e-001
6.290924e+003,2.117465e-001
6.294781e+003,2.164015e-001
6.298638e+003,2.260884e-001
6.302496e+003,2.317021e-001
6.306353e+003,2.304788e-001
6.310209e+003,2.253991e-001
6.314067e+003,2.189530e-001
6.317924e+003,2.169867e-001
6.321781e+003,2.192060e-001
6.325638e+003,2.201009e-001
6.329495e+003,2.194527e-001
6.333352e+003,2.147987e-001
6.337209e+003,2.112980e-001
6.341066e+003,2.121867e-001
6.344923e+003,2.106265e-001
6.348780e+003,2.095546e-001
6.352638e+003,2.085010e-001
6.356495e+003,2.109020e-001
6.360352e+003,2.095970e-001
6.364209e+003,2.145076e-001
6.368066e+003,2.267555e-001
6.371923e+003,2.279130e-001
6.375780e+003,2.261975e-001
6.379637e+003,2.161980e-001
6.383494e+003,2.130782e-001
6.387352e+003,2.126161e-001
6.391208e+003,2.165873e-001
6.395065e+003,2.273584e-001
6.398923e+003,2.274292e-001
6.402780e+003,2.271892e-001
6.406637e+003,2.254439e-001
6.410494e+003,2.141583e-001
6.414351e+003,2.090328e-001
6.418208e+003,2.062972e-001
6.422065e+003,2.019838e-001
6.425922e+003,2.081267e-001
6.429779e+003,2.104525e-001
6.433637e+003,2.158922e-001
6.437494e+003,2.143719e-001
6.441351e+003,2.157368e-001
6.445208e+003,2.182270e-001
6.449065e+003,2.170291e-001
6.452922e+003,2.127127e-001
6.456779e+003,2.109454e-001
6.460636e+003,2.133143e-001
6.464493e+003,2.181027e-001
6.468351e+003,2.233154e-001
6.472208e+003,2.266803e-001
6.476064e+003,2.239064e-001
6.479922e+003,2.131486e-001
6.483779e+003,2.067612e-001
6.487636e+003,2.163528e-001
6.491493e+003,2.185614e-001
6.495350e+003,2.163879e-001
6.499207e+003,2.227728e-001
6.503064e+003,2.223022e-001
6.506921e+003,2.241552e-001
6.510778e+003,2.270140e-001
6.514636e+003,2.259561e-001
6.518493e+003,2.287843e-001
6.522350e+003,2.239496e-001
6.526207e+003,2.175887e-001
6.530064e+003,2.272564e-001
6.533921e+003,2.281547e-001
6.537778e+003,2.241269e-001
6.541635e+003,2.250717e-001
6.545492e+003,2.165472e-001
6.549350e+003,2.073854e-001
6.553207e+003,2.159941e-001
6.557063e+003,2.172533e-001
6.560921e+003,2.231453e-001
6.564778e+003,2.165782e-001
6.568635e+003,2.163076e-001
6.572492e+003,2.300376e-001
6.576349e+003,2.319904e-001
6.580206e+003,2.229954e-001
6.584063e+003,2.250835e-001
6.587920e+003,2.281738e-001
6.591777e+003,2.175173e-001
6.595635e+003,2.025284e-001
6.599492e+003,2.165428e-001
6.603349e+003,2.154101e-001
6.607206e+003,2.075888e-001
6.611063e+003,2.212409e-001
6.614920e+003,2.369827e-001
6.618777e+003,2.294527e-001
6.622634e+003,2.246828e-001
6.626491e+003,2.405483e-001
6.630349e+003,2.411924e-001
6.634206e+003,2.252169e-001
6.638063e+003,2.268003e-001
6.641920e+003,2.393852e-001
6.645777e+003,2.282011e-001
6.649634e+003,2.097568e-001
6.653491e+003,2.156955e-001
6.657348e+003,2.207239e-001
6.661205e+003,2.118165e-001
6.665063e+003,2.170482e-001
6.668919e+003,2.229610e-001
6.672776e+003,2.341776e-001
6.676634e+003,2.479975e-001
6.680491e+003,2.491774e-001
6.684348e+003,2.376940e-001
6.688205e+003,2.240778e-001
6.692062e+003,2.292990e-001
6.695919e+003,2.402432e-001
6.699776e+003,2.315671e-001
6.703633e+003,2.180165e-001
6.707490e+003,2.378180e-001
6.711348e+003,2.484542e-001
6.715205e+003,2.276631e-001
6.719062e+003,2.072575e-001
6.722919e+003,2.198179e-001
6.726776e+003,2.393901e-001
6.730633e+003,2.457841e-001
6.734490e+003,2.393738e-001
6.738347e+003,2.416645e-001
6.742204e+003,2.345698e-001
6.746062e+003,2.323466e-001
6.749918e+003,2.437681e-001
6.753775e+003,2.410906e-001
6.757633e+003,2.416364e-001
6.761490e+003,2.212095e-001
6.765347e+003,2.201767e-001
6.769204e+003,2.264058e-001
6.773061e+003,2.230951e-001
6.776918e+003,2.143408e-001
6.780775e+003,2.154798e-001
6.784632e+003,2.192669e-001
6.788489e+003,2.249943e-001
6.792347e+003,2.206357e-001
6.796204e+003,2.092627e-001
6.800061e+003,2.238410e-001
6.803918e+003,2.412948e-001
6.807775e+003,2.362512e-001
6.811632e+003,2.369619e-001
6.815489e+003,2.419270e-001
6.819346e+003,2.395286e-001
6.823203e+003,2.467831e-001
6.827061e+003,2.395111e-001
6.830917e+003,2.094585e-001
6.834774e+003,2.031282e-001
6.838632e+003,2.361565e-001
6.842489e+003,2.517186e-001
6.846346e+003,2.362242e-001
6.850203e+003,2.225313e-001
6.854060e+003,2.216814e-001
6.857917e+003,2.170124e-001
6.861774e+003,2.157868e-001
6.865631e+003,2.319615e-001
6.869488e+003,2.365507e-001
6.873346e+003,2.401727e-001
6.877203e+003,2.368482e-001
6.881060e+003,2.426921e-001
6.884917e+003,2.523637e-001
6.888774e+003,2.447270e-001
6.892631e+003,2.450463e-001
6.896488e+003,2.355016e-001
6.900345e+003,2.353734e-001
6.904202e+003,2.480870e-001
6.908060e+003,2.548998e-001
6.911917e+003,2.407042e-001
6.915773e+003,2.426629e-001
6.919631e+003,2.393352e-001
6.923488e+003,2.350186e-001
6.927345e+003,2.440349e-001
6.931202e+003,2.486869e-001
6.935059e+003,2.519241e-001
6.938916e+003,2.508605e-001
6.942773e+003,2.225807e-001
6.946630e+003,2.172106e-001
6.950487e+003,2.501373e-001
6.954345e+003,2.577075e-001
6.958202e+003,2.384420e-001
6.962059e+003,2.352615e-001
6.965916e+003,2.414507e-001
6.969773e+003,2.227521e-001
6.973630e+003,2.085654e-001
6.977487e+003,2.306778e-001
6.981344e+003,2.445276e-001
6.985201e+003,2.513408e-001
6.989059e+003,2.517631e-001
6.992916e+003,2.422610e-001
6.996772e+003,2.591148e-001
7.000630e+003,2.586187e-001
7.004487e+003,2.469937e-001
7.008344e+003,2.291566e-001
7.012201e+003,2.180791e-001
7.016058e+003,2.247111e-001
7.019915e+003,2.331211e-001
7.023772e+003,2.522753e-001
7.027629e+003,2.651623e-001
7.031486e+003,2.576500e-001
7.035344e+003,2.671013e-001
7.039201e+003,2.814787e-001
7.043058e+003,2.657390e-001
7.046915e+003,2.529998e-001
7.050772e+003,2.697519e-001
7.054629e+003,2.856161e-001
7.058486e+003,2.711975e-001
7.062343e+003,2.505183e-001
7.066200e+003,2.502084e-001
7.070058e+003,2.525860e-001
7.073915e+003,2.546245e-001
7.077771e+003,2.503385e-001
7.081629e+003,2.535247e-001
7.085486e+003,2.538587e-001
7.089343e+003,2.596612e-001
7.093200e+003,2.533333e-001
7.097057e+003,2.603478e-001
7.100914e+003,2.865429e-001
7.104771e+003,2.991760e-001
7.108628e+003,3.015068e-001
7.112485e+003,3.078799e-001
7.116343e+003,2.770535e-001
7.120200e+003,2.376695e-001
7.124057e+003,2.447791e-001
7.127914e+003,2.683346e-001
7.131771e+003,2.728663e-001
7.135628e+003,2.641832e-001
7.139485e+003,2.646644e-001
7.143342e+003,2.533231e-001
7.147199e+003,2.234641e-001
7.151057e+003,2.363404e-001
7.154914e+003,2.602142e-001
7.158771e+003,2.723555e-001
7.162628e+003,2.838245e-001
7.166485e+003,2.707920e-001
7.170342e+003,2.476738e-001
7.174199e+003,2.499315e-001
7.178056e+003,2.545836e-001
7.181913e+003,2.450023e-001
7.185771e+003,2.752136e-001
7.189627e+003,2.785753e-001
7.193484e+003,2.428973e-001
7.197342e+003,2.378878e-001
7.201199e+003,2.535268e-001
7.205056e+003,2.776737e-001
7.208913e+003,2.698542e-001
7.212770e+003,2.427879e-001
7.216627e+003,2.335794e-001
7.220484e+003,2.591684e-001
7.224341e+003,2.639147e-001
7.228198e+003,2.738351e-001
7.232056e+003,2.650798e-001
7.235913e+003,2.190089e-001
7.239770e+003,2.197299e-001
7.243627e+003,2.663165e-001
7.247484e+003,2.626608e-001
7.251341e+003,2.640516e-001
7.255198e+003,2.703955e-001
7.259055e+003,2.462660e-001
7.262912e+003,2.571972e-001
7.266770e+003,2.767487e-001
7.270626e+003,2.750857e-001
7.274483e+003,2.959208e-001
7.278341e+003,3.098710e-001
7.282198e+003,2.713949e-001
7.286055e+003,2.877159e-001
7.289912e+003,3.003197e-001
7.293769e+003,2.557996e-001
7.297626e+003,2.433943e-001
7.301483e+003,2.286411e-001
7.305340e+003,2.318658e-001
7.309197e+003,2.419832e-001
7.313055e+003,2.463149e-001
7.316912e+003,2.584707e-001
7.320769e+003,2.845961e-001
7.324626e+003,3.007741e-001
7.328483e+003,3.043124e-001
7.332340e+003,2.942285e-001
7.336197e+003,2.721192e-001
7.340054e+003,2.583035e-001
7.343911e+003,2.557217e-001
7.347769e+003,2.651202e-001
7.351625e+003,2.756857e-001
7.355482e+003,2.786629e-001
7.359340e+003,2.939482e-001
7.363197e+003,2.908908e-001
7.367054e+003,2.595432e-001
7.370911e+003,2.384715e-001
7.374768e+003,2.631585e-001
7.378625e+003,3.051040e-001
7.382482e+003,3.132852e-001
7.386339e+003,2.936231e-001
7.390196e+003,2.554965e-001
7.394054e+003,2.615094e-001
7.397911e+003,2.739850e-001
7.401768e+003,2.858697e-001
7.405625e+003,3.018084e-001
7.409482e+003,3.026706e-001
7.413339e+003,2.820552e-001
7.417196e+003,2.605147e-001
7.421053e+003,2.441458e-001
7.424910e+003,2.679948e-001
7.428768e+003,2.743298e-001
7.432625e+003,2.413441e-001
7.436481e+003,2.554307e-001
7.440339e+003,2.892815e-001
7.444196e+003,2.976747e-001
7.448053e+003,2.968668e-001
7.451910e+003,2.967029e-001
7.455767e+003,2.605105e-001
7.459624e+003,2.246221e-001
7.463481e+003,2.424253e-001
7.467338e+003,2.744160e-001
7.471195e+003,2.936874e-001
7.475053e+003,2.896099e-001
7.478910e+003,2.874169e-001
7.482767e+003,2.660021e-001
7.486624e+003,3.035623e-001
7.490481e+003,3.113691e-001
7.494338e+003,2.784073e-001
7.498195e+003,2.544250e-001
7.502052e+003,2.476939e-001
7.505909e+003,2.957906e-001
7.509767e+003,3.250267e-001
7.513624e+003,2.617594e-001
7.517480e+003,2.557265e-001
7.521338e+003,2.681065e-001
7.525195e+003,2.692057e-001
7.529052e+003,2.706827e-001
7.532909e+003,2.679839e-001
7.536766e+003,2.445978e-001
7.540623e+003,2.586093e-001
7.544480e+003,2.738250e-001
7.548337e+003,2.682215e-001
7.552194e+003,2.771544e-001
7.556052e+003,2.524547e-001
7.559909e+003,2.347388e-001
7.563766e+003,2.429773e-001
7.567623e+003,2.515800e-001
7.571480e+003,2.594059e-001
7.575337e+003,2.372466e-001
7.579194e+003,2.182769e-001
7.583051e+003,2.263403e-001
7.586908e+003,2.254993e-001
7.590766e+003,2.310124e-001
7.594623e+003,2.347538e-001
7.598479e+003,2.589745e-001
7.602337e+003,2.892507e-001
7.606194e+003,3.010554e-001
7.610051e+003,3.377050e-001
7.613908e+003,3.186373e-001
7.617765e+003,2.579830e-001
7.621622e+003,2.467996e-001
7.625479e+003,3.030639e-001
7.629336e+003,3.419822e-001
7.633193e+003,3.285524e-001
7.637051e+003,3.113013e-001
7.640908e+003,3.061641e-001
7.644765e+003,3.334450e-001
7.648622e+003,2.732276e-001
7.652479e+003,2.402831e-001
7.656336e+003,3.056275e-001
7.660193e+003,3.325236e-001
7.664050e+003,2.573601e-001
7.667907e+003,2.109352e-001
7.671765e+003,2.619563e-001
7.675622e+003,3.181914e-001
7.679479e+003,3.232921e-001
7.683336e+003,2.817233e-001
7.687193e+003,2.885163e-001
7.691050e+003,3.166129e-001
7.694907e+003,3.139433e-001
7.698764e+003,2.795937e-001
7.702621e+003,2.800856e-001
7.706479e+003,2.855607e-001
7.710335e+003,2.782069e-001
7.714192e+003,2.954590e-001
7.718050e+003,3.162485e-001
7.721907e+003,2.751225e-001
7.725764e+003,2.718471e-001
7.729621e+003,2.441906e-001
7.733478e+003,2.014677e-001
7.737335e+003,2.369948e-001
7.741192e+003,3.099466e-001
7.745049e+003,3.447014e-001
7.748906e+003,2.869336e-001
7.752764e+003,2.702318e-001
7.756621e+003,3.017082e-001
7.760478e+003,3.028201e-001
7.764335e+003,3.086989e-001
7.768192e+003,3.325973e-001
7.772049e+003,3.726020e-001
7.775906e+003,3.563733e-001
7.779763e+003,2.752428e-001
7.783620e+003,2.170848e-001
7.787478e+003,2.149730e-001
7.791334e+003,2.191726e-001
7.795191e+003,2.530752e-001
7.799049e+003,3.366957e-001
7.802906e+003,3.695270e-001
7.806763e+003,3.137931e-001
7.810620e+003,2.862681e-001
7.814477e+003,3.038253e-001
7.818334e+003,3.265980e-001
7.822191e+003,4.012511e-001
7.826048e+003,3.639595e-001
7.829905e+003,3.029690e-001
7.833763e+003,2.620181e-001
7.837620e+003,3.222185e-001
7.841477e+003,3.398077e-001
7.845334e+003,2.775314e-001
7.849191e+003,2.232240e-001
7.853048e+003,1.949807e-001
7.856905e+003,2.179003e-001
7.860762e+003,2.621728e-001
7.864619e+003,2.596454e-001
7.868477e+003,2.916804e-001
7.872333e+003,3.266847e-001
7.876190e+003,3.288069e-001
7.880048e+003,2.852779e-001
7.883905e+003,2.520018e-001
7.887762e+003,2.841698e-001
7.891619e+003,3.045432e-001
7.895476e+003,3.066012e-001
7.899333e+003,2.759307e-001
7.903190e+003,3.405369e-001
7.907047e+003,3.737541e-001
7.910904e+003,3.209773e-001
7.914762e+003,2.714065e-001
7.918619e+003,3.304192e-001
7.922476e+003,3.451546e-001
7.926333e+003,2.762325e-001
7.930190e+003,2.590300e-001
7.934047e+003,2.876478e-001
7.937904e+003,3.562972e-001
7.941761e+003,4.597125e-001
7.945618e+003,4.084952e-001
7.949476e+003,3.661542e-001
7.953333e+003,3.633860e-001
7.957189e+003,3.192030e-001
7.961047e+003,2.853997e-001
7.964904e+003,3.112008e-001
7.968761e+003,2.960309e-001
7.972618e+003,2.748059e-001
7.976475e+003,3.009381e-001
7.980332e+003,3.390075e-001
7.984189e+003,2.611800e-001
7.988046e+003,2.574365e-001
7.991903e+003,3.907682e-001
7.995761e+003,3.986668e-001
7.999618e+003,3.191925e-001
