4.011380e+002,6.000000e+000
4.049951e+002,6.000000e+000
4.088522e+002,6.000000e+000
4.127093e+002,6.000000e+000
4.165664e+002,6.000000e+000
4.204235e+002,-4.705091e-001
4.242806e+002,6.000000e+000
4.281377e+002,-4.658179e-001
4.319948e+002,6.000000e+000
4.358519e+002,-2.824678e-001
4.397090e+002,6.000000e+000
4.435661e+002,6.000000e+000
4.474232e+002,6.000000e+000
4.512803e+002,6.000000e+000
4.551374e+002,6.000000e+000
4.589945e+002,6.000000e+000
4.628516e+002,6.000000e+000
4.667087e+002,6.000000e+000
4.705658e+002,-6.967267e-001
4.744229e+002,4.648959e-001
4.782800e+002,3.418408e-001
4.821371e+002,-9.119131e-002
4.859941e+002,-3.385943e-002
4.898513e+002,6.000000e+000
4.937083e+002,1.821990e+000
4.975654e+002,4.349334e-001
5.014225e+002,6.000000e+000
5.052796e+002,6.000000e+000
5.091367e+002,6.000000e+000
5.129938e+002,6.000000e+000
5.168509e+002,-5.824487e-001
5.207080e+002,-4.016278e-001
5.245651e+002,-3.045253e-001
5.284222e+002,6.100889e-001
5.322793e+002,2.776415e-001
5.361364e+002,-5.578508e-001
5.399935e+002,6.000000e+000
5.438506e+002,6.000000e+000
5.477077e+002,-1.029404e-001
5.515648e+002,3.551343e-001
5.554219e+002,4.548500e-001
5.592790e+002,-2.253266e-001
5.631361e+002,2.692874e-001
5.669932e+002,1.244110e+000
5.708503e+002,-1.125232e+000
5.747074e+002,-1.337824e+000
5.785645e+002,-2.695398e-001
5.824216e+002,6.000000e+000
5.862787e+002,6.000000e+000
5.901357e+002,6.000000e+000
5.939929e+002,6.000000e+000
5.978499e+002,6.000000e+000
6.017070e+002,6.000000e+000
6.055641e+002,6.000000e+000
6.094212e+002,7.802831e-002
6.132783e+002,-2.306880e-001
6.171354e+002,-4.061138e-002
6.209925e+002,-1.010664e+000
6.248496e+002,6.000000e+000
6.287067e+002,6.000000e+000
6.325638e+002,6.000000e+000
6.364209e+002,-6.352108e-001
6.402780e+002,7.418459e-003
6.441351e+002,8.373676e-001
6.479922e+002,6.000000e+000
6.518493e+002,5.843189e-001
6.557064e+002,-2.428535e-001
6.595635e+002,-3.633133e-001
6.634205e+002,6.000000e+000
6.672777e+002,1.410387e-001
6.711348e+002,6.000000e+000
6.749918e+002,9.878187e-001
6.788490e+002,6.000000e+000
6.827061e+002,6.000000e+000
6.865631e+002,6.000000e+000
6.904203e+002,7.982994e-002
6.942773e+002,7.685822e-001
6.981344e+002,4.313129e-001
7.019916e+002,6.000000e+000
7.058486e+002,-8.153524e-001
7.097057e+002,6.000000e+000
7.135629e+002,6.000000e+000
7.174199e+002,3.921516e-001
7.212770e+002,6.000000e+000
7.251342e+002,1.650962e+000
7.289912e+002,1.951687e-001
7.328483e+002,6.000000e+000
7.367054e+002,6.000000e+000
7.405625e+002,4.242238e-001
7.444196e+002,3.865449e-001
7.482767e+002,6.000000e+000
7.521338e+002,6.000000e+000
7.559908e+002,-4.159021e-001
7.598480e+002,6.000000e+000
7.637051e+002,6.000000e+000
7.675621e+002,-3.674406e-001
7.714193e+002,6.000000e+000
7.752764e+002,1.215693e+000
7.791334e+002,2.553308e-001
7.829905e+002,6.000000e+000
7.868477e+002,6.000000e+000
7.907047e+002,6.000000e+000
7.945618e+002,6.000000e+000
7.984189e+002,2.173648e-001
8.022760e+002,2.390924e-001
8.061331e+002,6.000000e+000
8.099902e+002,6.000000e+000
8.138473e+002,6.000000e+000
8.177044e+002,6.000000e+000
8.215615e+002,6.000000e+000
8.254186e+002,6.000000e+000
8.292757e+002,8.619916e-001
8.331328e+002,8.172880e-001
8.369899e+002,6.000000e+000
8.408470e+002,1.146932e+000
8.447041e+002,9.015902e-001
8.485612e+002,1.117156e+000
8.524183e+002,1.424324e+000
8.562754e+002,6.000000e+000
8.601324e+002,1.598245e+000
8.639896e+002,2.483191e+000
8.678467e+002,6.000000e+000
8.717037e+002,6.000000e+000
8.755609e+002,1.308809e+000
8.794180e+002,1.439412e+000
8.832750e+002,1.523937e+000
8.871321e+002,1.402496e+000
8.909893e+002,1.472801e+000
8.948463e+002,2.005215e+000
8.987034e+002,6.000000e+000
9.025605e+002,6.000000e+000
9.064176e+002,2.028347e+000
9.102747e+002,2.050269e+000
9.141318e+002,1.929881e+000
9.179889e+002,1.778438e+000
9.218461e+002,1.620993e+000
9.257031e+002,2.200743e+000
9.295602e+002,6.000000e+000
9.334174e+002,6.000000e+000
9.372744e+002,2.042725e+000
9.411315e+002,6.000000e+000
9.449886e+002,6.000000e+000
9.488457e+002,2.728519e+000
9.527028e+002,1.671979e+000
9.565599e+002,1.605355e+000
9.604170e+002,2.055158e+000
9.642740e+002,2.682350e+000
9.681312e+002,2.089318e+000
9.719883e+002,1.929957e+000
9.758453e+002,2.218658e+000
9.797025e+002,6.000000e+000
9.835596e+002,2.175645e+000
9.874166e+002,1.971203e+000
9.912738e+002,2.552856e+000
9.951309e+002,6.000000e+000
9.989879e+002,6.000000e+000
1.002845e+003,2.436472e+000
1.006702e+003,2.244024e+000
1.010559e+003,2.192366e+000
1.014416e+003,2.226351e+000
1.018273e+003,2.141740e+000
1.022130e+003,2.015649e+000
1.025988e+003,1.884528e+000
1.029845e+003,1.975542e+000
1.033702e+003,2.474984e+000
1.037559e+003,2.474343e+000
1.041416e+003,2.100311e+000
1.045273e+003,2.083773e+000
1.049130e+003,1.998376e+000
1.052987e+003,2.105939e+000
1.056844e+003,1.994018e+000
1.060702e+003,1.896263e+000
1.064559e+003,1.995990e+000
1.068416e+003,2.026859e+000
1.072273e+003,2.042295e+000
1.076130e+003,2.037238e+000
1.079987e+003,1.884274e+000
1.083844e+003,1.830660e+000
1.087701e+003,1.889127e+000
1.091558e+003,1.828443e+000
1.095415e+003,1.751616e+000
1.099272e+003,1.735026e+000
1.103130e+003,1.794604e+000
1.106987e+003,1.950796e+000
1.110844e+003,1.985511e+000
1.114701e+003,1.969703e+000
1.118558e+003,1.912156e+000
1.122415e+003,1.853651e+000
1.126272e+003,1.812553e+000
1.130129e+003,1.756232e+000
1.133986e+003,1.776413e+000
1.137843e+003,1.684907e+000
1.141701e+003,1.655633e+000
1.145558e+003,1.709251e+000
1.149415e+003,1.716564e+000
1.153272e+003,1.670312e+000
1.157129e+003,1.660984e+000
1.160986e+003,1.683348e+000
1.164843e+003,1.686822e+000
1.168700e+003,1.669413e+000
1.172557e+003,1.664711e+000
1.176414e+003,1.690580e+000
1.180271e+003,1.698563e+000
1.184129e+003,1.686591e+000
1.187986e+003,1.678653e+000
1.191843e+003,1.664256e+000
1.195700e+003,1.644836e+000
1.199557e+003,1.633260e+000
1.203414e+003,1.634549e+000
1.207271e+003,1.548471e+000
1.211128e+003,1.434209e+000
1.214985e+003,1.354027e+000
1.218842e+003,1.265824e+000
1.222699e+003,1.168111e+000
1.226557e+003,1.062656e+000
1.230414e+003,9.762468e-001
1.234271e+003,8.996239e-001
1.238128e+003,8.322933e-001
1.241985e+003,7.794450e-001
1.245842e+003,7.373294e-001
1.249699e+003,6.992710e-001
1.253556e+003,6.647380e-001
1.257413e+003,6.343443e-001
1.261271e+003,6.014860e-001
1.265128e+003,5.741957e-001
1.268985e+003,5.540943e-001
1.272842e+003,5.408973e-001
1.276699e+003,5.302958e-001
1.280556e+003,5.158971e-001
1.284413e+003,4.993619e-001
1.288270e+003,4.861962e-001
1.292127e+003,4.728742e-001
1.295984e+003,4.615020e-001
1.299841e+003,4.489960e-001
1.303698e+003,4.375426e-001
1.307556e+003,4.283076e-001
1.311413e+003,4.198240e-001
1.315270e+003,4.121893e-001
1.319127e+003,4.064796e-001
1.322984e+003,4.001769e-001
1.326841e+003,3.950845e-001
1.330698e+003,3.951237e-001
1.334555e+003,3.939406e-001
1.338412e+003,3.861367e-001
1.342270e+003,3.792908e-001
1.346127e+003,3.804352e-001
1.349984e+003,3.824258e-001
1.353841e+003,3.777036e-001
1.357698e+003,3.731919e-001
1.361555e+003,3.768639e-001
1.365412e+003,3.868170e-001
1.369269e+003,3.912194e-001
1.373126e+003,3.930514e-001
1.376983e+003,4.017451e-001
1.380840e+003,4.119820e-001
1.384698e+003,4.225229e-001
1.388555e+003,4.323385e-001
1.392412e+003,4.406561e-001
1.396269e+003,4.513378e-001
1.400126e+003,4.669531e-001
1.403983e+003,4.809703e-001
1.407840e+003,4.911633e-001
1.411697e+003,5.032757e-001
1.415554e+003,5.167513e-001
1.419411e+003,5.270044e-001
1.423269e+003,5.325875e-001
1.427126e+003,5.377964e-001
1.430983e+003,5.424180e-001
1.434840e+003,5.444419e-001
1.438697e+003,5.434156e-001
1.442554e+003,5.396211e-001
1.446411e+003,5.369388e-001
1.450268e+003,5.314569e-001
1.454125e+003,5.232773e-001
1.457982e+003,5.135067e-001
1.461839e+003,5.053274e-001
1.465697e+003,4.999315e-001
1.469554e+003,4.974224e-001
1.473411e+003,4.968860e-001
1.477268e+003,4.999238e-001
1.481125e+003,5.064799e-001
1.484982e+003,5.110811e-001
1.488839e+003,5.169601e-001
1.492696e+003,5.268521e-001
1.496553e+003,5.402133e-001
1.500411e+003,5.532305e-001
1.504268e+003,5.591817e-001
1.508125e+003,5.589536e-001
1.511982e+003,5.578436e-001
1.515839e+003,5.552251e-001
1.519696e+003,5.509053e-001
1.523553e+003,5.423089e-001
1.527410e+003,5.370768e-001
1.531267e+003,5.315951e-001
1.535124e+003,5.173248e-001
1.538981e+003,5.034952e-001
1.542839e+003,4.956846e-001
1.546696e+003,4.850748e-001
1.550553e+003,4.715873e-001
1.554410e+003,4.590642e-001
1.558267e+003,4.502755e-001
1.562124e+003,4.431297e-001
1.565981e+003,4.371265e-001
1.569838e+003,4.316443e-001
1.573695e+003,4.257260e-001
1.577552e+003,4.216411e-001
1.581410e+003,4.224411e-001
1.585267e+003,4.292303e-001
1.589124e+003,4.366198e-001
1.592981e+003,4.415378e-001
1.596838e+003,4.497006e-001
1.600695e+003,4.641203e-001
1.604552e+003,4.839377e-001
1.608409e+003,5.057752e-001
1.612266e+003,5.338913e-001
1.616123e+003,5.665042e-001
1.619980e+003,5.936146e-001
1.623838e+003,6.201010e-001
1.627695e+003,6.479151e-001
1.631552e+003,6.679501e-001
1.635409e+003,6.755931e-001
1.639266e+003,6.773188e-001
1.643123e+003,6.681868e-001
1.646980e+003,6.510705e-001
1.650837e+003,6.306543e-001
1.654694e+003,6.095523e-001
1.658551e+003,5.907155e-001
1.662409e+003,5.631152e-001
1.666266e+003,5.331119e-001
1.670123e+003,5.081945e-001
1.673980e+003,4.866899e-001
1.677837e+003,4.650475e-001
1.681694e+003,4.428168e-001
1.685551e+003,4.246744e-001
1.689408e+003,4.117478e-001
1.693265e+003,4.007733e-001
1.697122e+003,3.890407e-001
1.700979e+003,3.766443e-001
1.704837e+003,3.691863e-001
1.708694e+003,3.628857e-001
1.712551e+003,3.583495e-001
1.716408e+003,3.526291e-001
1.720265e+003,3.483394e-001
1.724122e+003,3.447667e-001
1.727979e+003,3.407586e-001
1.731836e+003,3.359881e-001
1.735693e+003,3.319607e-001
1.739550e+003,3.301677e-001
1.743408e+003,3.277484e-001
1.747265e+003,3.251651e-001
1.751122e+003,3.224712e-001
1.754979e+003,3.202237e-001
1.758836e+003,3.200017e-001
1.762693e+003,3.184592e-001
1.766550e+003,3.164368e-001
1.770407e+003,3.167964e-001
1.774264e+003,3.164563e-001
1.778121e+003,3.164113e-001
1.781979e+003,3.179054e-001
1.785836e+003,3.165855e-001
1.789693e+003,3.156812e-001
1.793550e+003,3.160058e-001
1.797407e+003,3.156006e-001
1.801264e+003,3.152094e-001
1.805121e+003,3.137386e-001
1.808978e+003,3.124518e-001
1.812835e+003,3.111875e-001
1.816692e+003,3.101180e-001
1.820549e+003,3.070171e-001
1.824407e+003,3.029931e-001
1.828264e+003,3.011725e-001
1.832121e+003,3.025244e-001
1.835978e+003,3.015146e-001
1.839835e+003,2.988635e-001
1.843692e+003,2.971826e-001
1.847549e+003,2.949441e-001
1.851406e+003,2.955270e-001
1.855263e+003,2.951867e-001
1.859120e+003,2.941000e-001
1.862978e+003,2.953776e-001
1.866835e+003,2.955790e-001
1.870692e+003,2.950599e-001
1.874549e+003,2.952420e-001
1.878406e+003,2.941784e-001
1.882263e+003,2.938823e-001
1.886120e+003,2.947820e-001
1.889977e+003,2.941875e-001
1.893834e+003,2.927709e-001
1.897691e+003,2.929097e-001
1.901548e+003,2.921937e-001
1.905406e+003,2.893803e-001
1.909263e+003,2.863525e-001
1.913120e+003,2.834659e-001
1.916977e+003,2.813432e-001
1.920834e+003,2.796793e-001
1.924691e+003,2.775265e-001
1.928548e+003,2.764631e-001
1.932405e+003,2.748898e-001
1.936262e+003,2.728743e-001
1.940119e+003,2.730739e-001
1.943977e+003,2.732904e-001
1.947834e+003,2.716552e-001
1.951691e+003,2.711139e-001
1.955548e+003,2.727862e-001
1.959405e+003,2.747481e-001
1.963262e+003,2.760166e-001
1.967119e+003,2.768019e-001
1.970976e+003,2.747015e-001
1.974833e+003,2.716161e-001
1.978690e+003,2.719098e-001
1.982547e+003,2.727153e-001
1.986405e+003,2.706209e-001
1.990262e+003,2.688411e-001
1.994119e+003,2.683428e-001
1.997976e+003,2.673493e-001
2.001833e+003,2.646374e-001
2.005690e+003,2.611372e-001
2.009547e+003,2.588387e-001
2.013404e+003,2.574894e-001
2.017261e+003,2.558060e-001
2.021118e+003,2.564401e-001
2.024976e+003,2.561061e-001
2.028833e+003,2.542307e-001
2.032690e+003,2.537058e-001
2.036547e+003,2.548800e-001
2.040404e+003,2.543685e-001
2.044261e+003,2.552483e-001
2.048118e+003,2.567493e-001
2.051975e+003,2.565557e-001
2.055832e+003,2.565200e-001
2.059689e+003,2.579080e-001
2.063546e+003,2.582700e-001
2.067404e+003,2.582028e-001
2.071261e+003,2.587679e-001
2.075118e+003,2.592161e-001
2.078975e+003,2.572996e-001
2.082832e+003,2.550107e-001
2.086689e+003,2.538751e-001
2.090546e+003,2.523584e-001
2.094403e+003,2.510344e-001
2.098260e+003,2.496018e-001
2.102117e+003,2.474864e-001
2.105975e+003,2.443520e-001
2.109832e+003,2.434852e-001
2.113689e+003,2.438343e-001
2.117546e+003,2.439224e-001
2.121403e+003,2.448332e-001
2.125260e+003,2.441134e-001
2.129117e+003,2.432626e-001
2.132974e+003,2.460418e-001
2.136831e+003,2.481969e-001
2.140688e+003,2.499045e-001
2.144545e+003,2.511104e-001
2.148403e+003,2.528653e-001
2.152260e+003,2.535917e-001
2.156117e+003,2.549763e-001
2.159974e+003,2.575988e-001
2.163831e+003,2.598706e-001
2.167688e+003,2.600474e-001
2.171545e+003,2.583380e-001
2.175402e+003,2.557911e-001
2.179259e+003,2.548828e-001
2.183116e+003,2.545782e-001
2.186974e+003,2.527259e-001
2.190831e+003,2.518771e-001
2.194688e+003,2.499905e-001
2.198545e+003,2.493698e-001
2.202402e+003,2.512699e-001
2.206259e+003,2.528813e-001
2.210116e+003,2.530703e-001
2.213973e+003,2.534250e-001
2.217830e+003,2.538268e-001
2.221688e+003,2.559763e-001
2.225544e+003,2.582010e-001
2.229402e+003,2.609864e-001
2.233259e+003,2.643925e-001
2.237116e+003,2.661220e-001
2.240973e+003,2.666557e-001
2.244830e+003,2.676169e-001
2.248687e+003,2.704271e-001
2.252544e+003,2.722294e-001
2.256401e+003,2.720012e-001
2.260258e+003,2.718778e-001
2.264115e+003,2.721451e-001
2.267973e+003,2.717905e-001
2.271830e+003,2.695815e-001
2.275687e+003,2.688194e-001
2.279544e+003,2.699466e-001
2.283401e+003,2.680994e-001
2.287258e+003,2.654517e-001
2.291115e+003,2.663748e-001
2.294972e+003,2.677765e-001
2.298829e+003,2.677972e-001
2.302687e+003,2.694617e-001
2.306543e+003,2.700475e-001
2.310401e+003,2.720668e-001
2.314258e+003,2.749221e-001
2.318115e+003,2.780624e-001
2.321972e+003,2.817621e-001
2.325829e+003,2.843623e-001
2.329686e+003,2.844387e-001
2.333543e+003,2.879037e-001
2.337400e+003,2.924252e-001
2.341257e+003,2.956885e-001
2.345115e+003,2.943131e-001
2.348972e+003,2.927613e-001
2.352829e+003,2.975997e-001
2.356686e+003,3.008990e-001
2.360543e+003,2.980473e-001
2.364400e+003,2.961442e-001
2.368257e+003,2.952683e-001
2.372114e+003,2.877829e-001
2.375971e+003,2.818356e-001
2.379828e+003,2.796383e-001
2.383686e+003,2.773944e-001
2.387542e+003,2.759062e-001
2.391400e+003,2.740512e-001
2.395257e+003,2.725038e-001
2.399114e+003,2.724814e-001
2.402971e+003,2.736000e-001
2.406828e+003,2.746923e-001
2.410685e+003,2.749598e-001
2.414542e+003,2.750796e-001
2.418399e+003,2.768050e-001
2.422256e+003,2.801129e-001
2.426114e+003,2.808932e-001
2.429971e+003,2.792248e-001
2.433828e+003,2.789219e-001
2.437685e+003,2.803795e-001
2.441542e+003,2.808064e-001
2.445399e+003,2.815216e-001
2.449256e+003,2.799588e-001
2.453113e+003,2.779913e-001
2.456970e+003,2.774945e-001
2.460827e+003,2.750233e-001
2.464684e+003,2.738146e-001
2.468542e+003,2.740398e-001
2.472399e+003,2.721391e-001
2.476256e+003,2.690119e-001
2.480113e+003,2.666127e-001
2.483970e+003,2.658134e-001
2.487827e+003,2.650798e-001
2.491684e+003,2.657476e-001
2.495541e+003,2.675033e-001
2.499398e+003,2.673630e-001
2.503255e+003,2.678747e-001
2.507113e+003,2.703212e-001
2.510969e+003,2.723508e-001
2.514827e+003,2.737706e-001
2.518684e+003,2.762913e-001
2.522541e+003,2.783436e-001
2.526398e+003,2.788448e-001
2.530255e+003,2.789891e-001
2.534112e+003,2.789147e-001
2.537969e+003,2.812123e-001
2.541826e+003,2.838868e-001
2.545683e+003,2.843076e-001
2.549541e+003,2.836731e-001
2.553398e+003,2.824001e-001
2.557255e+003,2.830269e-001
2.561112e+003,2.850090e-001
2.564969e+003,2.858555e-001
2.568826e+003,2.846981e-001
2.572683e+003,2.829379e-001
2.576540e+003,2.834867e-001
2.580397e+003,2.848298e-001
2.584254e+003,2.860136e-001
2.588112e+003,2.876794e-001
2.591969e+003,2.897851e-001
2.595826e+003,2.919842e-001
2.599683e+003,2.956337e-001
2.603540e+003,2.992105e-001
2.607397e+003,3.035632e-001
2.611254e+003,3.067575e-001
2.615111e+003,3.100480e-001
2.618968e+003,3.145633e-001
2.622825e+003,3.171887e-001
2.626682e+003,3.190301e-001
2.630540e+003,3.216784e-001
2.634397e+003,3.248619e-001
2.638254e+003,3.260146e-001
2.642111e+003,3.264879e-001
2.645968e+003,3.290526e-001
2.649825e+003,3.313620e-001
2.653682e+003,3.298598e-001
2.657539e+003,3.293417e-001
2.661396e+003,3.321933e-001
2.665253e+003,3.359843e-001
2.669111e+003,3.371780e-001
2.672968e+003,3.387598e-001
2.676825e+003,3.426408e-001
2.680682e+003,3.469646e-001
2.684539e+003,3.514748e-001
2.688396e+003,3.543513e-001
2.692253e+003,3.570933e-001
2.696110e+003,3.616667e-001
2.699967e+003,3.652818e-001
2.703824e+003,3.683099e-001
2.707681e+003,3.726880e-001
2.711539e+003,3.778417e-001
2.715396e+003,3.808732e-001
2.719253e+003,3.831773e-001
2.723110e+003,3.866135e-001
2.726967e+003,3.889416e-001
2.730824e+003,3.902141e-001
2.734681e+003,3.937039e-001
2.738538e+003,3.982241e-001
2.742395e+003,4.005837e-001
2.746252e+003,4.032000e-001
2.750110e+003,4.059601e-001
2.753967e+003,4.092416e-001
2.757824e+003,4.112408e-001
2.761681e+003,4.140030e-001
2.765538e+003,4.186527e-001
2.769395e+003,4.245145e-001
2.773252e+003,4.291765e-001
2.777109e+003,4.343715e-001
2.780966e+003,4.395482e-001
2.784823e+003,4.425913e-001
2.788680e+003,4.432883e-001
2.792538e+003,4.458110e-001
2.796395e+003,4.513410e-001
2.800252e+003,4.573018e-001
2.804109e+003,4.634423e-001
2.807966e+003,4.685063e-001
2.811823e+003,4.721652e-001
2.815680e+003,4.750119e-001
2.819537e+003,4.790094e-001
2.823394e+003,4.841971e-001
2.827251e+003,4.898488e-001
2.831109e+003,4.938734e-001
2.834966e+003,4.977869e-001
2.838823e+003,5.013651e-001
2.842680e+003,5.030587e-001
2.846537e+003,5.046785e-001
2.850394e+003,5.089124e-001
2.854251e+003,5.155143e-001
2.858108e+003,5.202569e-001
2.861965e+003,5.225632e-001
2.865823e+003,5.263377e-001
2.869679e+003,5.322556e-001
2.873537e+003,5.392141e-001
2.877394e+003,5.442312e-001
2.881251e+003,5.477633e-001
2.885108e+003,5.502496e-001
2.888965e+003,5.539841e-001
2.892822e+003,5.637175e-001
2.896679e+003,5.720441e-001
2.900536e+003,5.762678e-001
2.904393e+003,5.795425e-001
2.908250e+003,5.834778e-001
2.912108e+003,5.899174e-001
2.915965e+003,5.958416e-001
2.919822e+003,6.009957e-001
2.923679e+003,6.065961e-001
2.927536e+003,6.145799e-001
2.931393e+003,6.171781e-001
2.935250e+003,6.176761e-001
2.939107e+003,6.234328e-001
2.942964e+003,6.296018e-001
2.946822e+003,6.363522e-001
2.950678e+003,6.415811e-001
2.954536e+003,6.456244e-001
2.958393e+003,6.528953e-001
2.962250e+003,6.594869e-001
2.966107e+003,6.650466e-001
2.969964e+003,6.675408e-001
2.973821e+003,6.749787e-001
2.977678e+003,6.790947e-001
2.981535e+003,6.847427e-001
2.985392e+003,6.934218e-001
2.989250e+003,7.019193e-001
2.993107e+003,7.084137e-001
2.996964e+003,7.121482e-001
3.000821e+003,7.186227e-001
3.004678e+003,7.243543e-001
3.008535e+003,7.283932e-001
3.012392e+003,7.334829e-001
3.016249e+003,7.365949e-001
3.020106e+003,7.446973e-001
3.023963e+003,7.568235e-001
3.027821e+003,7.645000e-001
3.031677e+003,7.695302e-001
3.035535e+003,7.734048e-001
3.039392e+003,7.737811e-001
3.043249e+003,7.837740e-001
3.047106e+003,7.970555e-001
3.050963e+003,7.978296e-001
3.054820e+003,7.977285e-001
3.058677e+003,8.058368e-001
3.062534e+003,8.184108e-001
3.066391e+003,8.266574e-001
3.070249e+003,8.361958e-001
3.074106e+003,8.488570e-001
3.077963e+003,8.534192e-001
3.081820e+003,8.522010e-001
3.085677e+003,8.624930e-001
3.089534e+003,8.705963e-001
3.093391e+003,8.710648e-001
3.097248e+003,8.812912e-001
3.101105e+003,8.938843e-001
3.104962e+003,9.044606e-001
3.108820e+003,9.183093e-001
3.112677e+003,9.212343e-001
3.116534e+003,9.184411e-001
3.120391e+003,9.265481e-001
3.124248e+003,9.448002e-001
3.128105e+003,9.458026e-001
3.131962e+003,9.480971e-001
3.135819e+003,9.628054e-001
3.139676e+003,9.711213e-001
3.143533e+003,9.776917e-001
3.147390e+003,9.847103e-001
3.151248e+003,9.920986e-001
3.155105e+003,9.990141e-001
3.158962e+003,1.010419e+000
3.162819e+003,1.019788e+000
3.166676e+003,1.024782e+000
3.170533e+003,1.032285e+000
3.174390e+003,1.043925e+000
3.178247e+003,1.046865e+000
3.182104e+003,1.054129e+000
3.185961e+003,1.076378e+000
3.189819e+003,1.087226e+000
3.193676e+003,1.082962e+000
3.197533e+003,1.086055e+000
3.201390e+003,1.097355e+000
3.205247e+003,1.106365e+000
3.209104e+003,1.121555e+000
3.212961e+003,1.126909e+000
3.216818e+003,1.128999e+000
3.220675e+003,1.143100e+000
3.224532e+003,1.149985e+000
3.228389e+003,1.151241e+000
3.232247e+003,1.160251e+000
3.236104e+003,1.159418e+000
3.239961e+003,1.168941e+000
3.243818e+003,1.176419e+000
3.247675e+003,1.170267e+000
3.251532e+003,1.173190e+000
3.255389e+003,1.182088e+000
3.259246e+003,1.198005e+000
3.263103e+003,1.207516e+000
3.266960e+003,1.205157e+000
3.270818e+003,1.216180e+000
3.274675e+003,1.231404e+000
3.278532e+003,1.242721e+000
3.282389e+003,1.248831e+000
3.286246e+003,1.260080e+000
3.290103e+003,1.264074e+000
3.293960e+003,1.254856e+000
3.297817e+003,1.258446e+000
3.301674e+003,1.271060e+000
3.305531e+003,1.285965e+000
3.309388e+003,1.292299e+000
3.313246e+003,1.302642e+000
3.317103e+003,1.308784e+000
3.320960e+003,1.321170e+000
3.324817e+003,1.334432e+000
3.328674e+003,1.326055e+000
3.332531e+003,1.319406e+000
3.336388e+003,1.321554e+000
3.340245e+003,1.346738e+000
3.344102e+003,1.361154e+000
3.347959e+003,1.364137e+000
3.351817e+003,1.386855e+000
3.355674e+003,1.378706e+000
3.359531e+003,1.363621e+000
3.363388e+003,1.380161e+000
3.367245e+003,1.417019e+000
3.371102e+003,1.455595e+000
3.374959e+003,1.461165e+000
3.378816e+003,1.439306e+000
3.382673e+003,1.423994e+000
3.386530e+003,1.419641e+000
3.390387e+003,1.442125e+000
3.394245e+003,1.436315e+000
3.398102e+003,1.424937e+000
3.401959e+003,1.441801e+000
3.405816e+003,1.451183e+000
3.409673e+003,1.481248e+000
3.413530e+003,1.518630e+000
3.417387e+003,1.514707e+000
3.421244e+003,1.505690e+000
3.425101e+003,1.521073e+000
3.428958e+003,1.512418e+000
3.432815e+003,1.509186e+000
3.436673e+003,1.508059e+000
3.440530e+003,1.500513e+000
3.444387e+003,1.506999e+000
3.448244e+003,1.533793e+000
3.452101e+003,1.534318e+000
3.455958e+003,1.534985e+000
3.459815e+003,1.530735e+000
3.463672e+003,1.535261e+000
3.467529e+003,1.536198e+000
3.471386e+003,1.551210e+000
3.475244e+003,1.543437e+000
3.479101e+003,1.524337e+000
3.482958e+003,1.559290e+000
3.486815e+003,1.558226e+000
3.490672e+003,1.546960e+000
3.494529e+003,1.545611e+000
3.498386e+003,1.511380e+000
3.502243e+003,1.518130e+000
3.506100e+003,1.551288e+000
3.509958e+003,1.536028e+000
3.513814e+003,1.523816e+000
3.517672e+003,1.563131e+000
3.521529e+003,1.595729e+000
3.525386e+003,1.584946e+000
3.529243e+003,1.576355e+000
3.533100e+003,1.575395e+000
3.536957e+003,1.583966e+000
3.540814e+003,1.597434e+000
3.544671e+003,1.597561e+000
3.548528e+003,1.592632e+000
3.552385e+003,1.553307e+000
3.556243e+003,1.510152e+000
3.560100e+003,1.509111e+000
3.563957e+003,1.504671e+000
3.567814e+003,1.511906e+000
3.571671e+003,1.518017e+000
3.575528e+003,1.488534e+000
3.579385e+003,1.432107e+000
3.583242e+003,1.415343e+000
3.587099e+003,1.398188e+000
3.590957e+003,1.356516e+000
3.594813e+003,1.337565e+000
3.598671e+003,1.315203e+000
3.602528e+003,1.266764e+000
3.606385e+003,1.207278e+000
3.610242e+003,1.162030e+000
3.614099e+003,1.109746e+000
3.617956e+003,1.046422e+000
3.621813e+003,9.913612e-001
3.625670e+003,9.443703e-001
3.629527e+003,8.944920e-001
3.633385e+003,8.324444e-001
3.637242e+003,7.710640e-001
3.641099e+003,7.167849e-001
3.644956e+003,6.624247e-001
3.648813e+003,6.111671e-001
3.652670e+003,5.657646e-001
3.656527e+003,5.217005e-001
3.660384e+003,4.794467e-001
3.664241e+003,4.427936e-001
3.668098e+003,4.063474e-001
3.671956e+003,3.711231e-001
3.675813e+003,3.410919e-001
3.679670e+003,3.151817e-001
3.683527e+003,2.884624e-001
3.687384e+003,2.640992e-001
3.691241e+003,2.464550e-001
3.695098e+003,2.292236e-001
3.698955e+003,2.161003e-001
3.702812e+003,2.077672e-001
3.706669e+003,1.970100e-001
3.710526e+003,1.877655e-001
3.714384e+003,1.815399e-001
3.718241e+003,1.769809e-001
3.722098e+003,1.737849e-001
3.725955e+003,1.704323e-001
3.729812e+003,1.662225e-001
3.733669e+003,1.657545e-001
3.737526e+003,1.638741e-001
3.741383e+003,1.600492e-001
3.745240e+003,1.575197e-001
3.749097e+003,1.545542e-001
3.752955e+003,1.515066e-001
3.756812e+003,1.467348e-001
3.760669e+003,1.435105e-001
3.764526e+003,1.416393e-001
3.768383e+003,1.408048e-001
3.772240e+003,1.397056e-001
3.776097e+003,1.376012e-001
3.779954e+003,1.360106e-001
3.783811e+003,1.362925e-001
3.787668e+003,1.383421e-001
3.791525e+003,1.376121e-001
3.795383e+003,1.373229e-001
3.799240e+003,1.379442e-001
3.803097e+003,1.387478e-001
3.806954e+003,1.408187e-001
3.810811e+003,1.415402e-001
3.814668e+003,1.409381e-001
3.818525e+003,1.409595e-001
3.822382e+003,1.429594e-001
3.826239e+003,1.424631e-001
3.830096e+003,1.408347e-001
3.833954e+003,1.377334e-001
3.837811e+003,1.379066e-001
3.841668e+003,1.373343e-001
3.845525e+003,1.346627e-001
3.849382e+003,1.310982e-001
3.853239e+003,1.307486e-001
3.857096e+003,1.299362e-001
3.860953e+003,1.296288e-001
3.864810e+003,1.297060e-001
3.868667e+003,1.288089e-001
3.872524e+003,1.288041e-001
3.876382e+003,1.292458e-001
3.880239e+003,1.296138e-001
3.884096e+003,1.298380e-001
3.887953e+003,1.299465e-001
3.891810e+003,1.305176e-001
3.895667e+003,1.314474e-001
3.899524e+003,1.325933e-001
3.903381e+003,1.341792e-001
3.907238e+003,1.342398e-001
3.911095e+003,1.343134e-001
3.914953e+003,1.353711e-001
3.918810e+003,1.335459e-001
3.922667e+003,1.325411e-001
3.926524e+003,1.339024e-001
3.930381e+003,1.332835e-001
3.934238e+003,1.315694e-001
3.938095e+003,1.314107e-001
3.941952e+003,1.292942e-001
3.945809e+003,1.287301e-001
3.949667e+003,1.271848e-001
3.953523e+003,1.244135e-001
3.957381e+003,1.235832e-001
3.961238e+003,1.237847e-001
3.965095e+003,1.236541e-001
3.968952e+003,1.225265e-001
3.972809e+003,1.228265e-001
3.976666e+003,1.239665e-001
3.980523e+003,1.233946e-001
3.984380e+003,1.252213e-001
3.988237e+003,1.264486e-001
3.992094e+003,1.259345e-001
3.995952e+003,1.276301e-001
3.999809e+003,1.294755e-001
4.003666e+003,1.293018e-001
4.007523e+003,1.284463e-001
4.011380e+003,1.299307e-001
4.015237e+003,1.311230e-001
4.019094e+003,1.316137e-001
4.022951e+003,1.300359e-001
4.026808e+003,1.273759e-001
4.030666e+003,1.255651e-001
4.034522e+003,1.229446e-001
4.038380e+003,1.223738e-001
4.042237e+003,1.212592e-001
4.046094e+003,1.220047e-001
4.049951e+003,1.234510e-001
4.053808e+003,1.218100e-001
4.057665e+003,1.198350e-001
4.061522e+003,1.174300e-001
4.065379e+003,1.164677e-001
4.069236e+003,1.187286e-001
4.073094e+003,1.201516e-001
4.076951e+003,1.193387e-001
4.080808e+003,1.201224e-001
4.084665e+003,1.208523e-001
4.088522e+003,1.217928e-001
4.092379e+003,1.237549e-001
4.096236e+003,1.220564e-001
4.100093e+003,1.201293e-001
4.103950e+003,1.196233e-001
4.107808e+003,1.216288e-001
4.111665e+003,1.235322e-001
4.115521e+003,1.225454e-001
4.119379e+003,1.232771e-001
4.123236e+003,1.222847e-001
4.127093e+003,1.194331e-001
4.130950e+003,1.185832e-001
4.134807e+003,1.170296e-001
4.138664e+003,1.140190e-001
4.142521e+003,1.134971e-001
4.146378e+003,1.143534e-001
4.150235e+003,1.133577e-001
4.154093e+003,1.118664e-001
4.157950e+003,1.104742e-001
4.161807e+003,1.108574e-001
4.165664e+003,1.117148e-001
4.169521e+003,1.135005e-001
4.173378e+003,1.159111e-001
4.177235e+003,1.145822e-001
4.181092e+003,1.146206e-001
4.184949e+003,1.151201e-001
4.188807e+003,1.151151e-001
4.192664e+003,1.157311e-001
4.196521e+003,1.156292e-001
4.200378e+003,1.161595e-001
4.204235e+003,1.165363e-001
4.208092e+003,1.161836e-001
4.211949e+003,1.164179e-001
4.215806e+003,1.176855e-001
4.219663e+003,1.179008e-001
4.223521e+003,1.144965e-001
4.227377e+003,1.110204e-001
4.231234e+003,1.073509e-001
4.235092e+003,1.061518e-001
4.238949e+003,1.081466e-001
4.242806e+003,1.099601e-001
4.246663e+003,1.081337e-001
4.250520e+003,1.088081e-001
4.254377e+003,1.081433e-001
4.258234e+003,1.079515e-001
4.262091e+003,1.068706e-001
4.265948e+003,1.050959e-001
4.269806e+003,1.079356e-001
4.273663e+003,1.085529e-001
4.277520e+003,1.070331e-001
4.281377e+003,1.089244e-001
4.285234e+003,1.117823e-001
4.289091e+003,1.133924e-001
4.292948e+003,1.137317e-001
4.296805e+003,1.130312e-001
4.300662e+003,1.115880e-001
4.304520e+003,1.112110e-001
4.308376e+003,1.143971e-001
4.312233e+003,1.139692e-001
4.316091e+003,1.097966e-001
4.319948e+003,1.091985e-001
4.323805e+003,1.099158e-001
4.327662e+003,1.095735e-001
4.331519e+003,1.099190e-001
4.335376e+003,1.097174e-001
4.339233e+003,1.101015e-001
4.343090e+003,1.077770e-001
4.346947e+003,1.070398e-001
4.350805e+003,1.088646e-001
4.354662e+003,1.103208e-001
4.358519e+003,1.088844e-001
4.362376e+003,1.042600e-001
4.366233e+003,1.031120e-001
4.370090e+003,1.077288e-001
4.373947e+003,1.123569e-001
4.377804e+003,1.119654e-001
4.381661e+003,1.093264e-001
4.385519e+003,1.095027e-001
4.389375e+003,1.096935e-001
4.393232e+003,1.106762e-001
4.397090e+003,1.140061e-001
4.400947e+003,1.157368e-001
4.404804e+003,1.124917e-001
4.408661e+003,1.118622e-001
4.412518e+003,1.156002e-001
4.416375e+003,1.188939e-001
4.420232e+003,1.179158e-001
4.424089e+003,1.146690e-001
4.427946e+003,1.112480e-001
4.431804e+003,1.100463e-001
4.435661e+003,1.100530e-001
4.439518e+003,1.080825e-001
4.443375e+003,1.068437e-001
4.447232e+003,1.066533e-001
4.451089e+003,1.077442e-001
4.454946e+003,1.080068e-001
4.458803e+003,1.093171e-001
4.462660e+003,1.097016e-001
4.466518e+003,1.100604e-001
4.470375e+003,1.120367e-001
4.474231e+003,1.130536e-001
4.478089e+003,1.126848e-001
4.481946e+003,1.103341e-001
4.485803e+003,1.107759e-001
4.489660e+003,1.132851e-001
4.493517e+003,1.140772e-001
4.497375e+003,1.132069e-001
4.501231e+003,1.126629e-001
4.505088e+003,1.115328e-001
4.508946e+003,1.086193e-001
4.512803e+003,1.078330e-001
4.516660e+003,1.054290e-001
4.520517e+003,1.061731e-001
4.524374e+003,1.092513e-001
4.528231e+003,1.096777e-001
4.532088e+003,1.074789e-001
4.535945e+003,1.057602e-001
4.539802e+003,1.054184e-001
4.543660e+003,1.052596e-001
4.547517e+003,1.032341e-001
4.551374e+003,9.993685e-002
4.555231e+003,9.943953e-002
4.559088e+003,1.023180e-001
4.562945e+003,1.054374e-001
4.566802e+003,1.051955e-001
4.570659e+003,1.072268e-001
4.574516e+003,1.108035e-001
4.578374e+003,1.112595e-001
4.582230e+003,1.090583e-001
4.586087e+003,1.048621e-001
4.589945e+003,1.064917e-001
4.593802e+003,1.090803e-001
4.597659e+003,1.095048e-001
4.601516e+003,1.061023e-001
4.605373e+003,1.037173e-001
4.609230e+003,1.036713e-001
4.613087e+003,1.010754e-001
4.616944e+003,9.907304e-002
4.620801e+003,9.755731e-002
4.624659e+003,9.734540e-002
4.628516e+003,9.731618e-002
4.632373e+003,9.757250e-002
4.636230e+003,9.797119e-002
4.640087e+003,9.949452e-002
4.643944e+003,1.027560e-001
4.647801e+003,1.024409e-001
4.651658e+003,1.001292e-001
4.655515e+003,9.866477e-002
4.659373e+003,1.002664e-001
4.663229e+003,1.018070e-001
4.667086e+003,1.020068e-001
4.670944e+003,1.052039e-001
4.674801e+003,1.089947e-001
4.678658e+003,1.051086e-001
4.682515e+003,1.039241e-001
4.686372e+003,1.060435e-001
4.690229e+003,1.065807e-001
4.694086e+003,1.052537e-001
4.697943e+003,1.036695e-001
4.701800e+003,1.040337e-001
4.705658e+003,1.051148e-001
4.709515e+003,1.021663e-001
4.713372e+003,9.859204e-002
4.717229e+003,9.654011e-002
4.721086e+003,9.841301e-002
4.724943e+003,9.782000e-002
4.728800e+003,9.857845e-002
4.732657e+003,9.831460e-002
4.736514e+003,9.848823e-002
4.740372e+003,9.693250e-002
4.744229e+003,9.909032e-002
4.748085e+003,1.020896e-001
4.751943e+003,1.019935e-001
4.755800e+003,1.023763e-001
4.759657e+003,1.000595e-001
4.763514e+003,9.753545e-002
4.767371e+003,1.007981e-001
4.771228e+003,1.053291e-001
4.775085e+003,1.049117e-001
4.778942e+003,1.032317e-001
4.782799e+003,1.050053e-001
4.786657e+003,1.054858e-001
4.790514e+003,1.037382e-001
4.794371e+003,1.038826e-001
4.798228e+003,1.038264e-001
4.802085e+003,1.022029e-001
4.805942e+003,1.018263e-001
4.809799e+003,9.789646e-002
4.813656e+003,9.647050e-002
4.817513e+003,1.017060e-001
4.821371e+003,1.031531e-001
4.825228e+003,9.996092e-002
4.829084e+003,9.632092e-002
4.832942e+003,9.528580e-002
4.836799e+003,9.719361e-002
4.840656e+003,9.825136e-002
4.844513e+003,9.650452e-002
4.848370e+003,9.417185e-002
4.852227e+003,9.621881e-002
4.856084e+003,1.010839e-001
4.859941e+003,1.038831e-001
4.863798e+003,1.015341e-001
4.867656e+003,1.003598e-001
4.871513e+003,1.034991e-001
4.875370e+003,1.056621e-001
4.879227e+003,1.048620e-001
4.883084e+003,1.027715e-001
4.886941e+003,1.024683e-001
4.890798e+003,1.028212e-001
4.894655e+003,1.019050e-001
4.898512e+003,1.031886e-001
4.902370e+003,1.033078e-001
4.906227e+003,1.011134e-001
4.910083e+003,1.019513e-001
4.913941e+003,1.012847e-001
4.917798e+003,9.701701e-002
4.921655e+003,9.824978e-002
4.925512e+003,1.025032e-001
4.929369e+003,1.002628e-001
4.933226e+003,9.713746e-002
4.937083e+003,9.725080e-002
4.940940e+003,9.826919e-002
4.944797e+003,9.793029e-002
4.948655e+003,9.713534e-002
4.952512e+003,1.004773e-001
4.956369e+003,1.038853e-001
4.960226e+003,1.016643e-001
4.964083e+003,1.012948e-001
4.967940e+003,1.058692e-001
4.971797e+003,1.069051e-001
4.975654e+003,1.050940e-001
4.979511e+003,1.037056e-001
4.983369e+003,1.025703e-001
4.987226e+003,1.024072e-001
4.991083e+003,1.044063e-001
4.994940e+003,1.088594e-001
4.998797e+003,1.068840e-001
5.002654e+003,1.007170e-001
5.006511e+003,9.890661e-002
5.010368e+003,9.567880e-002
5.014225e+003,9.682085e-002
5.018083e+003,9.726933e-002
5.021939e+003,9.661137e-002
5.025796e+003,9.659357e-002
5.029654e+003,9.827097e-002
5.033511e+003,9.858926e-002
5.037368e+003,9.794731e-002
5.041225e+003,9.661907e-002
5.045082e+003,9.773505e-002
5.048939e+003,1.020767e-001
5.052796e+003,1.050636e-001
5.056653e+003,1.042563e-001
5.060510e+003,1.023797e-001
5.064368e+003,1.048358e-001
5.068225e+003,1.083240e-001
5.072082e+003,1.041509e-001
5.075939e+003,9.948806e-002
5.079796e+003,9.784283e-002
5.083653e+003,1.024660e-001
5.087510e+003,1.044354e-001
5.091367e+003,1.051444e-001
5.095224e+003,1.071418e-001
5.099082e+003,1.031666e-001
5.102938e+003,9.876766e-002
5.106795e+003,1.035542e-001
5.110653e+003,1.074804e-001
5.114510e+003,1.064401e-001
5.118367e+003,1.027409e-001
5.122224e+003,1.016234e-001
5.126081e+003,1.011689e-001
5.129938e+003,1.025941e-001
5.133795e+003,1.072563e-001
5.137652e+003,1.042363e-001
5.141509e+003,1.004860e-001
5.145367e+003,1.040576e-001
5.149224e+003,1.058300e-001
5.153081e+003,1.061105e-001
5.156938e+003,1.062479e-001
5.160795e+003,1.047973e-001
5.164652e+003,1.080900e-001
5.168509e+003,1.110554e-001
5.172366e+003,1.070042e-001
5.176223e+003,1.042960e-001
5.180081e+003,1.065036e-001
5.183938e+003,1.112422e-001
5.187794e+003,1.109569e-001
5.191652e+003,1.058045e-001
5.195509e+003,1.017984e-001
5.199366e+003,9.945990e-002
5.203223e+003,1.026795e-001
5.207080e+003,1.049631e-001
5.210937e+003,1.028876e-001
5.214794e+003,1.072729e-001
5.218651e+003,1.074183e-001
5.222508e+003,1.021103e-001
5.226366e+003,9.898335e-002
5.230223e+003,9.698412e-002
5.234080e+003,9.972424e-002
5.237937e+003,1.035319e-001
5.241794e+003,9.912382e-002
5.245651e+003,9.941616e-002
5.249508e+003,1.026877e-001
5.253365e+003,1.009824e-001
5.257222e+003,1.003000e-001
5.261080e+003,9.909368e-002
5.264937e+003,9.686321e-002
5.268793e+003,9.863599e-002
5.272651e+003,9.884437e-002
5.276508e+003,9.648433e-002
5.280365e+003,9.663906e-002
5.284222e+003,1.028458e-001
5.288079e+003,1.050316e-001
5.291936e+003,1.013356e-001
5.295793e+003,9.468234e-002
5.299650e+003,9.085995e-002
5.303507e+003,9.097290e-002
5.307365e+003,9.600177e-002
5.311222e+003,9.686537e-002
5.315079e+003,9.283827e-002
5.318936e+003,9.126189e-002
5.322793e+003,9.304093e-002
5.326650e+003,9.237166e-002
5.330507e+003,8.960327e-002
5.334364e+003,8.857297e-002
5.338221e+003,9.100665e-002
5.342079e+003,9.533548e-002
5.345936e+003,9.455647e-002
5.349792e+003,9.493982e-002
5.353650e+003,9.675373e-002
5.357507e+003,9.535996e-002
5.361364e+003,9.714185e-002
5.365221e+003,9.689634e-002
5.369078e+003,9.275211e-002
5.372935e+003,8.961451e-002
5.376792e+003,9.159455e-002
5.380649e+003,9.381788e-002
5.384506e+003,9.183945e-002
5.388364e+003,9.384305e-002
5.392221e+003,9.564510e-002
5.396078e+003,9.527152e-002
5.399935e+003,9.458601e-002
5.403792e+003,9.401882e-002
5.407649e+003,9.414847e-002
5.411506e+003,9.494720e-002
5.415363e+003,9.164680e-002
5.419220e+003,9.527623e-002
5.423078e+003,9.613549e-002
5.426935e+003,9.454502e-002
5.430792e+003,9.271938e-002
5.434649e+003,8.933781e-002
5.438506e+003,9.197599e-002
5.442363e+003,9.375060e-002
5.446220e+003,9.313355e-002
5.450077e+003,9.341974e-002
5.453934e+003,9.115683e-002
5.457792e+003,9.279539e-002
5.461648e+003,9.520056e-002
5.465505e+003,9.909219e-002
5.469363e+003,9.911109e-002
5.473220e+003,9.487885e-002
5.477077e+003,9.395501e-002
5.480934e+003,9.027333e-002
5.484791e+003,9.099435e-002
5.488648e+003,9.109749e-002
5.492505e+003,9.262352e-002
5.496362e+003,9.389079e-002
5.500219e+003,9.421844e-002
5.504077e+003,9.479571e-002
5.507934e+003,9.646881e-002
5.511791e+003,9.462741e-002
5.515648e+003,9.086122e-002
5.519505e+003,8.755970e-002
5.523362e+003,8.766478e-002
5.527219e+003,8.704031e-002
5.531076e+003,8.625662e-002
5.534933e+003,8.729606e-002
5.538791e+003,8.585804e-002
5.542647e+003,8.837389e-002
5.546504e+003,8.709550e-002
5.550362e+003,9.128764e-002
5.554219e+003,9.723112e-002
5.558076e+003,9.354778e-002
5.561933e+003,8.683728e-002
5.565790e+003,8.830559e-002
5.569647e+003,8.967891e-002
5.573504e+003,8.839598e-002
5.577361e+003,8.712643e-002
5.581218e+003,8.936411e-002
5.585076e+003,9.291176e-002
5.588933e+003,9.520770e-002
5.592790e+003,9.321173e-002
5.596647e+003,8.685820e-002
5.600504e+003,8.431122e-002
5.604361e+003,8.810553e-002
5.608218e+003,8.625270e-002
5.612075e+003,8.389826e-002
5.615932e+003,8.737867e-002
5.619790e+003,9.279810e-002
5.623646e+003,9.456351e-002
5.627503e+003,9.590494e-002
5.631361e+003,9.156812e-002
5.635218e+003,9.026627e-002
5.639075e+003,9.382610e-002
5.642932e+003,9.449501e-002
5.646789e+003,9.185042e-002
5.650646e+003,8.743074e-002
5.654503e+003,8.876320e-002
5.658360e+003,8.934498e-002
5.662217e+003,8.651944e-002
5.666075e+003,8.561213e-002
5.669932e+003,8.901013e-002
5.673789e+003,8.816507e-002
5.677646e+003,8.584093e-002
5.681503e+003,8.725446e-002
5.685360e+003,8.717981e-002
5.689217e+003,8.934025e-002
5.693074e+003,8.940428e-002
5.696931e+003,8.745214e-002
5.700789e+003,8.748151e-002
5.704646e+003,9.112801e-002
5.708502e+003,8.576301e-002
5.712360e+003,8.549900e-002
5.716217e+003,8.653346e-002
5.720074e+003,8.471748e-002
5.723931e+003,8.649477e-002
5.727788e+003,9.167487e-002
5.731645e+003,9.221812e-002
5.735502e+003,8.689102e-002
5.739359e+003,8.651414e-002
5.743216e+003,9.013537e-002
5.747074e+003,8.989191e-002
5.750931e+003,8.666386e-002
5.754788e+003,8.545188e-002
5.758645e+003,8.471080e-002
5.762502e+003,8.931852e-002
5.766359e+003,9.397022e-002
5.770216e+003,9.399800e-002
5.774073e+003,9.191015e-002
5.777930e+003,9.377030e-002
5.781788e+003,9.033950e-002
5.785645e+003,8.197337e-002
5.789501e+003,8.316949e-002
5.793359e+003,8.401243e-002
5.797216e+003,8.123252e-002
5.801073e+003,7.931994e-002
5.804930e+003,8.316147e-002
5.808787e+003,8.861239e-002
5.812644e+003,9.142499e-002
5.816501e+003,9.019792e-002
5.820358e+003,8.480625e-002
5.824215e+003,8.174701e-002
5.828073e+003,8.377198e-002
5.831930e+003,8.607080e-002
5.835787e+003,8.530322e-002
5.839644e+003,8.818042e-002
5.843501e+003,9.141776e-002
5.847358e+003,8.971328e-002
5.851215e+003,8.784026e-002
5.855072e+003,8.811710e-002
5.858929e+003,8.939908e-002
5.862787e+003,9.041779e-002
5.866644e+003,8.853986e-002
5.870500e+003,8.952679e-002
5.874358e+003,8.665945e-002
5.878215e+003,8.168526e-002
5.882072e+003,8.690077e-002
5.885929e+003,9.245759e-002
5.889786e+003,9.475709e-002
5.893643e+003,9.074581e-002
5.897500e+003,8.438750e-002
5.901357e+003,8.287133e-002
5.905214e+003,8.005132e-002
5.909072e+003,8.468970e-002
5.912929e+003,9.109728e-002
5.916786e+003,9.022692e-002
5.920643e+003,8.245023e-002
5.924500e+003,8.205701e-002
5.928357e+003,8.641467e-002
5.932214e+003,8.678540e-002
5.936071e+003,8.897206e-002
5.939928e+003,9.043305e-002
5.943786e+003,8.742389e-002
5.947643e+003,8.581751e-002
5.951500e+003,8.407893e-002
5.955357e+003,8.343024e-002
5.959214e+003,8.985080e-002
5.963071e+003,9.071277e-002
5.966928e+003,9.119836e-002
5.970785e+003,8.485777e-002
5.974642e+003,8.024542e-002
5.978500e+003,8.343887e-002
5.982356e+003,8.849529e-002
5.986213e+003,9.070114e-002
5.990071e+003,8.970848e-002
5.993928e+003,8.687086e-002
5.997785e+003,8.590932e-002
6.001642e+003,8.216357e-002
6.005499e+003,8.009745e-002
6.009356e+003,8.144283e-002
6.013213e+003,8.165994e-002
6.017070e+003,8.012009e-002
6.020927e+003,7.958563e-002
6.024785e+003,7.703520e-002
6.028642e+003,7.903291e-002
6.032499e+003,8.100483e-002
6.036356e+003,8.243629e-002
6.040213e+003,8.229391e-002
6.044070e+003,8.557166e-002
6.047927e+003,8.931120e-002
6.051784e+003,8.425964e-002
6.055641e+003,8.117376e-002
6.059499e+003,8.796857e-002
6.063355e+003,8.944207e-002
6.067212e+003,9.213319e-002
6.071070e+003,9.053691e-002
6.074927e+003,8.468692e-002
6.078784e+003,8.499629e-002
6.082641e+003,8.921397e-002
6.086498e+003,8.532681e-002
6.090355e+003,7.932623e-002
6.094212e+003,8.082930e-002
6.098069e+003,8.751118e-002
6.101926e+003,8.328375e-002
6.105784e+003,8.546168e-002
6.109641e+003,9.259318e-002
6.113498e+003,8.742616e-002
6.117355e+003,8.481757e-002
6.121212e+003,8.497424e-002
6.125069e+003,8.912927e-002
6.128926e+003,8.999047e-002
6.132783e+003,8.948807e-002
6.136640e+003,8.862035e-002
6.140498e+003,8.488560e-002
6.144354e+003,8.592410e-002
6.148211e+003,8.623666e-002
6.152069e+003,8.279233e-002
6.155926e+003,8.361746e-002
6.159783e+003,8.421230e-002
6.163640e+003,8.587302e-002
6.167497e+003,8.620644e-002
6.171354e+003,8.865574e-002
6.175211e+003,8.619532e-002
6.179068e+003,8.297006e-002
6.182925e+003,8.761731e-002
6.186783e+003,8.874889e-002
6.190640e+003,9.030805e-002
6.194497e+003,9.284200e-002
6.198354e+003,9.257862e-002
6.202211e+003,9.463050e-002
6.206068e+003,9.915833e-002
6.209925e+003,9.134571e-002
6.213782e+003,8.327524e-002
6.217639e+003,8.414754e-002
6.221497e+003,8.042522e-002
6.225354e+003,8.202451e-002
6.229210e+003,8.916247e-002
6.233068e+003,9.313317e-002
6.236925e+003,8.761106e-002
6.240782e+003,8.569544e-002
6.244639e+003,8.269059e-002
6.248496e+003,8.464460e-002
6.252353e+003,8.417718e-002
6.256210e+003,7.988362e-002
6.260067e+003,8.047798e-002
6.263924e+003,7.817542e-002
6.267782e+003,7.937101e-002
6.271639e+003,9.025053e-002
6.275496e+003,9.485601e-002
6.279353e+003,8.969226e-002
6.283210e+003,8.700881e-002
6.287067e+003,9.240843e-002
6.290924e+003,9.146123e-002
6.294781e+003,8.415072e-002
6.298638e+003,8.824655e-002
6.302496e+003,9.090901e-002
6.306353e+003,8.874706e-002
6.310209e+003,8.670116e-002
6.314067e+003,8.994025e-002
6.317924e+003,8.942114e-002
6.321781e+003,8.182597e-002
6.325638e+003,8.040094e-002
6.329495e+003,8.569241e-002
6.333352e+003,8.440807e-002
6.337209e+003,8.480492e-002
6.341066e+003,7.982775e-002
6.344923e+003,8.104109e-002
6.348780e+003,8.365326e-002
6.352638e+003,8.519766e-002
6.356495e+003,8.103146e-002
6.360352e+003,7.701705e-002
6.364209e+003,8.351228e-002
6.368066e+003,8.276115e-002
6.371923e+003,8.085517e-002
6.375780e+003,8.470645e-002
6.379637e+003,8.707104e-002
6.383494e+003,8.584981e-002
6.387352e+003,8.127943e-002
6.391208e+003,8.125493e-002
6.395065e+003,8.162680e-002
6.398923e+003,8.572987e-002
6.402780e+003,9.056062e-002
6.406637e+003,9.063879e-002
6.410494e+003,8.877365e-002
6.414351e+003,8.202299e-002
6.418208e+003,8.452060e-002
6.422065e+003,9.204078e-002
6.425922e+003,9.769808e-002
6.429779e+003,1.016205e-001
6.433637e+003,9.197161e-002
6.437494e+003,8.145613e-002
6.441351e+003,8.302093e-002
6.445208e+003,8.982585e-002
6.449065e+003,9.169152e-002
6.452922e+003,9.253494e-002
6.456779e+003,9.300226e-002
6.460636e+003,9.638536e-002
6.464493e+003,9.955248e-002
6.468351e+003,9.405301e-002
6.472208e+003,8.939749e-002
6.476064e+003,9.171551e-002
6.479922e+003,9.617154e-002
6.483779e+003,9.774716e-002
6.487636e+003,9.564456e-002
6.491493e+003,9.651320e-002
6.495350e+003,9.467100e-002
6.499207e+003,8.556541e-002
6.503064e+003,8.279153e-002
6.506921e+003,8.853690e-002
6.510778e+003,9.296125e-002
6.514636e+003,9.512107e-002
6.518493e+003,8.889126e-002
6.522350e+003,8.630213e-002
6.526207e+003,8.064682e-002
6.530064e+003,7.707758e-002
6.533921e+003,8.853860e-002
6.537778e+003,8.590577e-002
6.541635e+003,8.693247e-002
6.545492e+003,9.657744e-002
6.549350e+003,9.870777e-002
6.553207e+003,8.948449e-002
6.557063e+003,8.230296e-002
6.560921e+003,9.208710e-002
6.564778e+003,1.007877e-001
6.568635e+003,9.708508e-002
6.572492e+003,9.060304e-002
6.576349e+003,9.148389e-002
6.580206e+003,9.629395e-002
6.584063e+003,9.422561e-002
6.587920e+003,9.334936e-002
6.591777e+003,9.755681e-002
6.595635e+003,9.385461e-002
6.599492e+003,9.278091e-002
6.603349e+003,9.842642e-002
6.607206e+003,9.956115e-002
6.611063e+003,8.929154e-002
6.614920e+003,9.278029e-002
6.618777e+003,9.478124e-002
6.622634e+003,9.307459e-002
6.626491e+003,9.224860e-002
6.630349e+003,8.496216e-002
6.634206e+003,8.493701e-002
6.638063e+003,8.993507e-002
6.641920e+003,9.883210e-002
6.645777e+003,9.706805e-002
6.649634e+003,8.838899e-002
6.653491e+003,8.152808e-002
6.657348e+003,8.750349e-002
6.661205e+003,9.230470e-002
6.665063e+003,9.508065e-002
6.668919e+003,9.390388e-002
6.672776e+003,8.829105e-002
6.676634e+003,9.197231e-002
6.680491e+003,9.603467e-002
6.684348e+003,1.042032e-001
6.688205e+003,1.033747e-001
6.692062e+003,9.504394e-002
6.695919e+003,8.578259e-002
6.699776e+003,8.947154e-002
6.703633e+003,9.617709e-002
6.707490e+003,9.260794e-002
6.711348e+003,9.227687e-002
6.715205e+003,9.657706e-002
6.719062e+003,1.008407e-001
6.722919e+003,9.404647e-002
6.726776e+003,9.042991e-002
6.730633e+003,9.130420e-002
6.734490e+003,9.486648e-002
6.738347e+003,1.007664e-001
6.742204e+003,9.084774e-002
6.746062e+003,8.920112e-002
6.749918e+003,9.976514e-002
6.753775e+003,1.076961e-001
6.757633e+003,1.134369e-001
6.761490e+003,1.093794e-001
6.765347e+003,1.109156e-001
6.769204e+003,1.150768e-001
6.773061e+003,1.032465e-001
6.776918e+003,1.104240e-001
6.780775e+003,1.090246e-001
6.784632e+003,9.873938e-002
6.788489e+003,1.065382e-001
6.792347e+003,1.130566e-001
6.796204e+003,1.065700e-001
6.800061e+003,9.711632e-002
6.803918e+003,9.425681e-002
6.807775e+003,9.866635e-002
6.811632e+003,1.108084e-001
6.815489e+003,1.125305e-001
6.819346e+003,1.080988e-001
6.823203e+003,1.093837e-001
6.827061e+003,1.008352e-001
6.830917e+003,9.366649e-002
6.834774e+003,9.939158e-002
6.838632e+003,1.030993e-001
6.842489e+003,9.335154e-002
6.846346e+003,9.013280e-002
6.850203e+003,1.024333e-001
6.854060e+003,1.088473e-001
6.857917e+003,1.108709e-001
6.861774e+003,1.111113e-001
6.865631e+003,1.151196e-001
6.869488e+003,1.242669e-001
6.873346e+003,1.217158e-001
6.877203e+003,1.097282e-001
6.881060e+003,1.120462e-001
6.884917e+003,1.135613e-001
6.888774e+003,1.074975e-001
6.892631e+003,1.088619e-001
6.896488e+003,1.174689e-001
6.900345e+003,1.164363e-001
6.904202e+003,9.995691e-002
6.908060e+003,9.984181e-002
6.911917e+003,1.242130e-001
6.915773e+003,1.285230e-001
6.919631e+003,1.134372e-001
6.923488e+003,1.058047e-001
6.927345e+003,1.088090e-001
6.931202e+003,1.185834e-001
6.935059e+003,1.224857e-001
6.938916e+003,1.149248e-001
6.942773e+003,1.013866e-001
6.946630e+003,1.030532e-001
6.950487e+003,1.214515e-001
6.954345e+003,1.277117e-001
6.958202e+003,1.188794e-001
6.962059e+003,1.082143e-001
6.965916e+003,1.188139e-001
6.969773e+003,1.292347e-001
6.973630e+003,1.157475e-001
6.977487e+003,1.143984e-001
6.981344e+003,1.163033e-001
6.985201e+003,1.185222e-001
6.989059e+003,1.120653e-001
6.992916e+003,1.028037e-001
6.996772e+003,9.692724e-002
7.000630e+003,1.169602e-001
7.004487e+003,1.397801e-001
7.008344e+003,1.445502e-001
7.012201e+003,1.276613e-001
7.016058e+003,1.143603e-001
7.019915e+003,1.020389e-001
7.023772e+003,1.006639e-001
7.027629e+003,1.093539e-001
7.031486e+003,1.165513e-001
7.035344e+003,1.183829e-001
7.039201e+003,1.173638e-001
7.043058e+003,1.178456e-001
7.046915e+003,1.062251e-001
7.050772e+003,1.250674e-001
7.054629e+003,1.417701e-001
7.058486e+003,1.385443e-001
7.062343e+003,1.401180e-001
7.066200e+003,1.345540e-001
7.070058e+003,1.229458e-001
7.073915e+003,1.295028e-001
7.077771e+003,1.220818e-001
7.081629e+003,1.115086e-001
7.085486e+003,1.101479e-001
7.089343e+003,1.135228e-001
7.093200e+003,1.145976e-001
7.097057e+003,1.165267e-001
7.100914e+003,1.148721e-001
7.104771e+003,1.169348e-001
7.108628e+003,1.280632e-001
7.112485e+003,1.045864e-001
7.116343e+003,9.697069e-002
7.120200e+003,1.099986e-001
7.124057e+003,1.133036e-001
7.127914e+003,1.058652e-001
7.131771e+003,1.131482e-001
7.135628e+003,1.257308e-001
7.139485e+003,1.231850e-001
7.143342e+003,1.279922e-001
7.147199e+003,1.257115e-001
7.151057e+003,1.131143e-001
7.154914e+003,1.196485e-001
7.158771e+003,1.319678e-001
7.162628e+003,1.484624e-001
7.166485e+003,1.513062e-001
7.170342e+003,1.320707e-001
7.174199e+003,1.216494e-001
7.178056e+003,1.313343e-001
7.181913e+003,1.494735e-001
7.185771e+003,1.576102e-001
7.189627e+003,1.569538e-001
7.193484e+003,1.389739e-001
7.197342e+003,1.353729e-001
7.201199e+003,1.204716e-001
7.205056e+003,1.083966e-001
7.208913e+003,1.058292e-001
7.212770e+003,1.248753e-001
7.216627e+003,1.276078e-001
7.220484e+003,1.154342e-001
7.224341e+003,1.205990e-001
7.228198e+003,1.307695e-001
7.232056e+003,1.099134e-001
7.235913e+003,9.491125e-002
7.239770e+003,1.044943e-001
7.243627e+003,1.111453e-001
7.247484e+003,1.157200e-001
7.251341e+003,1.550926e-001
7.255198e+003,1.655032e-001
7.259055e+003,1.400985e-001
7.262912e+003,1.246345e-001
7.266770e+003,1.097016e-001
7.270626e+003,1.179535e-001
7.274483e+003,1.264998e-001
7.278341e+003,1.293282e-001
7.282198e+003,1.297174e-001
7.286055e+003,1.384800e-001
7.289912e+003,1.478561e-001
7.293769e+003,1.605899e-001
7.297626e+003,1.623607e-001
7.301483e+003,1.456040e-001
7.305340e+003,1.348868e-001
7.309197e+003,1.400754e-001
7.313055e+003,1.280663e-001
7.316912e+003,1.084506e-001
7.320769e+003,1.146464e-001
7.324626e+003,1.208139e-001
7.328483e+003,1.233663e-001
7.332340e+003,1.323625e-001
7.336197e+003,1.526477e-001
7.340054e+003,1.435564e-001
7.343911e+003,1.315455e-001
7.347769e+003,1.276926e-001
7.351625e+003,1.116383e-001
7.355482e+003,1.158156e-001
7.359340e+003,1.315356e-001
7.363197e+003,1.309113e-001
7.367054e+003,1.296133e-001
7.370911e+003,1.204415e-001
7.374768e+003,1.132415e-001
7.378625e+003,1.287622e-001
7.382482e+003,1.523163e-001
7.386339e+003,1.589016e-001
7.390196e+003,1.529595e-001
7.394054e+003,1.342080e-001
7.397911e+003,1.225515e-001
7.401768e+003,1.242467e-001
7.405625e+003,1.299969e-001
7.409482e+003,1.395167e-001
7.413339e+003,1.473238e-001
7.417196e+003,1.209617e-001
7.421053e+003,1.160795e-001
7.424910e+003,1.324343e-001
7.428768e+003,1.385017e-001
7.432625e+003,1.453206e-001
7.436481e+003,1.379788e-001
7.440339e+003,1.447417e-001
7.444196e+003,1.386610e-001
7.448053e+003,1.103863e-001
7.451910e+003,1.292846e-001
7.455767e+003,1.320761e-001
7.459624e+003,1.222865e-001
7.463481e+003,1.405741e-001
7.467338e+003,1.214884e-001
7.471195e+003,8.701031e-002
7.475053e+003,9.768102e-002
7.478910e+003,1.050356e-001
7.482767e+003,1.000132e-001
7.486624e+003,9.042130e-002
7.490481e+003,1.042929e-001
7.494338e+003,1.356413e-001
7.498195e+003,1.582814e-001
7.502052e+003,1.455272e-001
7.505909e+003,1.221273e-001
7.509767e+003,1.308617e-001
7.513624e+003,1.487641e-001
7.517480e+003,1.411668e-001
7.521338e+003,1.494676e-001
7.525195e+003,1.735297e-001
7.529052e+003,1.487098e-001
7.532909e+003,1.208649e-001
7.536766e+003,1.198230e-001
7.540623e+003,1.211053e-001
7.544480e+003,1.221160e-001
7.548337e+003,1.298313e-001
7.552194e+003,1.268604e-001
7.556052e+003,1.489915e-001
7.559909e+003,1.805601e-001
7.563766e+003,1.619199e-001
7.567623e+003,1.210447e-001
7.571480e+003,1.127749e-001
7.575337e+003,1.157252e-001
7.579194e+003,1.420789e-001
7.583051e+003,1.570307e-001
7.586908e+003,1.471660e-001
7.590766e+003,1.522997e-001
7.594623e+003,1.663348e-001
7.598479e+003,1.588327e-001
7.602337e+003,1.389468e-001
7.606194e+003,1.424443e-001
7.610051e+003,1.333011e-001
7.613908e+003,1.086519e-001
7.617765e+003,1.055263e-001
7.621622e+003,1.110720e-001
7.625479e+003,1.457918e-001
7.629336e+003,1.586441e-001
7.633193e+003,1.487089e-001
7.637051e+003,1.501254e-001
7.640908e+003,1.528528e-001
7.644765e+003,1.304262e-001
7.648622e+003,1.370435e-001
7.652479e+003,1.512933e-001
7.656336e+003,1.486701e-001
7.660193e+003,1.246029e-001
7.664050e+003,1.194260e-001
7.667907e+003,1.508823e-001
7.671765e+003,1.869547e-001
7.675622e+003,1.601605e-001
7.679479e+003,1.350733e-001
7.683336e+003,1.286725e-001
7.687193e+003,1.257474e-001
7.691050e+003,1.316929e-001
7.694907e+003,1.073905e-001
7.698764e+003,1.235797e-001
7.702621e+003,1.893296e-001
7.706479e+003,1.921967e-001
7.710335e+003,1.852818e-001
7.714192e+003,1.925469e-001
7.718050e+003,1.978846e-001
7.721907e+003,1.741358e-001
7.725764e+003,1.401783e-001
7.729621e+003,1.264963e-001
7.733478e+003,1.399422e-001
7.737335e+003,1.752567e-001
7.741192e+003,1.742139e-001
7.745049e+003,1.521010e-001
7.748906e+003,1.478515e-001
7.752764e+003,1.561011e-001
7.756621e+003,1.557193e-001
7.760478e+003,1.310320e-001
7.764335e+003,1.272150e-001
7.768192e+003,1.497033e-001
7.772049e+003,1.923911e-001
7.775906e+003,1.959150e-001
7.779763e+003,1.527331e-001
7.783620e+003,1.730020e-001
7.787478e+003,1.813770e-001
7.791334e+003,1.759342e-001
7.795191e+003,1.458427e-001
7.799049e+003,1.207924e-001
7.802906e+003,1.455210e-001
7.806763e+003,1.838301e-001
7.810620e+003,1.526166e-001
7.814477e+003,1.237764e-001
7.818334e+003,1.366242e-001
7.822191e+003,1.511094e-001
7.826048e+003,1.864999e-001
7.829905e+003,1.903705e-001
7.833763e+003,2.093691e-001
7.837620e+003,2.054180e-001
7.841477e+003,1.982188e-001
7.845334e+003,2.004136e-001
7.849191e+003,1.883825e-001
7.853048e+003,1.842636e-001
7.856905e+003,1.791310e-001
7.860762e+003,1.395546e-001
7.864619e+003,9.418827e-002
7.868477e+003,1.122993e-001
7.872333e+003,1.224750e-001
7.876190e+003,1.198022e-001
7.880048e+003,1.394693e-001
7.883905e+003,1.476308e-001
7.887762e+003,1.452818e-001
7.891619e+003,1.295615e-001
7.895476e+003,1.607000e-001
7.899333e+003,1.688899e-001
7.903190e+003,1.645715e-001
7.907047e+003,1.525639e-001
7.910904e+003,1.497105e-001
7.914762e+003,1.533507e-001
7.918619e+003,1.460251e-001
7.922476e+003,1.229776e-001
7.926333e+003,1.615683e-001
7.930190e+003,2.209014e-001
7.934047e+003,1.931136e-001
7.937904e+003,1.865195e-001
7.941761e+003,1.940289e-001
7.945618e+003,1.576899e-001
7.949476e+003,1.493834e-001
7.953333e+003,1.397691e-001
7.957189e+003,1.239575e-001
7.961047e+003,1.554846e-001
7.964904e+003,2.209852e-001
7.968761e+003,2.540864e-001
7.972618e+003,1.925057e-001
7.976475e+003,1.253558e-001
7.980332e+003,1.201197e-001
7.984189e+003,1.254723e-001
7.988046e+003,1.590322e-001
7.991903e+003,2.023147e-001
7.995761e+003,2.018748e-001
7.999618e+003,1.586749e-001
