4.011380e+002,6.000000e+000
4.049951e+002,6.000000e+000
4.088522e+002,6.000000e+000
4.127093e+002,-2.928366e+000
4.165664e+002,6.000000e+000
4.204235e+002,2.446238e-003
4.242806e+002,-5.341666e-001
4.281377e+002,7.596940e-001
4.319948e+002,2.960470e+000
4.358519e+002,3.024795e-002
4.397090e+002,5.120583e-001
4.435661e+002,1.458679e-001
4.474232e+002,-1.701923e+000
4.512803e+002,6.407105e-001
4.551374e+002,4.447191e-001
4.589945e+002,6.000000e+000
4.628516e+002,6.000000e+000
4.667087e+002,2.078500e-001
4.705658e+002,6.000000e+000
4.744229e+002,6.000000e+000
4.782800e+002,-3.477346e-001
4.821371e+002,-3.174390e-002
4.859941e+002,6.000000e+000
4.898513e+002,6.000000e+000
4.937083e+002,6.000000e+000
4.975654e+002,6.000000e+000
5.014225e+002,6.000000e+000
5.052796e+002,6.000000e+000
5.091367e+002,6.000000e+000
5.129938e+002,6.000000e+000
5.168509e+002,6.000000e+000
5.207080e+002,6.215625e-001
5.245651e+002,1.430154e+000
5.284222e+002,-1.610287e-001
5.322793e+002,-4.013182e-001
5.361364e+002,-8.987949e-002
5.399935e+002,-1.683723e-001
5.438506e+002,6.000000e+000
5.477077e+002,-8.745849e-001
5.515648e+002,6.000000e+000
5.554219e+002,-7.956830e-001
5.592790e+002,8.802197e-002
5.631361e+002,-1.003000e-001
5.669932e+002,6.000000e+000
5.708503e+002,-1.426942e-001
5.747074e+002,8.060207e-001
5.785645e+002,6.000000e+000
5.824216e+002,6.000000e+000
5.862787e+002,6.000000e+000
5.901357e+002,-7.584628e-001
5.939929e+002,-9.365639e-001
5.978499e+002,-7.385136e-001
6.017070e+002,-1.268511e+000
6.055641e+002,6.000000e+000
6.094212e+002,6.000000e+000
6.132783e+002,6.000000e+000
6.171354e+002,-1.308451e+000
6.209925e+002,-7.641603e-001
6.248496e+002,6.000000e+000
6.287067e+002,-7.194520e-001
6.325638e+002,6.000000e+000
6.364209e+002,1.220444e+000
6.402780e+002,-5.371084e-001
6.441351e+002,-4.521162e-002
6.479922e+002,-2.006719e+000
6.518493e+002,6.000000e+000
6.557064e+002,6.000000e+000
6.595635e+002,4.428558e-001
6.634205e+002,3.068250e-001
6.672777e+002,-9.746168e-003
6.711348e+002,6.000000e+000
6.749918e+002,6.000000e+000
6.788490e+002,6.000000e+000
6.827061e+002,6.000000e+000
6.865631e+002,2.267088e+000
6.904203e+002,6.000000e+000
6.942773e+002,6.000000e+000
6.981344e+002,6.000000e+000
7.019916e+002,6.000000e+000
7.058486e+002,6.000000e+000
7.097057e+002,-1.036142e+000
7.135629e+002,6.000000e+000
7.174199e+002,6.000000e+000
7.212770e+002,6.000000e+000
7.251342e+002,5.488970e-001
7.289912e+002,3.974047e-001
7.328483e+002,6.995707e-001
7.367054e+002,6.000000e+000
7.405625e+002,6.000000e+000
7.444196e+002,-4.718010e-001
7.482767e+002,-6.264907e-001
7.521338e+002,6.000000e+000
7.559908e+002,4.591432e-001
7.598480e+002,6.000000e+000
7.637051e+002,6.000000e+000
7.675621e+002,6.000000e+000
7.714193e+002,6.000000e+000
7.752764e+002,-1.101806e+000
7.791334e+002,6.000000e+000
7.829905e+002,6.000000e+000
7.868477e+002,6.000000e+000
7.907047e+002,6.000000e+000
7.945618e+002,6.000000e+000
7.984189e+002,-6.561203e-001
8.022760e+002,-5.422575e-001
8.061331e+002,6.000000e+000
8.099902e+002,-6.794747e-001
8.138473e+002,8.676475e-001
8.177044e+002,7.691631e-001
8.215615e+002,3.943451e-001
8.254186e+002,3.696549e-001
8.292757e+002,4.616269e-001
8.331328e+002,4.660118e-001
8.369899e+002,8.890350e-001
8.408470e+002,1.217528e+000
8.447041e+002,1.088209e+000
8.485612e+002,1.612848e+000
8.524183e+002,1.671717e+000
8.562754e+002,1.170190e+000
8.601324e+002,1.050385e+000
8.639896e+002,1.269609e+000
8.678467e+002,1.455909e+000
8.717037e+002,1.588289e+000
8.755609e+002,1.131881e+000
8.794180e+002,1.098373e+000
8.832750e+002,1.228377e+000
8.871321e+002,1.433536e+000
8.909893e+002,1.659005e+000
8.948463e+002,6.000000e+000
8.987034e+002,1.793672e+000
9.025605e+002,1.295200e+000
9.064176e+002,1.528496e+000
9.102747e+002,6.000000e+000
9.141318e+002,6.000000e+000
9.179889e+002,6.000000e+000
9.218461e+002,1.738246e+000
9.257031e+002,2.133330e+000
9.295602e+002,6.000000e+000
9.334174e+002,6.000000e+000
9.372744e+002,6.000000e+000
9.411315e+002,6.000000e+000
9.449886e+002,6.000000e+000
9.488457e+002,6.000000e+000
9.527028e+002,6.000000e+000
9.565599e+002,6.000000e+000
9.604170e+002,6.000000e+000
9.642740e+002,6.000000e+000
9.681312e+002,3.440583e+000
9.719883e+002,2.821176e+000
9.758453e+002,6.000000e+000
9.797025e+002,6.000000e+000
9.835596e+002,2.134615e+000
9.874166e+002,1.961705e+000
9.912738e+002,2.524657e+000
9.951309e+002,3.156895e+000
9.989879e+002,2.340854e+000
1.002845e+003,1.956306e+000
1.006702e+003,1.854065e+000
1.010559e+003,1.793756e+000
1.014416e+003,1.984743e+000
1.018273e+003,2.231620e+000
1.022130e+003,2.111853e+000
1.025988e+003,1.899706e+000
1.029845e+003,1.920366e+000
1.033702e+003,2.416023e+000
1.037559e+003,2.200074e+000
1.041416e+003,2.268478e+000
1.045273e+003,2.726804e+000
1.049130e+003,2.088196e+000
1.052987e+003,2.053943e+000
1.056844e+003,2.046089e+000
1.060702e+003,1.894114e+000
1.064559e+003,1.794312e+000
1.068416e+003,1.969078e+000
1.072273e+003,2.179909e+000
1.076130e+003,2.019171e+000
1.079987e+003,2.170514e+000
1.083844e+003,6.000000e+000
1.087701e+003,3.549047e+000
1.091558e+003,2.461939e+000
1.095415e+003,2.010419e+000
1.099272e+003,2.267726e+000
1.103130e+003,2.476275e+000
1.106987e+003,2.080472e+000
1.110844e+003,1.902907e+000
1.114701e+003,1.887703e+000
1.118558e+003,1.850733e+000
1.122415e+003,1.757781e+000
1.126272e+003,1.757366e+000
1.130129e+003,1.764893e+000
1.133986e+003,1.779932e+000
1.137843e+003,1.749046e+000
1.141701e+003,1.737796e+000
1.145558e+003,1.725912e+000
1.149415e+003,1.835790e+000
1.153272e+003,1.859121e+000
1.157129e+003,1.796392e+000
1.160986e+003,1.871634e+000
1.164843e+003,1.884591e+000
1.168700e+003,1.808786e+000
1.172557e+003,1.844824e+000
1.176414e+003,1.873394e+000
1.180271e+003,1.843242e+000
1.184129e+003,1.821199e+000
1.187986e+003,1.774767e+000
1.191843e+003,1.740909e+000
1.195700e+003,1.765509e+000
1.199557e+003,1.719403e+000
1.203414e+003,1.755570e+000
1.207271e+003,1.737723e+000
1.211128e+003,1.680744e+000
1.214985e+003,1.651354e+000
1.218842e+003,1.655467e+000
1.222699e+003,1.615521e+000
1.226557e+003,1.517368e+000
1.230414e+003,1.471344e+000
1.234271e+003,1.430190e+000
1.238128e+003,1.356346e+000
1.241985e+003,1.337047e+000
1.245842e+003,1.257488e+000
1.249699e+003,1.160926e+000
1.253556e+003,1.111962e+000
1.257413e+003,1.069604e+000
1.261271e+003,1.028840e+000
1.265128e+003,9.940485e-001
1.268985e+003,9.778777e-001
1.272842e+003,9.591861e-001
1.276699e+003,9.220452e-001
1.280556e+003,8.857798e-001
1.284413e+003,8.689012e-001
1.288270e+003,8.523752e-001
1.292127e+003,8.291675e-001
1.295984e+003,8.120046e-001
1.299841e+003,7.960370e-001
1.303698e+003,7.831031e-001
1.307556e+003,7.664803e-001
1.311413e+003,7.433611e-001
1.315270e+003,7.204986e-001
1.319127e+003,7.045851e-001
1.322984e+003,6.969280e-001
1.326841e+003,6.931887e-001
1.330698e+003,6.853775e-001
1.334555e+003,6.785718e-001
1.338412e+003,6.695762e-001
1.342270e+003,6.652552e-001
1.346127e+003,6.647565e-001
1.349984e+003,6.599891e-001
1.353841e+003,6.527075e-001
1.357698e+003,6.559145e-001
1.361555e+003,6.649981e-001
1.365412e+003,6.693659e-001
1.369269e+003,6.756025e-001
1.373126e+003,6.923243e-001
1.376983e+003,7.067265e-001
1.380840e+003,7.172724e-001
1.384698e+003,7.260774e-001
1.388555e+003,7.387363e-001
1.392412e+003,7.589531e-001
1.396269e+003,7.826431e-001
1.400126e+003,8.090656e-001
1.403983e+003,8.283610e-001
1.407840e+003,8.376188e-001
1.411697e+003,8.421891e-001
1.415554e+003,8.600504e-001
1.419411e+003,8.887545e-001
1.423269e+003,9.003201e-001
1.427126e+003,9.073898e-001
1.430983e+003,9.239749e-001
1.434840e+003,9.348643e-001
1.438697e+003,9.338225e-001
1.442554e+003,9.207904e-001
1.446411e+003,9.094028e-001
1.450268e+003,8.890526e-001
1.454125e+003,8.744554e-001
1.457982e+003,8.642312e-001
1.461839e+003,8.476908e-001
1.465697e+003,8.362362e-001
1.469554e+003,8.350385e-001
1.473411e+003,8.340042e-001
1.477268e+003,8.331195e-001
1.481125e+003,8.432193e-001
1.484982e+003,8.658302e-001
1.488839e+003,8.861493e-001
1.492696e+003,8.948432e-001
1.496553e+003,9.156690e-001
1.500411e+003,9.334357e-001
1.504268e+003,9.345959e-001
1.508125e+003,9.308964e-001
1.511982e+003,9.275541e-001
1.515839e+003,9.227089e-001
1.519696e+003,9.166494e-001
1.523553e+003,9.061742e-001
1.527410e+003,8.956977e-001
1.531267e+003,8.783370e-001
1.535124e+003,8.577533e-001
1.538981e+003,8.507398e-001
1.542839e+003,8.324544e-001
1.546696e+003,8.007237e-001
1.550553e+003,7.809340e-001
1.554410e+003,7.658495e-001
1.558267e+003,7.480666e-001
1.562124e+003,7.445604e-001
1.565981e+003,7.435467e-001
1.569838e+003,7.324181e-001
1.573695e+003,7.226500e-001
1.577552e+003,7.187642e-001
1.581410e+003,7.098727e-001
1.585267e+003,7.146590e-001
1.589124e+003,7.267014e-001
1.592981e+003,7.440528e-001
1.596838e+003,7.655987e-001
1.600695e+003,7.901385e-001
1.604552e+003,8.117510e-001
1.608409e+003,8.375347e-001
1.612266e+003,8.769811e-001
1.616123e+003,9.160489e-001
1.619980e+003,9.508873e-001
1.623838e+003,9.909352e-001
1.627695e+003,1.019107e+000
1.631552e+003,1.037177e+000
1.635409e+003,1.042726e+000
1.639266e+003,1.050476e+000
1.643123e+003,1.061436e+000
1.646980e+003,1.040088e+000
1.650837e+003,1.007653e+000
1.654694e+003,9.829898e-001
1.658551e+003,9.565445e-001
1.662409e+003,9.157542e-001
1.666266e+003,8.797159e-001
1.670123e+003,8.425828e-001
1.673980e+003,8.138945e-001
1.677837e+003,7.849402e-001
1.681694e+003,7.523522e-001
1.685551e+003,7.205449e-001
1.689408e+003,6.929845e-001
1.693265e+003,6.693549e-001
1.697122e+003,6.522933e-001
1.700979e+003,6.425363e-001
1.704837e+003,6.335167e-001
1.708694e+003,6.218636e-001
1.712551e+003,6.112389e-001
1.716408e+003,6.032107e-001
1.720265e+003,5.984097e-001
1.724122e+003,5.917425e-001
1.727979e+003,5.848529e-001
1.731836e+003,5.778741e-001
1.735693e+003,5.740354e-001
1.739550e+003,5.713981e-001
1.743408e+003,5.709774e-001
1.747265e+003,5.688878e-001
1.751122e+003,5.654160e-001
1.754979e+003,5.638427e-001
1.758836e+003,5.650076e-001
1.762693e+003,5.673612e-001
1.766550e+003,5.617426e-001
1.770407e+003,5.610012e-001
1.774264e+003,5.641735e-001
1.778121e+003,5.616908e-001
1.781979e+003,5.566977e-001
1.785836e+003,5.533879e-001
1.789693e+003,5.523312e-001
1.793550e+003,5.493595e-001
1.797407e+003,5.458272e-001
1.801264e+003,5.425927e-001
1.805121e+003,5.405403e-001
1.808978e+003,5.392967e-001
1.812835e+003,5.365639e-001
1.816692e+003,5.294158e-001
1.820549e+003,5.237696e-001
1.824407e+003,5.233171e-001
1.828264e+003,5.238961e-001
1.832121e+003,5.213192e-001
1.835978e+003,5.183839e-001
1.839835e+003,5.165415e-001
1.843692e+003,5.143407e-001
1.847549e+003,5.135508e-001
1.851406e+003,5.100217e-001
1.855263e+003,5.054457e-001
1.859120e+003,5.063236e-001
1.862978e+003,5.046181e-001
1.866835e+003,5.010211e-001
1.870692e+003,4.979313e-001
1.874549e+003,4.907385e-001
1.878406e+003,4.856799e-001
1.882263e+003,4.860536e-001
1.886120e+003,4.860935e-001
1.889977e+003,4.844181e-001
1.893834e+003,4.791190e-001
1.897691e+003,4.785023e-001
1.901548e+003,4.796084e-001
1.905406e+003,4.755983e-001
1.909263e+003,4.731188e-001
1.913120e+003,4.715784e-001
1.916977e+003,4.687513e-001
1.920834e+003,4.650572e-001
1.924691e+003,4.623848e-001
1.928548e+003,4.614025e-001
1.932405e+003,4.562716e-001
1.936262e+003,4.515173e-001
1.940119e+003,4.475991e-001
1.943977e+003,4.476514e-001
1.947834e+003,4.476379e-001
1.951691e+003,4.453094e-001
1.955548e+003,4.403409e-001
1.959405e+003,4.346389e-001
1.963262e+003,4.328358e-001
1.967119e+003,4.313558e-001
1.970976e+003,4.279576e-001
1.974833e+003,4.226046e-001
1.978690e+003,4.191597e-001
1.982547e+003,4.173321e-001
1.986405e+003,4.177950e-001
1.990262e+003,4.162858e-001
1.994119e+003,4.127888e-001
1.997976e+003,4.107589e-001
2.001833e+003,4.088546e-001
2.005690e+003,4.067792e-001
2.009547e+003,4.059290e-001
2.013404e+003,4.040750e-001
2.017261e+003,4.002041e-001
2.021118e+003,3.994451e-001
2.024976e+003,3.972388e-001
2.028833e+003,3.928507e-001
2.032690e+003,3.907967e-001
2.036547e+003,3.891774e-001
2.040404e+003,3.878953e-001
2.044261e+003,3.883332e-001
2.048118e+003,3.885242e-001
2.051975e+003,3.866464e-001
2.055832e+003,3.831641e-001
2.059689e+003,3.796889e-001
2.063546e+003,3.738980e-001
2.067404e+003,3.707028e-001
2.071261e+003,3.694354e-001
2.075118e+003,3.677481e-001
2.078975e+003,3.672710e-001
2.082832e+003,3.682120e-001
2.086689e+003,3.705410e-001
2.090546e+003,3.690888e-001
2.094403e+003,3.663256e-001
2.098260e+003,3.658654e-001
2.102117e+003,3.654898e-001
2.105975e+003,3.628744e-001
2.109832e+003,3.616787e-001
2.113689e+003,3.611149e-001
2.117546e+003,3.595421e-001
2.121403e+003,3.592075e-001
2.125260e+003,3.605584e-001
2.129117e+003,3.609100e-001
2.132974e+003,3.595999e-001
2.136831e+003,3.618402e-001
2.140688e+003,3.648101e-001
2.144545e+003,3.641838e-001
2.148403e+003,3.625453e-001
2.152260e+003,3.583823e-001
2.156117e+003,3.584403e-001
2.159974e+003,3.630224e-001
2.163831e+003,3.659708e-001
2.167688e+003,3.662623e-001
2.171545e+003,3.658653e-001
2.175402e+003,3.651774e-001
2.179259e+003,3.673968e-001
2.183116e+003,3.710364e-001
2.186974e+003,3.727960e-001
2.190831e+003,3.694171e-001
2.194688e+003,3.671857e-001
2.198545e+003,3.708867e-001
2.202402e+003,3.760458e-001
2.206259e+003,3.746978e-001
2.210116e+003,3.749919e-001
2.213973e+003,3.769233e-001
2.217830e+003,3.769927e-001
2.221688e+003,3.784601e-001
2.225544e+003,3.790596e-001
2.229402e+003,3.804757e-001
2.233259e+003,3.851902e-001
2.237116e+003,3.896157e-001
2.240973e+003,3.883551e-001
2.244830e+003,3.857242e-001
2.248687e+003,3.873519e-001
2.252544e+003,3.872323e-001
2.256401e+003,3.892606e-001
2.260258e+003,3.933666e-001
2.264115e+003,3.972984e-001
2.267973e+003,3.980735e-001
2.271830e+003,3.990041e-001
2.275687e+003,4.040810e-001
2.279544e+003,4.058190e-001
2.283401e+003,4.044268e-001
2.287258e+003,4.062191e-001
2.291115e+003,4.094387e-001
2.294972e+003,4.117810e-001
2.298829e+003,4.115896e-001
2.302687e+003,4.117081e-001
2.306543e+003,4.143544e-001
2.310401e+003,4.168313e-001
2.314258e+003,4.194558e-001
2.318115e+003,4.206858e-001
2.321972e+003,4.226443e-001
2.325829e+003,4.251377e-001
2.329686e+003,4.274263e-001
2.333543e+003,4.255632e-001
2.337400e+003,4.247899e-001
2.341257e+003,4.288611e-001
2.345115e+003,4.302377e-001
2.348972e+003,4.300815e-001
2.352829e+003,4.334612e-001
2.356686e+003,4.375892e-001
2.360543e+003,4.412464e-001
2.364400e+003,4.414961e-001
2.368257e+003,4.347532e-001
2.372114e+003,4.316627e-001
2.375971e+003,4.348385e-001
2.379828e+003,4.337235e-001
2.383686e+003,4.287466e-001
2.387542e+003,4.279853e-001
2.391400e+003,4.320106e-001
2.395257e+003,4.343430e-001
2.399114e+003,4.346411e-001
2.402971e+003,4.327853e-001
2.406828e+003,4.345061e-001
2.410685e+003,4.346571e-001
2.414542e+003,4.307125e-001
2.418399e+003,4.295849e-001
2.422256e+003,4.314519e-001
2.426114e+003,4.308958e-001
2.429971e+003,4.307403e-001
2.433828e+003,4.292828e-001
2.437685e+003,4.295647e-001
2.441542e+003,4.286141e-001
2.445399e+003,4.255176e-001
2.449256e+003,4.277582e-001
2.453113e+003,4.283271e-001
2.456970e+003,4.263622e-001
2.460827e+003,4.261231e-001
2.464684e+003,4.270211e-001
2.468542e+003,4.260374e-001
2.472399e+003,4.240749e-001
2.476256e+003,4.240423e-001
2.480113e+003,4.254896e-001
2.483970e+003,4.249104e-001
2.487827e+003,4.229038e-001
2.491684e+003,4.234171e-001
2.495541e+003,4.238958e-001
2.499398e+003,4.240729e-001
2.503255e+003,4.266123e-001
2.507113e+003,4.255847e-001
2.510969e+003,4.212486e-001
2.514827e+003,4.217037e-001
2.518684e+003,4.240032e-001
2.522541e+003,4.244207e-001
2.526398e+003,4.247764e-001
2.530255e+003,4.251476e-001
2.534112e+003,4.262501e-001
2.537969e+003,4.300078e-001
2.541826e+003,4.332332e-001
2.545683e+003,4.321949e-001
2.549541e+003,4.337949e-001
2.553398e+003,4.385636e-001
2.557255e+003,4.407597e-001
2.561112e+003,4.385345e-001
2.564969e+003,4.373826e-001
2.568826e+003,4.407223e-001
2.572683e+003,4.432659e-001
2.576540e+003,4.453188e-001
2.580397e+003,4.489255e-001
2.584254e+003,4.542007e-001
2.588112e+003,4.552328e-001
2.591969e+003,4.539537e-001
2.595826e+003,4.550613e-001
2.599683e+003,4.558336e-001
2.603540e+003,4.615652e-001
2.607397e+003,4.674435e-001
2.611254e+003,4.709955e-001
2.615111e+003,4.721656e-001
2.618968e+003,4.756163e-001
2.622825e+003,4.805990e-001
2.626682e+003,4.813696e-001
2.630540e+003,4.829598e-001
2.634397e+003,4.865271e-001
2.638254e+003,4.895301e-001
2.642111e+003,4.970921e-001
2.645968e+003,5.015283e-001
2.649825e+003,5.031677e-001
2.653682e+003,5.050702e-001
2.657539e+003,5.068372e-001
2.661396e+003,5.096348e-001
2.665253e+003,5.152509e-001
2.669111e+003,5.191480e-001
2.672968e+003,5.220674e-001
2.676825e+003,5.290570e-001
2.680682e+003,5.364529e-001
2.684539e+003,5.403858e-001
2.688396e+003,5.426742e-001
2.692253e+003,5.436472e-001
2.696110e+003,5.504218e-001
2.699967e+003,5.577230e-001
2.703824e+003,5.622365e-001
2.707681e+003,5.662193e-001
2.711539e+003,5.676385e-001
2.715396e+003,5.744022e-001
2.719253e+003,5.822777e-001
2.723110e+003,5.849750e-001
2.726967e+003,5.872006e-001
2.730824e+003,5.937185e-001
2.734681e+003,5.995244e-001
2.738538e+003,6.056205e-001
2.742395e+003,6.156946e-001
2.746252e+003,6.219474e-001
2.750110e+003,6.239706e-001
2.753967e+003,6.312060e-001
2.757824e+003,6.405408e-001
2.761681e+003,6.443368e-001
2.765538e+003,6.473418e-001
2.769395e+003,6.515540e-001
2.773252e+003,6.569803e-001
2.777109e+003,6.618800e-001
2.780966e+003,6.714202e-001
2.784823e+003,6.827129e-001
2.788680e+003,6.925119e-001
2.792538e+003,6.941494e-001
2.796395e+003,6.973132e-001
2.800252e+003,7.059775e-001
2.804109e+003,7.130601e-001
2.807966e+003,7.220956e-001
2.811823e+003,7.330884e-001
2.815680e+003,7.388864e-001
2.819537e+003,7.406875e-001
2.823394e+003,7.423409e-001
2.827251e+003,7.462848e-001
2.831109e+003,7.565916e-001
2.834966e+003,7.659734e-001
2.838823e+003,7.723705e-001
2.842680e+003,7.791717e-001
2.846537e+003,7.848895e-001
2.850394e+003,7.947788e-001
2.854251e+003,7.990124e-001
2.858108e+003,8.005348e-001
2.861965e+003,8.084869e-001
2.865823e+003,8.190951e-001
2.869679e+003,8.297822e-001
2.873537e+003,8.424845e-001
2.877394e+003,8.452387e-001
2.881251e+003,8.529995e-001
2.885108e+003,8.668825e-001
2.888965e+003,8.755205e-001
2.892822e+003,8.820964e-001
2.896679e+003,8.841554e-001
2.900536e+003,8.940241e-001
2.904393e+003,8.994910e-001
2.908250e+003,9.134966e-001
2.912108e+003,9.248556e-001
2.915965e+003,9.343079e-001
2.919822e+003,9.421138e-001
2.923679e+003,9.512546e-001
2.927536e+003,9.485036e-001
2.931393e+003,9.458634e-001
2.935250e+003,9.554136e-001
2.939107e+003,9.802512e-001
2.942964e+003,1.002137e+000
2.946822e+003,9.973691e-001
2.950678e+003,9.894513e-001
2.954536e+003,1.009680e+000
2.958393e+003,1.018103e+000
2.962250e+003,1.020517e+000
2.966107e+003,1.043436e+000
2.969964e+003,1.054596e+000
2.973821e+003,1.054742e+000
2.977678e+003,1.055664e+000
2.981535e+003,1.076519e+000
2.985392e+003,1.098320e+000
2.989250e+003,1.104054e+000
2.993107e+003,1.107445e+000
2.996964e+003,1.104877e+000
3.000821e+003,1.106814e+000
3.004678e+003,1.116742e+000
3.008535e+003,1.130520e+000
3.012392e+003,1.152869e+000
3.016249e+003,1.176446e+000
3.020106e+003,1.173120e+000
3.023963e+003,1.178090e+000
3.027821e+003,1.178302e+000
3.031677e+003,1.178347e+000
3.035535e+003,1.176952e+000
3.039392e+003,1.183865e+000
3.043249e+003,1.199362e+000
3.047106e+003,1.224193e+000
3.050963e+003,1.227080e+000
3.054820e+003,1.221078e+000
3.058677e+003,1.248885e+000
3.062534e+003,1.258617e+000
3.066391e+003,1.243293e+000
3.070249e+003,1.275218e+000
3.074106e+003,1.301777e+000
3.077963e+003,1.277864e+000
3.081820e+003,1.281851e+000
3.085677e+003,1.311918e+000
3.089534e+003,1.341608e+000
3.093391e+003,1.352195e+000
3.097248e+003,1.353870e+000
3.101105e+003,1.337340e+000
3.104962e+003,1.343614e+000
3.108820e+003,1.371201e+000
3.112677e+003,1.387885e+000
3.116534e+003,1.398217e+000
3.120391e+003,1.390869e+000
3.124248e+003,1.387398e+000
3.128105e+003,1.399870e+000
3.131962e+003,1.410690e+000
3.135819e+003,1.418135e+000
3.139676e+003,1.411514e+000
3.143533e+003,1.439037e+000
3.147390e+003,1.446562e+000
3.151248e+003,1.431816e+000
3.155105e+003,1.438213e+000
3.158962e+003,1.477473e+000
3.162819e+003,1.495161e+000
3.166676e+003,1.486271e+000
3.170533e+003,1.487060e+000
3.174390e+003,1.466359e+000
3.178247e+003,1.495301e+000
3.182104e+003,1.544783e+000
3.185961e+003,1.560399e+000
3.189819e+003,1.566889e+000
3.193676e+003,1.587544e+000
3.197533e+003,1.552643e+000
3.201390e+003,1.505084e+000
3.205247e+003,1.554411e+000
3.209104e+003,1.560990e+000
3.212961e+003,1.557289e+000
3.216818e+003,1.570100e+000
3.220675e+003,1.579898e+000
3.224532e+003,1.583502e+000
3.228389e+003,1.565414e+000
3.232247e+003,1.579863e+000
3.236104e+003,1.616535e+000
3.239961e+003,1.602144e+000
3.243818e+003,1.616831e+000
3.247675e+003,1.635434e+000
3.251532e+003,1.610729e+000
3.255389e+003,1.607469e+000
3.259246e+003,1.624824e+000
3.263103e+003,1.658182e+000
3.266960e+003,1.654007e+000
3.270818e+003,1.638800e+000
3.274675e+003,1.700941e+000
3.278532e+003,1.723316e+000
3.282389e+003,1.663292e+000
3.286246e+003,1.619370e+000
3.290103e+003,1.614496e+000
3.293960e+003,1.667976e+000
3.297817e+003,1.708224e+000
3.301674e+003,1.776324e+000
3.305531e+003,1.805961e+000
3.309388e+003,1.721737e+000
3.313246e+003,1.638206e+000
3.317103e+003,1.622754e+000
3.320960e+003,1.642271e+000
3.324817e+003,1.664832e+000
3.328674e+003,1.710189e+000
3.332531e+003,1.690702e+000
3.336388e+003,1.684554e+000
3.340245e+003,1.702315e+000
3.344102e+003,1.697029e+000
3.347959e+003,1.725727e+000
3.351817e+003,1.720527e+000
3.355674e+003,1.726800e+000
3.359531e+003,1.744868e+000
3.363388e+003,1.706852e+000
3.367245e+003,1.720713e+000
3.371102e+003,1.784715e+000
3.374959e+003,1.789916e+000
3.378816e+003,1.759074e+000
3.382673e+003,1.710309e+000
3.386530e+003,1.653614e+000
3.390387e+003,1.693512e+000
3.394245e+003,1.759170e+000
3.398102e+003,1.809440e+000
3.401959e+003,1.814245e+000
3.405816e+003,1.887341e+000
3.409673e+003,1.849267e+000
3.413530e+003,1.765798e+000
3.417387e+003,1.719935e+000
3.421244e+003,1.744915e+000
3.425101e+003,1.777343e+000
3.428958e+003,1.756942e+000
3.432815e+003,1.707207e+000
3.436673e+003,1.756176e+000
3.440530e+003,1.868742e+000
3.444387e+003,1.856207e+000
3.448244e+003,1.862687e+000
3.452101e+003,1.813684e+000
3.455958e+003,1.700393e+000
3.459815e+003,1.714756e+000
3.463672e+003,1.758497e+000
3.467529e+003,1.771441e+000
3.471386e+003,1.869580e+000
3.475244e+003,1.881704e+000
3.479101e+003,1.814530e+000
3.482958e+003,1.820015e+000
3.486815e+003,1.902801e+000
3.490672e+003,1.998470e+000
3.494529e+003,1.857700e+000
3.498386e+003,1.856649e+000
3.502243e+003,1.931977e+000
3.506100e+003,1.895187e+000
3.509958e+003,1.821885e+000
3.513814e+003,1.768667e+000
3.517672e+003,1.791992e+000
3.521529e+003,1.843358e+000
3.525386e+003,1.931335e+000
3.529243e+003,2.000625e+000
3.533100e+003,2.010722e+000
3.536957e+003,2.024573e+000
3.540814e+003,1.871454e+000
3.544671e+003,1.800051e+000
3.548528e+003,1.818228e+000
3.552385e+003,1.909134e+000
3.556243e+003,2.039387e+000
3.560100e+003,1.887093e+000
3.563957e+003,1.768791e+000
3.567814e+003,1.777132e+000
3.571671e+003,1.814427e+000
3.575528e+003,1.916266e+000
3.579385e+003,1.872170e+000
3.583242e+003,1.766703e+000
3.587099e+003,1.725476e+000
3.590957e+003,1.710026e+000
3.594813e+003,1.714806e+000
3.598671e+003,1.728695e+000
3.602528e+003,1.748857e+000
3.606385e+003,1.664651e+000
3.610242e+003,1.603154e+000
3.614099e+003,1.556037e+000
3.617956e+003,1.540174e+000
3.621813e+003,1.484404e+000
3.625670e+003,1.381962e+000
3.629527e+003,1.294306e+000
3.633385e+003,1.213042e+000
3.637242e+003,1.147782e+000
3.641099e+003,1.066363e+000
3.644956e+003,9.889513e-001
3.648813e+003,9.089767e-001
3.652670e+003,8.202633e-001
3.656527e+003,7.481645e-001
3.660384e+003,6.805499e-001
3.664241e+003,6.207814e-001
3.668098e+003,5.650173e-001
3.671956e+003,5.106373e-001
3.675813e+003,4.672759e-001
3.679670e+003,4.309354e-001
3.683527e+003,3.991494e-001
3.687384e+003,3.746773e-001
3.691241e+003,3.462048e-001
3.695098e+003,3.179192e-001
3.698955e+003,2.983072e-001
3.702812e+003,2.829421e-001
3.706669e+003,2.689999e-001
3.710526e+003,2.569149e-001
3.714384e+003,2.474956e-001
3.718241e+003,2.390002e-001
3.722098e+003,2.326571e-001
3.725955e+003,2.300424e-001
3.729812e+003,2.236432e-001
3.733669e+003,2.175437e-001
3.737526e+003,2.149530e-001
3.741383e+003,2.122823e-001
3.745240e+003,2.069345e-001
3.749097e+003,2.029372e-001
3.752955e+003,2.011839e-001
3.756812e+003,1.990805e-001
3.760669e+003,1.983729e-001
3.764526e+003,1.970646e-001
3.768383e+003,1.958632e-001
3.772240e+003,1.967667e-001
3.776097e+003,1.956283e-001
3.779954e+003,1.946774e-001
3.783811e+003,1.928646e-001
3.787668e+003,1.886385e-001
3.791525e+003,1.875104e-001
3.795383e+003,1.870293e-001
3.799240e+003,1.852098e-001
3.803097e+003,1.850154e-001
3.806954e+003,1.851869e-001
3.810811e+003,1.862553e-001
3.814668e+003,1.851147e-001
3.818525e+003,1.827782e-001
3.822382e+003,1.819831e-001
3.826239e+003,1.824046e-001
3.830096e+003,1.815407e-001
3.833954e+003,1.811885e-001
3.837811e+003,1.799750e-001
3.841668e+003,1.796808e-001
3.845525e+003,1.805014e-001
3.849382e+003,1.812683e-001
3.853239e+003,1.807061e-001
3.857096e+003,1.834481e-001
3.860953e+003,1.818834e-001
3.864810e+003,1.796616e-001
3.868667e+003,1.791725e-001
3.872524e+003,1.802292e-001
3.876382e+003,1.811269e-001
3.880239e+003,1.807037e-001
3.884096e+003,1.798798e-001
3.887953e+003,1.773599e-001
3.891810e+003,1.736114e-001
3.895667e+003,1.753528e-001
3.899524e+003,1.775912e-001
3.903381e+003,1.782679e-001
3.907238e+003,1.790126e-001
3.911095e+003,1.772233e-001
3.914953e+003,1.767323e-001
3.918810e+003,1.789119e-001
3.922667e+003,1.784012e-001
3.926524e+003,1.764980e-001
3.930381e+003,1.759350e-001
3.934238e+003,1.752194e-001
3.938095e+003,1.725365e-001
3.941952e+003,1.722770e-001
3.945809e+003,1.731216e-001
3.949667e+003,1.750031e-001
3.953523e+003,1.750273e-001
3.957381e+003,1.711020e-001
3.961238e+003,1.694164e-001
3.965095e+003,1.717577e-001
3.968952e+003,1.720064e-001
3.972809e+003,1.688438e-001
3.976666e+003,1.693264e-001
3.980523e+003,1.701344e-001
3.984380e+003,1.688049e-001
3.988237e+003,1.674014e-001
3.992094e+003,1.647412e-001
3.995952e+003,1.660477e-001
3.999809e+003,1.683517e-001
4.003666e+003,1.669446e-001
4.007523e+003,1.659210e-001
4.011380e+003,1.680647e-001
4.015237e+003,1.702879e-001
4.019094e+003,1.681113e-001
4.022951e+003,1.667946e-001
4.026808e+003,1.661897e-001
4.030666e+003,1.653342e-001
4.034522e+003,1.617202e-001
4.038380e+003,1.581877e-001
4.042237e+003,1.578478e-001
4.046094e+003,1.621177e-001
4.049951e+003,1.648830e-001
4.053808e+003,1.628525e-001
4.057665e+003,1.634783e-001
4.061522e+003,1.643801e-001
4.065379e+003,1.639452e-001
4.069236e+003,1.618187e-001
4.073094e+003,1.603274e-001
4.076951e+003,1.603293e-001
4.080808e+003,1.629751e-001
4.084665e+003,1.618850e-001
4.088522e+003,1.571778e-001
4.092379e+003,1.570458e-001
4.096236e+003,1.561165e-001
4.100093e+003,1.522251e-001
4.103950e+003,1.506914e-001
4.107808e+003,1.549356e-001
4.111665e+003,1.576736e-001
4.115521e+003,1.571528e-001
4.119379e+003,1.571980e-001
4.123236e+003,1.577207e-001
4.127093e+003,1.564537e-001
4.130950e+003,1.519326e-001
4.134807e+003,1.490421e-001
4.138664e+003,1.500270e-001
4.142521e+003,1.537750e-001
4.146378e+003,1.534394e-001
4.150235e+003,1.504015e-001
4.154093e+003,1.496052e-001
4.157950e+003,1.494920e-001
4.161807e+003,1.491538e-001
4.165664e+003,1.512667e-001
4.169521e+003,1.524587e-001
4.173378e+003,1.541190e-001
4.177235e+003,1.542548e-001
4.181092e+003,1.503399e-001
4.184949e+003,1.483212e-001
4.188807e+003,1.479001e-001
4.192664e+003,1.467965e-001
4.196521e+003,1.454256e-001
4.200378e+003,1.459125e-001
4.204235e+003,1.472983e-001
4.208092e+003,1.471591e-001
4.211949e+003,1.500062e-001
4.215806e+003,1.541163e-001
4.219663e+003,1.526301e-001
4.223521e+003,1.494243e-001
4.227377e+003,1.480832e-001
4.231234e+003,1.495781e-001
4.235092e+003,1.478051e-001
4.238949e+003,1.452251e-001
4.242806e+003,1.467361e-001
4.246663e+003,1.490375e-001
4.250520e+003,1.467988e-001
4.254377e+003,1.448429e-001
4.258234e+003,1.444704e-001
4.262091e+003,1.452265e-001
4.265948e+003,1.468670e-001
4.269806e+003,1.499958e-001
4.273663e+003,1.511590e-001
4.277520e+003,1.520658e-001
4.281377e+003,1.512263e-001
4.285234e+003,1.510998e-001
4.289091e+003,1.518149e-001
4.292948e+003,1.505405e-001
4.296805e+003,1.495865e-001
4.300662e+003,1.495679e-001
4.304520e+003,1.477274e-001
4.308376e+003,1.468490e-001
4.312233e+003,1.497447e-001
4.316091e+003,1.539142e-001
4.319948e+003,1.551228e-001
4.323805e+003,1.526472e-001
4.327662e+003,1.500744e-001
4.331519e+003,1.481165e-001
4.335376e+003,1.474037e-001
4.339233e+003,1.498076e-001
4.343090e+003,1.511305e-001
4.346947e+003,1.540365e-001
4.350805e+003,1.546921e-001
4.354662e+003,1.519510e-001
4.358519e+003,1.546864e-001
4.362376e+003,1.635666e-001
4.366233e+003,1.616957e-001
4.370090e+003,1.562454e-001
4.373947e+003,1.570432e-001
4.377804e+003,1.594155e-001
4.381661e+003,1.598979e-001
4.385519e+003,1.580398e-001
4.389375e+003,1.607468e-001
4.393232e+003,1.614719e-001
4.397090e+003,1.567716e-001
4.400947e+003,1.580068e-001
4.404804e+003,1.618523e-001
4.408661e+003,1.612882e-001
4.412518e+003,1.650417e-001
4.416375e+003,1.656399e-001
4.420232e+003,1.625772e-001
4.424089e+003,1.623381e-001
4.427946e+003,1.675187e-001
4.431804e+003,1.695895e-001
4.435661e+003,1.650188e-001
4.439518e+003,1.647826e-001
4.443375e+003,1.646947e-001
4.447232e+003,1.636039e-001
4.451089e+003,1.620415e-001
4.454946e+003,1.631053e-001
4.458803e+003,1.638737e-001
4.462660e+003,1.635121e-001
4.466518e+003,1.670627e-001
4.470375e+003,1.704266e-001
4.474231e+003,1.670133e-001
4.478089e+003,1.650532e-001
4.481946e+003,1.657268e-001
4.485803e+003,1.663110e-001
4.489660e+003,1.674723e-001
4.493517e+003,1.658573e-001
4.497375e+003,1.660633e-001
4.501231e+003,1.652465e-001
4.505088e+003,1.635544e-001
4.508946e+003,1.627636e-001
4.512803e+003,1.643997e-001
4.516660e+003,1.640322e-001
4.520517e+003,1.631128e-001
4.524374e+003,1.645235e-001
4.528231e+003,1.650103e-001
4.532088e+003,1.639790e-001
4.535945e+003,1.660872e-001
4.539802e+003,1.683248e-001
4.543660e+003,1.665133e-001
4.547517e+003,1.623745e-001
4.551374e+003,1.618233e-001
4.555231e+003,1.628963e-001
4.559088e+003,1.618274e-001
4.562945e+003,1.609168e-001
4.566802e+003,1.561459e-001
4.570659e+003,1.571730e-001
4.574516e+003,1.609974e-001
4.578374e+003,1.587853e-001
4.582230e+003,1.568001e-001
4.586087e+003,1.572019e-001
4.589945e+003,1.558252e-001
4.593802e+003,1.546878e-001
4.597659e+003,1.554420e-001
4.601516e+003,1.569871e-001
4.605373e+003,1.584076e-001
4.609230e+003,1.603201e-001
4.613087e+003,1.616407e-001
4.616944e+003,1.584183e-001
4.620801e+003,1.521408e-001
4.624659e+003,1.505029e-001
4.628516e+003,1.564854e-001
4.632373e+003,1.589021e-001
4.636230e+003,1.553724e-001
4.640087e+003,1.537235e-001
4.643944e+003,1.540405e-001
4.647801e+003,1.544150e-001
4.651658e+003,1.528052e-001
4.655515e+003,1.543904e-001
4.659373e+003,1.568427e-001
4.663229e+003,1.606182e-001
4.667086e+003,1.632847e-001
4.670944e+003,1.554390e-001
4.674801e+003,1.505382e-001
4.678658e+003,1.527464e-001
4.682515e+003,1.561193e-001
4.686372e+003,1.570629e-001
4.690229e+003,1.538473e-001
4.694086e+003,1.536548e-001
4.697943e+003,1.596699e-001
4.701800e+003,1.586996e-001
4.705658e+003,1.523592e-001
4.709515e+003,1.509686e-001
4.713372e+003,1.531827e-001
4.717229e+003,1.564344e-001
4.721086e+003,1.579614e-001
4.724943e+003,1.564129e-001
4.728800e+003,1.572218e-001
4.732657e+003,1.549702e-001
4.736514e+003,1.544638e-001
4.740372e+003,1.583486e-001
4.744229e+003,1.593043e-001
4.748085e+003,1.562648e-001
4.751943e+003,1.565845e-001
4.755800e+003,1.604455e-001
4.759657e+003,1.618248e-001
4.763514e+003,1.598262e-001
4.767371e+003,1.581288e-001
4.771228e+003,1.519889e-001
4.775085e+003,1.539215e-001
4.778942e+003,1.551127e-001
4.782799e+003,1.551981e-001
4.786657e+003,1.579767e-001
4.790514e+003,1.565319e-001
4.794371e+003,1.543352e-001
4.798228e+003,1.569097e-001
4.802085e+003,1.576067e-001
4.805942e+003,1.528845e-001
4.809799e+003,1.501233e-001
4.813656e+003,1.561474e-001
4.817513e+003,1.595832e-001
4.821371e+003,1.576456e-001
4.825228e+003,1.591413e-001
4.829084e+003,1.649418e-001
4.832942e+003,1.657905e-001
4.836799e+003,1.622695e-001
4.840656e+003,1.662263e-001
4.844513e+003,1.677199e-001
4.848370e+003,1.632481e-001
4.852227e+003,1.607409e-001
4.856084e+003,1.621097e-001
4.859941e+003,1.618582e-001
4.863798e+003,1.616661e-001
4.867656e+003,1.602131e-001
4.871513e+003,1.587944e-001
4.875370e+003,1.585017e-001
4.879227e+003,1.568821e-001
4.883084e+003,1.622995e-001
4.886941e+003,1.671918e-001
4.890798e+003,1.678043e-001
4.894655e+003,1.656643e-001
4.898512e+003,1.674042e-001
4.902370e+003,1.693389e-001
4.906227e+003,1.637024e-001
4.910083e+003,1.660652e-001
4.913941e+003,1.717715e-001
4.917798e+003,1.673250e-001
4.921655e+003,1.662844e-001
4.925512e+003,1.685873e-001
4.929369e+003,1.656258e-001
4.933226e+003,1.656198e-001
4.937083e+003,1.677778e-001
4.940940e+003,1.715741e-001
4.944797e+003,1.737594e-001
4.948655e+003,1.733574e-001
4.952512e+003,1.728688e-001
4.956369e+003,1.670356e-001
4.960226e+003,1.669679e-001
4.964083e+003,1.690366e-001
4.967940e+003,1.696806e-001
4.971797e+003,1.735817e-001
4.975654e+003,1.747087e-001
4.979511e+003,1.720815e-001
4.983369e+003,1.672074e-001
4.987226e+003,1.723519e-001
4.991083e+003,1.830826e-001
4.994940e+003,1.838818e-001
4.998797e+003,1.779247e-001
5.002654e+003,1.793507e-001
5.006511e+003,1.806942e-001
5.010368e+003,1.790879e-001
5.014225e+003,1.771624e-001
5.018083e+003,1.730527e-001
5.021939e+003,1.690624e-001
5.025796e+003,1.765354e-001
5.029654e+003,1.796075e-001
5.033511e+003,1.782484e-001
5.037368e+003,1.783168e-001
5.041225e+003,1.801465e-001
5.045082e+003,1.827455e-001
5.048939e+003,1.784842e-001
5.052796e+003,1.761738e-001
5.056653e+003,1.779649e-001
5.060510e+003,1.816396e-001
5.064368e+003,1.818034e-001
5.068225e+003,1.787959e-001
5.072082e+003,1.774762e-001
5.075939e+003,1.828108e-001
5.079796e+003,1.862496e-001
5.083653e+003,1.828891e-001
5.087510e+003,1.855014e-001
5.091367e+003,1.904294e-001
5.095224e+003,1.903472e-001
5.099082e+003,1.874174e-001
5.102938e+003,1.846195e-001
5.106795e+003,1.813078e-001
5.110653e+003,1.794938e-001
5.114510e+003,1.818263e-001
5.118367e+003,1.887772e-001
5.122224e+003,1.896596e-001
5.126081e+003,1.837909e-001
5.129938e+003,1.765699e-001
5.133795e+003,1.752793e-001
5.137652e+003,1.863703e-001
5.141509e+003,1.915636e-001
5.145367e+003,1.905807e-001
5.149224e+003,1.876816e-001
5.153081e+003,1.862233e-001
5.156938e+003,1.894300e-001
5.160795e+003,1.936092e-001
5.164652e+003,1.942147e-001
5.168509e+003,1.873993e-001
5.172366e+003,1.845683e-001
5.176223e+003,1.851200e-001
5.180081e+003,1.882202e-001
5.183938e+003,1.909060e-001
5.187794e+003,1.858330e-001
5.191652e+003,1.885593e-001
5.195509e+003,1.913858e-001
5.199366e+003,1.872780e-001
5.203223e+003,1.865086e-001
5.207080e+003,1.873711e-001
5.210937e+003,1.871963e-001
5.214794e+003,1.869698e-001
5.218651e+003,1.905528e-001
5.222508e+003,1.897007e-001
5.226366e+003,1.865063e-001
5.230223e+003,1.872180e-001
5.234080e+003,1.878424e-001
5.237937e+003,1.849452e-001
5.241794e+003,1.886321e-001
5.245651e+003,1.906938e-001
5.249508e+003,1.876603e-001
5.253365e+003,1.791162e-001
5.257222e+003,1.744887e-001
5.261080e+003,1.709704e-001
5.264937e+003,1.742576e-001
5.268793e+003,1.767320e-001
5.272651e+003,1.767074e-001
5.276508e+003,1.755968e-001
5.280365e+003,1.761966e-001
5.284222e+003,1.756652e-001
5.288079e+003,1.761416e-001
5.291936e+003,1.770186e-001
5.295793e+003,1.720072e-001
5.299650e+003,1.740703e-001
5.303507e+003,1.801018e-001
5.307365e+003,1.818393e-001
5.311222e+003,1.759961e-001
5.315079e+003,1.721150e-001
5.318936e+003,1.686707e-001
5.322793e+003,1.691496e-001
5.326650e+003,1.726163e-001
5.330507e+003,1.713503e-001
5.334364e+003,1.669965e-001
5.338221e+003,1.680071e-001
5.342079e+003,1.721967e-001
5.345936e+003,1.697212e-001
5.349792e+003,1.679759e-001
5.353650e+003,1.691674e-001
5.357507e+003,1.696161e-001
5.361364e+003,1.711668e-001
5.365221e+003,1.673273e-001
5.369078e+003,1.700239e-001
5.372935e+003,1.748704e-001
5.376792e+003,1.698760e-001
5.380649e+003,1.698561e-001
5.384506e+003,1.737418e-001
5.388364e+003,1.723020e-001
5.392221e+003,1.688440e-001
5.396078e+003,1.688826e-001
5.399935e+003,1.698995e-001
5.403792e+003,1.694694e-001
5.407649e+003,1.663694e-001
5.411506e+003,1.631516e-001
5.415363e+003,1.681781e-001
5.419220e+003,1.692708e-001
5.423078e+003,1.654805e-001
5.426935e+003,1.668279e-001
5.430792e+003,1.666337e-001
5.434649e+003,1.668462e-001
5.438506e+003,1.682002e-001
5.442363e+003,1.698495e-001
5.446220e+003,1.698388e-001
5.450077e+003,1.659102e-001
5.453934e+003,1.683176e-001
5.457792e+003,1.762998e-001
5.461648e+003,1.749719e-001
5.465505e+003,1.739213e-001
5.469363e+003,1.725038e-001
5.473220e+003,1.662957e-001
5.477077e+003,1.623319e-001
5.480934e+003,1.620338e-001
5.484791e+003,1.626114e-001
5.488648e+003,1.654860e-001
5.492505e+003,1.667383e-001
5.496362e+003,1.729538e-001
5.500219e+003,1.727621e-001
5.504077e+003,1.744973e-001
5.507934e+003,1.758275e-001
5.511791e+003,1.718460e-001
5.515648e+003,1.741068e-001
5.519505e+003,1.835684e-001
5.523362e+003,1.869210e-001
5.527219e+003,1.842969e-001
5.531076e+003,1.812298e-001
5.534933e+003,1.787073e-001
5.538791e+003,1.760470e-001
5.542647e+003,1.728740e-001
5.546504e+003,1.735791e-001
5.550362e+003,1.756390e-001
5.554219e+003,1.727864e-001
5.558076e+003,1.786310e-001
5.561933e+003,1.805615e-001
5.565790e+003,1.708280e-001
5.569647e+003,1.733982e-001
5.573504e+003,1.782331e-001
5.577361e+003,1.822625e-001
5.581218e+003,1.835138e-001
5.585076e+003,1.756757e-001
5.588933e+003,1.716129e-001
5.592790e+003,1.737125e-001
5.596647e+003,1.793359e-001
5.600504e+003,1.828861e-001
5.604361e+003,1.803191e-001
5.608218e+003,1.770409e-001
5.612075e+003,1.810252e-001
5.615932e+003,1.791507e-001
5.619790e+003,1.742850e-001
5.623646e+003,1.763537e-001
5.627503e+003,1.762207e-001
5.631361e+003,1.741121e-001
5.635218e+003,1.733723e-001
5.639075e+003,1.775056e-001
5.642932e+003,1.783409e-001
5.646789e+003,1.749973e-001
5.650646e+003,1.785657e-001
5.654503e+003,1.797377e-001
5.658360e+003,1.849164e-001
5.662217e+003,1.839080e-001
5.666075e+003,1.813492e-001
5.669932e+003,1.835065e-001
5.673789e+003,1.767800e-001
5.677646e+003,1.684380e-001
5.681503e+003,1.786705e-001
5.685360e+003,1.850155e-001
5.689217e+003,1.829973e-001
5.693074e+003,1.856210e-001
5.696931e+003,1.805734e-001
5.700789e+003,1.767038e-001
5.704646e+003,1.762566e-001
5.708502e+003,1.725116e-001
5.712360e+003,1.767192e-001
5.716217e+003,1.726840e-001
5.720074e+003,1.655707e-001
5.723931e+003,1.794184e-001
5.727788e+003,1.849419e-001
5.731645e+003,1.780107e-001
5.735502e+003,1.714991e-001
5.739359e+003,1.743957e-001
5.743216e+003,1.779659e-001
5.747074e+003,1.815459e-001
5.750931e+003,1.848178e-001
5.754788e+003,1.826904e-001
5.758645e+003,1.808208e-001
5.762502e+003,1.814422e-001
5.766359e+003,1.823316e-001
5.770216e+003,1.821845e-001
5.774073e+003,1.768726e-001
5.777930e+003,1.737360e-001
5.781788e+003,1.816445e-001
5.785645e+003,1.761966e-001
5.789501e+003,1.712985e-001
5.793359e+003,1.811012e-001
5.797216e+003,1.809349e-001
5.801073e+003,1.777987e-001
5.804930e+003,1.767849e-001
5.808787e+003,1.777101e-001
5.812644e+003,1.888777e-001
5.816501e+003,1.952964e-001
5.820358e+003,1.814328e-001
5.824215e+003,1.720769e-001
5.828073e+003,1.720441e-001
5.831930e+003,1.768038e-001
5.835787e+003,1.767933e-001
5.839644e+003,1.778715e-001
5.843501e+003,1.807664e-001
5.847358e+003,1.798453e-001
5.851215e+003,1.745572e-001
5.855072e+003,1.732196e-001
5.858929e+003,1.786876e-001
5.862787e+003,1.781469e-001
5.866644e+003,1.736977e-001
5.870500e+003,1.780929e-001
5.874358e+003,1.793070e-001
5.878215e+003,1.722469e-001
5.882072e+003,1.659751e-001
5.885929e+003,1.696909e-001
5.889786e+003,1.781576e-001
5.893643e+003,1.742268e-001
5.897500e+003,1.675233e-001
5.901357e+003,1.743195e-001
5.905214e+003,1.789975e-001
5.909072e+003,1.701735e-001
5.912929e+003,1.709912e-001
5.916786e+003,1.741489e-001
5.920643e+003,1.692917e-001
5.924500e+003,1.627341e-001
5.928357e+003,1.605440e-001
5.932214e+003,1.657522e-001
5.936071e+003,1.645911e-001
5.939928e+003,1.668361e-001
5.943786e+003,1.752629e-001
5.947643e+003,1.775962e-001
5.951500e+003,1.678150e-001
5.955357e+003,1.653351e-001
5.959214e+003,1.674289e-001
5.963071e+003,1.710367e-001
5.966928e+003,1.742775e-001
5.970785e+003,1.659857e-001
5.974642e+003,1.587470e-001
5.978500e+003,1.626596e-001
5.982356e+003,1.707512e-001
5.986213e+003,1.772506e-001
5.990071e+003,1.792998e-001
5.993928e+003,1.749997e-001
5.997785e+003,1.625272e-001
6.001642e+003,1.605076e-001
6.005499e+003,1.664482e-001
6.009356e+003,1.699042e-001
6.013213e+003,1.725852e-001
6.017070e+003,1.733542e-001
6.020927e+003,1.621823e-001
6.024785e+003,1.602969e-001
6.028642e+003,1.678642e-001
6.032499e+003,1.775097e-001
6.036356e+003,1.799979e-001
6.040213e+003,1.755318e-001
6.044070e+003,1.670340e-001
6.047927e+003,1.704077e-001
6.051784e+003,1.737445e-001
6.055641e+003,1.766262e-001
6.059499e+003,1.802624e-001
6.063355e+003,1.772028e-001
6.067212e+003,1.647723e-001
6.071070e+003,1.581212e-001
6.074927e+003,1.566381e-001
6.078784e+003,1.549583e-001
6.082641e+003,1.589846e-001
6.086498e+003,1.659517e-001
6.090355e+003,1.750470e-001
6.094212e+003,1.744279e-001
6.098069e+003,1.709321e-001
6.101926e+003,1.641587e-001
6.105784e+003,1.638768e-001
6.109641e+003,1.709447e-001
6.113498e+003,1.724911e-001
6.117355e+003,1.715601e-001
6.121212e+003,1.755220e-001
6.125069e+003,1.627410e-001
6.128926e+003,1.533447e-001
6.132783e+003,1.610140e-001
6.136640e+003,1.569900e-001
6.140498e+003,1.525078e-001
6.144354e+003,1.643676e-001
6.148211e+003,1.682076e-001
6.152069e+003,1.572304e-001
6.155926e+003,1.517300e-001
6.159783e+003,1.649128e-001
6.163640e+003,1.712457e-001
6.167497e+003,1.729768e-001
6.171354e+003,1.780436e-001
6.175211e+003,1.755858e-001
6.179068e+003,1.738917e-001
6.182925e+003,1.715597e-001
6.186783e+003,1.645541e-001
6.190640e+003,1.669422e-001
6.194497e+003,1.733295e-001
6.198354e+003,1.796135e-001
6.202211e+003,1.757767e-001
6.206068e+003,1.661024e-001
6.209925e+003,1.724199e-001
6.213782e+003,1.724402e-001
6.217639e+003,1.642391e-001
6.221497e+003,1.717335e-001
6.225354e+003,1.802806e-001
6.229210e+003,1.763881e-001
6.233068e+003,1.701265e-001
6.236925e+003,1.730110e-001
6.240782e+003,1.792244e-001
6.244639e+003,1.773550e-001
6.248496e+003,1.650394e-001
6.252353e+003,1.641894e-001
6.256210e+003,1.680410e-001
6.260067e+003,1.621563e-001
6.263924e+003,1.615953e-001
6.267782e+003,1.617217e-001
6.271639e+003,1.624268e-001
6.275496e+003,1.712719e-001
6.279353e+003,1.736108e-001
6.283210e+003,1.639729e-001
6.287067e+003,1.588523e-001
6.290924e+003,1.594449e-001
6.294781e+003,1.641117e-001
6.298638e+003,1.753749e-001
6.302496e+003,1.797838e-001
6.306353e+003,1.833811e-001
6.310209e+003,1.747940e-001
6.314067e+003,1.665601e-001
6.317924e+003,1.631462e-001
6.321781e+003,1.705608e-001
6.325638e+003,1.825820e-001
6.329495e+003,1.819806e-001
6.333352e+003,1.725644e-001
6.337209e+003,1.680265e-001
6.341066e+003,1.703942e-001
6.344923e+003,1.767173e-001
6.348780e+003,1.814016e-001
6.352638e+003,1.773373e-001
6.356495e+003,1.705617e-001
6.360352e+003,1.616205e-001
6.364209e+003,1.667638e-001
6.368066e+003,1.692705e-001
6.371923e+003,1.648273e-001
6.375780e+003,1.707597e-001
6.379637e+003,1.755217e-001
6.383494e+003,1.804714e-001
6.387352e+003,1.816553e-001
6.391208e+003,1.758238e-001
6.395065e+003,1.768251e-001
6.398923e+003,1.778986e-001
6.402780e+003,1.708928e-001
6.406637e+003,1.640970e-001
6.410494e+003,1.648666e-001
6.414351e+003,1.752771e-001
6.418208e+003,1.904537e-001
6.422065e+003,1.884189e-001
6.425922e+003,1.730444e-001
6.429779e+003,1.703277e-001
6.433637e+003,1.683571e-001
6.437494e+003,1.688741e-001
6.441351e+003,1.735181e-001
6.445208e+003,1.744419e-001
6.449065e+003,1.836713e-001
6.452922e+003,1.817383e-001
6.456779e+003,1.660500e-001
6.460636e+003,1.634830e-001
6.464493e+003,1.757357e-001
6.468351e+003,1.875111e-001
6.472208e+003,1.754834e-001
6.476064e+003,1.698047e-001
6.479922e+003,1.784233e-001
6.483779e+003,1.864008e-001
6.487636e+003,1.852308e-001
6.491493e+003,1.737834e-001
6.495350e+003,1.788307e-001
6.499207e+003,1.862222e-001
6.503064e+003,1.778409e-001
6.506921e+003,1.702632e-001
6.510778e+003,1.721008e-001
6.514636e+003,1.738341e-001
6.518493e+003,1.754575e-001
6.522350e+003,1.757604e-001
6.526207e+003,1.773192e-001
6.530064e+003,1.787053e-001
6.533921e+003,1.707687e-001
6.537778e+003,1.761521e-001
6.541635e+003,1.800983e-001
6.545492e+003,1.740348e-001
6.549350e+003,1.697905e-001
6.553207e+003,1.762618e-001
6.557063e+003,1.805006e-001
6.560921e+003,1.712327e-001
6.564778e+003,1.706102e-001
6.568635e+003,1.780390e-001
6.572492e+003,1.750997e-001
6.576349e+003,1.756123e-001
6.580206e+003,1.838535e-001
6.584063e+003,1.832154e-001
6.587920e+003,1.787591e-001
6.591777e+003,1.730333e-001
6.595635e+003,1.793227e-001
6.599492e+003,1.742855e-001
6.603349e+003,1.582531e-001
6.607206e+003,1.612804e-001
6.611063e+003,1.793375e-001
6.614920e+003,1.801381e-001
6.618777e+003,1.610941e-001
6.622634e+003,1.551948e-001
6.626491e+003,1.602517e-001
6.630349e+003,1.690636e-001
6.634206e+003,1.700720e-001
6.638063e+003,1.832897e-001
6.641920e+003,1.941592e-001
6.645777e+003,1.891707e-001
6.649634e+003,1.756837e-001
6.653491e+003,1.735287e-001
6.657348e+003,1.738389e-001
6.661205e+003,1.787607e-001
6.665063e+003,1.772790e-001
6.668919e+003,1.659172e-001
6.672776e+003,1.541113e-001
6.676634e+003,1.546001e-001
6.680491e+003,1.615210e-001
6.684348e+003,1.667006e-001
6.688205e+003,1.692558e-001
6.692062e+003,1.867259e-001
6.695919e+003,1.995842e-001
6.699776e+003,1.940645e-001
6.703633e+003,1.886373e-001
6.707490e+003,1.825054e-001
6.711348e+003,1.735816e-001
6.715205e+003,1.785919e-001
6.719062e+003,1.881592e-001
6.722919e+003,1.854960e-001
6.726776e+003,1.838963e-001
6.730633e+003,1.765864e-001
6.734490e+003,1.657494e-001
6.738347e+003,1.798582e-001
6.742204e+003,1.867782e-001
6.746062e+003,1.800505e-001
6.749918e+003,1.761069e-001
6.753775e+003,1.716547e-001
6.757633e+003,1.830956e-001
6.761490e+003,1.912615e-001
6.765347e+003,1.775528e-001
6.769204e+003,1.683430e-001
6.773061e+003,1.700883e-001
6.776918e+003,1.820293e-001
6.780775e+003,1.964003e-001
6.784632e+003,2.063913e-001
6.788489e+003,2.007527e-001
6.792347e+003,1.909659e-001
6.796204e+003,1.968578e-001
6.800061e+003,1.892179e-001
6.803918e+003,1.775626e-001
6.807775e+003,1.813746e-001
6.811632e+003,1.830936e-001
6.815489e+003,1.842160e-001
6.819346e+003,1.762206e-001
6.823203e+003,1.712329e-001
6.827061e+003,1.678275e-001
6.830917e+003,1.731027e-001
6.834774e+003,1.719579e-001
6.838632e+003,1.838319e-001
6.842489e+003,1.930638e-001
6.846346e+003,1.815581e-001
6.850203e+003,1.772423e-001
6.854060e+003,1.844891e-001
6.857917e+003,1.863910e-001
6.861774e+003,1.770619e-001
6.865631e+003,1.831201e-001
6.869488e+003,1.979930e-001
6.873346e+003,1.970438e-001
6.877203e+003,1.857865e-001
6.881060e+003,1.845080e-001
6.884917e+003,1.843430e-001
6.888774e+003,1.782098e-001
6.892631e+003,1.793443e-001
6.896488e+003,1.790706e-001
6.900345e+003,1.767717e-001
6.904202e+003,1.887069e-001
6.908060e+003,1.903606e-001
6.911917e+003,1.963705e-001
6.915773e+003,1.988097e-001
6.919631e+003,1.839164e-001
6.923488e+003,2.002883e-001
6.927345e+003,2.115235e-001
6.931202e+003,1.954111e-001
6.935059e+003,1.793282e-001
6.938916e+003,1.817302e-001
6.942773e+003,1.848766e-001
6.946630e+003,1.810825e-001
6.950487e+003,1.792054e-001
6.954345e+003,2.039731e-001
6.958202e+003,2.027730e-001
6.962059e+003,1.870050e-001
6.965916e+003,2.027671e-001
6.969773e+003,1.947877e-001
6.973630e+003,1.687090e-001
6.977487e+003,1.630549e-001
6.981344e+003,1.867927e-001
6.985201e+003,2.114858e-001
6.989059e+003,2.245452e-001
6.992916e+003,2.173984e-001
6.996772e+003,1.984307e-001
7.000630e+003,1.917999e-001
7.004487e+003,1.881651e-001
7.008344e+003,1.652073e-001
7.012201e+003,1.651393e-001
7.016058e+003,1.858905e-001
7.019915e+003,1.952237e-001
7.023772e+003,2.031568e-001
7.027629e+003,2.125237e-001
7.031486e+003,1.905700e-001
7.035344e+003,1.903945e-001
7.039201e+003,1.948532e-001
7.043058e+003,1.962378e-001
7.046915e+003,1.953512e-001
7.050772e+003,1.875165e-001
7.054629e+003,1.904879e-001
7.058486e+003,2.108524e-001
7.062343e+003,2.158751e-001
7.066200e+003,2.069977e-001
7.070058e+003,2.019740e-001
7.073915e+003,2.020818e-001
7.077771e+003,1.943882e-001
7.081629e+003,1.957473e-001
7.085486e+003,2.113428e-001
7.089343e+003,2.041191e-001
7.093200e+003,1.925423e-001
7.097057e+003,2.134203e-001
7.100914e+003,2.313871e-001
7.104771e+003,2.105548e-001
7.108628e+003,2.057288e-001
7.112485e+003,1.979994e-001
7.116343e+003,1.838661e-001
7.120200e+003,2.034174e-001
7.124057e+003,2.118279e-001
7.127914e+003,1.867059e-001
7.131771e+003,1.887073e-001
7.135628e+003,2.054105e-001
7.139485e+003,2.203475e-001
7.143342e+003,2.105457e-001
7.147199e+003,2.113225e-001
7.151057e+003,2.188716e-001
7.154914e+003,2.037668e-001
7.158771e+003,1.787833e-001
7.162628e+003,1.801401e-001
7.166485e+003,1.934812e-001
7.170342e+003,1.916221e-001
7.174199e+003,2.030170e-001
7.178056e+003,2.181693e-001
7.181913e+003,2.022898e-001
7.185771e+003,2.112613e-001
7.189627e+003,2.305771e-001
7.193484e+003,2.212050e-001
7.197342e+003,1.822009e-001
7.201199e+003,1.949948e-001
7.205056e+003,2.101793e-001
7.208913e+003,1.942316e-001
7.212770e+003,1.961369e-001
7.216627e+003,2.208774e-001
7.220484e+003,2.165103e-001
7.224341e+003,2.202694e-001
7.228198e+003,2.390467e-001
7.232056e+003,2.433654e-001
7.235913e+003,2.206798e-001
7.239770e+003,2.064478e-001
7.243627e+003,2.128545e-001
7.247484e+003,2.000344e-001
7.251341e+003,1.913131e-001
7.255198e+003,1.848357e-001
7.259055e+003,1.947072e-001
7.262912e+003,2.246986e-001
7.266770e+003,2.293108e-001
7.270626e+003,2.407512e-001
7.274483e+003,2.372584e-001
7.278341e+003,2.107025e-001
7.282198e+003,2.014990e-001
7.286055e+003,2.137113e-001
7.289912e+003,2.088347e-001
7.293769e+003,2.057318e-001
7.297626e+003,2.037601e-001
7.301483e+003,2.095573e-001
7.305340e+003,2.205052e-001
7.309197e+003,2.182580e-001
7.313055e+003,2.114221e-001
7.316912e+003,2.055576e-001
7.320769e+003,2.015029e-001
7.324626e+003,1.995967e-001
7.328483e+003,2.078427e-001
7.332340e+003,2.196446e-001
7.336197e+003,2.126101e-001
7.340054e+003,2.216135e-001
7.343911e+003,2.362731e-001
7.347769e+003,2.086111e-001
7.351625e+003,1.794974e-001
7.355482e+003,1.828597e-001
7.359340e+003,2.178545e-001
7.363197e+003,2.151879e-001
7.367054e+003,1.743748e-001
7.370911e+003,1.571473e-001
7.374768e+003,1.640876e-001
7.378625e+003,1.748524e-001
7.382482e+003,1.797821e-001
7.386339e+003,1.662739e-001
7.390196e+003,1.599027e-001
7.394054e+003,1.724095e-001
7.397911e+003,1.935488e-001
7.401768e+003,2.104980e-001
7.405625e+003,1.665363e-001
7.409482e+003,1.396132e-001
7.413339e+003,1.917161e-001
7.417196e+003,2.517929e-001
7.421053e+003,2.198071e-001
7.424910e+003,1.719104e-001
7.428768e+003,1.677392e-001
7.432625e+003,1.838070e-001
7.436481e+003,2.068282e-001
7.440339e+003,2.035209e-001
7.444196e+003,1.976860e-001
7.448053e+003,1.928841e-001
7.451910e+003,1.787900e-001
7.455767e+003,1.863568e-001
7.459624e+003,2.159983e-001
7.463481e+003,1.939184e-001
7.467338e+003,1.825656e-001
7.471195e+003,2.064739e-001
7.475053e+003,1.993969e-001
7.478910e+003,1.742557e-001
7.482767e+003,1.615632e-001
7.486624e+003,1.664006e-001
7.490481e+003,1.712906e-001
7.494338e+003,1.911782e-001
7.498195e+003,2.152049e-001
7.502052e+003,2.251809e-001
7.505909e+003,2.242877e-001
7.509767e+003,2.052371e-001
7.513624e+003,2.127497e-001
7.517480e+003,2.610106e-001
7.521338e+003,2.625243e-001
7.525195e+003,2.223344e-001
7.529052e+003,1.974303e-001
7.532909e+003,1.997181e-001
7.536766e+003,2.286039e-001
7.540623e+003,2.051879e-001
7.544480e+003,1.836044e-001
7.548337e+003,2.213125e-001
7.552194e+003,2.825268e-001
7.556052e+003,2.322590e-001
7.559909e+003,1.801434e-001
7.563766e+003,2.021271e-001
7.567623e+003,2.092783e-001
7.571480e+003,1.891191e-001
7.575337e+003,1.887075e-001
7.579194e+003,1.997464e-001
7.583051e+003,1.860285e-001
7.586908e+003,2.105807e-001
7.590766e+003,2.439161e-001
7.594623e+003,2.441804e-001
7.598479e+003,2.031206e-001
7.602337e+003,2.060968e-001
7.606194e+003,2.382714e-001
7.610051e+003,1.888068e-001
7.613908e+003,1.479853e-001
7.617765e+003,1.640676e-001
7.621622e+003,1.910606e-001
7.625479e+003,1.993982e-001
7.629336e+003,2.251176e-001
7.633193e+003,2.325442e-001
7.637051e+003,2.016665e-001
7.640908e+003,1.339625e-001
7.644765e+003,1.652769e-001
7.648622e+003,2.254282e-001
7.652479e+003,2.438826e-001
7.656336e+003,2.416491e-001
7.660193e+003,2.101004e-001
7.664050e+003,1.835349e-001
7.667907e+003,1.751700e-001
7.671765e+003,1.685894e-001
7.675622e+003,1.723420e-001
7.679479e+003,1.927644e-001
7.683336e+003,2.139971e-001
7.687193e+003,2.153192e-001
7.691050e+003,2.283941e-001
7.694907e+003,2.151694e-001
7.698764e+003,1.823037e-001
7.702621e+003,1.827548e-001
7.706479e+003,1.972371e-001
7.710335e+003,2.398584e-001
7.714192e+003,2.630937e-001
7.718050e+003,2.283744e-001
7.721907e+003,2.246089e-001
7.725764e+003,2.234482e-001
7.729621e+003,1.826153e-001
7.733478e+003,1.521758e-001
7.737335e+003,1.734394e-001
7.741192e+003,2.114641e-001
7.745049e+003,2.261149e-001
7.748906e+003,2.341124e-001
7.752764e+003,2.160328e-001
7.756621e+003,2.473464e-001
7.760478e+003,2.383848e-001
7.764335e+003,1.788546e-001
7.768192e+003,1.547846e-001
7.772049e+003,1.416514e-001
7.775906e+003,1.729809e-001
7.779763e+003,2.150148e-001
7.783620e+003,2.416323e-001
7.787478e+003,2.578733e-001
7.791334e+003,2.326489e-001
7.795191e+003,1.960952e-001
7.799049e+003,2.012662e-001
7.802906e+003,1.792967e-001
7.806763e+003,1.290492e-001
7.810620e+003,1.778229e-001
7.814477e+003,2.069957e-001
7.818334e+003,2.427891e-001
7.822191e+003,2.601778e-001
7.826048e+003,2.065569e-001
7.829905e+003,2.045619e-001
7.833763e+003,1.860959e-001
7.837620e+003,1.322037e-001
7.841477e+003,1.845657e-001
7.845334e+003,1.658391e-001
7.849191e+003,1.551239e-001
7.853048e+003,1.813816e-001
7.856905e+003,1.652455e-001
7.860762e+003,1.835968e-001
7.864619e+003,1.796270e-001
7.868477e+003,1.805746e-001
7.872333e+003,1.677841e-001
7.876190e+003,1.544550e-001
7.880048e+003,1.693681e-001
7.883905e+003,1.643030e-001
7.887762e+003,1.811205e-001
7.891619e+003,2.341366e-001
7.895476e+003,2.242098e-001
7.899333e+003,2.335899e-001
7.903190e+003,2.316608e-001
7.907047e+003,2.229435e-001
7.910904e+003,2.756198e-001
7.914762e+003,2.787966e-001
7.918619e+003,2.784998e-001
7.922476e+003,2.878436e-001
7.926333e+003,3.627216e-001
7.930190e+003,3.580044e-001
7.934047e+003,2.530700e-001
7.937904e+003,1.974001e-001
7.941761e+003,1.660745e-001
7.945618e+003,1.793246e-001
7.949476e+003,2.762856e-001
7.953333e+003,2.972552e-001
7.957189e+003,2.304915e-001
7.961047e+003,2.610737e-001
7.964904e+003,2.043647e-001
7.968761e+003,1.748259e-001
7.972618e+003,1.851268e-001
7.976475e+003,2.603106e-001
7.980332e+003,3.217464e-001
7.984189e+003,2.615779e-001
7.988046e+003,2.083234e-001
7.991903e+003,1.817010e-001
7.995761e+003,1.295008e-001
7.999618e+003,1.327268e-001
