4.011380e+002,6.000000e+000
4.049951e+002,6.000000e+000
4.088522e+002,-1.480163e+000
4.127093e+002,-8.110971e-001
4.165664e+002,6.000000e+000
4.204235e+002,-8.724684e-002
4.242806e+002,6.000000e+000
4.281377e+002,2.566672e-001
4.319948e+002,-5.329317e-001
4.358519e+002,-6.621994e-002
4.397090e+002,3.641801e-001
4.435661e+002,5.291471e-001
4.474232e+002,6.000000e+000
4.512803e+002,6.000000e+000
4.551374e+002,6.000000e+000
4.589945e+002,6.000000e+000
4.628516e+002,6.000000e+000
4.667087e+002,6.000000e+000
4.705658e+002,1.419275e-002
4.744229e+002,-7.708272e-002
4.782800e+002,-3.619881e-001
4.821371e+002,-1.850632e-002
4.859941e+002,1.770645e-001
4.898513e+002,-3.030837e-001
4.937083e+002,-4.428527e-001
4.975654e+002,-2.178533e+000
5.014225e+002,6.000000e+000
5.052796e+002,6.000000e+000
5.091367e+002,6.000000e+000
5.129938e+002,6.000000e+000
5.168509e+002,1.329777e+000
5.207080e+002,6.000000e+000
5.245651e+002,6.000000e+000
5.284222e+002,6.000000e+000
5.322793e+002,6.000000e+000
5.361364e+002,1.256294e-001
5.399935e+002,-4.133148e-001
5.438506e+002,-1.942831e+000
5.477077e+002,-1.469654e-001
5.515648e+002,6.000000e+000
5.554219e+002,1.377647e-001
5.592790e+002,-1.286524e-001
5.631361e+002,4.250878e-001
5.669932e+002,-4.535150e-001
5.708503e+002,-1.803859e-001
5.747074e+002,5.580892e-001
5.785645e+002,1.208428e+000
5.824216e+002,1.415417e-001
5.862787e+002,-6.629608e-001
5.901357e+002,6.000000e+000
5.939929e+002,6.000000e+000
5.978499e+002,6.000000e+000
6.017070e+002,6.000000e+000
6.055641e+002,6.000000e+000
6.094212e+002,-2.477311e-001
6.132783e+002,7.360471e-002
6.171354e+002,6.000000e+000
6.209925e+002,7.226971e-001
6.248496e+002,6.811392e-001
6.287067e+002,6.000000e+000
6.325638e+002,6.000000e+000
6.364209e+002,6.000000e+000
6.402780e+002,-1.214530e+000
6.441351e+002,-2.779060e-001
6.479922e+002,6.000000e+000
6.518493e+002,6.000000e+000
6.557064e+002,-6.658987e-001
6.595635e+002,6.000000e+000
6.634205e+002,6.000000e+000
6.672777e+002,6.000000e+000
6.711348e+002,-3.572457e-001
6.749918e+002,6.000000e+000
6.788490e+002,6.987997e-001
6.827061e+002,-4.262041e-001
6.865631e+002,6.000000e+000
6.904203e+002,6.000000e+000
6.942773e+002,-4.954109e-001
6.981344e+002,6.000000e+000
7.019916e+002,9.833514e-001
7.058486e+002,-3.036098e-001
7.097057e+002,6.000000e+000
7.135629e+002,-8.320878e-001
7.174199e+002,-6.579062e-002
7.212770e+002,6.000000e+000
7.251342e+002,1.740556e-001
7.289912e+002,6.000000e+000
7.328483e+002,6.000000e+000
7.367054e+002,6.000000e+000
7.405625e+002,9.005651e-002
7.444196e+002,-1.195772e-001
7.482767e+002,6.000000e+000
7.521338e+002,2.343115e-001
7.559908e+002,6.000000e+000
7.598480e+002,5.253820e-001
7.637051e+002,6.000000e+000
7.675621e+002,6.000000e+000
7.714193e+002,1.196504e+000
7.752764e+002,6.000000e+000
7.791334e+002,6.000000e+000
7.829905e+002,6.000000e+000
7.868477e+002,6.703897e-003
7.907047e+002,6.000000e+000
7.945618e+002,-2.232180e-001
7.984189e+002,8.824243e-001
8.022760e+002,6.000000e+000
8.061331e+002,6.348196e-001
8.099902e+002,1.895218e-001
8.138473e+002,4.074257e-001
8.177044e+002,6.000000e+000
8.215615e+002,6.000000e+000
8.254186e+002,9.297137e-001
8.292757e+002,1.190665e+000
8.331328e+002,6.000000e+000
8.369899e+002,6.000000e+000
8.408470e+002,6.000000e+000
8.447041e+002,6.000000e+000
8.485612e+002,1.936290e+000
8.524183e+002,1.659975e+000
8.562754e+002,6.000000e+000
8.601324e+002,6.000000e+000
8.639896e+002,6.000000e+000
8.678467e+002,6.000000e+000
8.717037e+002,1.994747e+000
8.755609e+002,1.814527e+000
8.794180e+002,1.855695e+000
8.832750e+002,1.407769e+000
8.871321e+002,1.395557e+000
8.909893e+002,1.513591e+000
8.948463e+002,1.734815e+000
8.987034e+002,2.445360e+000
9.025605e+002,1.869281e+000
9.064176e+002,2.248223e+000
9.102747e+002,6.000000e+000
9.141318e+002,2.960746e+000
9.179889e+002,6.000000e+000
9.218461e+002,4.946371e+000
9.257031e+002,1.901355e+000
9.295602e+002,2.112321e+000
9.334174e+002,6.000000e+000
9.372744e+002,6.000000e+000
9.411315e+002,6.000000e+000
9.449886e+002,6.000000e+000
9.488457e+002,2.536149e+000
9.527028e+002,1.865955e+000
9.565599e+002,1.797739e+000
9.604170e+002,1.912038e+000
9.642740e+002,1.990755e+000
9.681312e+002,1.885261e+000
9.719883e+002,2.041313e+000
9.758453e+002,2.734998e+000
9.797025e+002,3.029388e+000
9.835596e+002,2.617993e+000
9.874166e+002,3.006840e+000
9.912738e+002,2.891241e+000
9.951309e+002,3.727140e+000
9.989879e+002,3.686550e+000
1.002845e+003,2.457817e+000
1.006702e+003,2.234520e+000
1.010559e+003,2.191602e+000
1.014416e+003,2.172498e+000
1.018273e+003,1.924664e+000
1.022130e+003,1.927195e+000
1.025988e+003,2.068578e+000
1.029845e+003,2.105390e+000
1.033702e+003,2.071590e+000
1.037559e+003,1.939013e+000
1.041416e+003,1.966130e+000
1.045273e+003,1.885297e+000
1.049130e+003,1.858209e+000
1.052987e+003,1.862259e+000
1.056844e+003,1.855033e+000
1.060702e+003,1.956253e+000
1.064559e+003,1.865726e+000
1.068416e+003,1.830122e+000
1.072273e+003,1.795099e+000
1.076130e+003,1.813431e+000
1.079987e+003,1.789049e+000
1.083844e+003,1.683858e+000
1.087701e+003,1.642042e+000
1.091558e+003,1.654141e+000
1.095415e+003,1.665924e+000
1.099272e+003,1.678043e+000
1.103130e+003,1.653572e+000
1.106987e+003,1.639120e+000
1.110844e+003,1.627616e+000
1.114701e+003,1.604827e+000
1.118558e+003,1.575968e+000
1.122415e+003,1.563076e+000
1.126272e+003,1.562714e+000
1.130129e+003,1.542156e+000
1.133986e+003,1.529773e+000
1.137843e+003,1.551030e+000
1.141701e+003,1.535977e+000
1.145558e+003,1.480532e+000
1.149415e+003,1.466297e+000
1.153272e+003,1.485560e+000
1.157129e+003,1.516549e+000
1.160986e+003,1.501988e+000
1.164843e+003,1.479900e+000
1.168700e+003,1.456453e+000
1.172557e+003,1.459384e+000
1.176414e+003,1.476944e+000
1.180271e+003,1.482430e+000
1.184129e+003,1.480247e+000
1.187986e+003,1.474681e+000
1.191843e+003,1.478415e+000
1.195700e+003,1.466791e+000
1.199557e+003,1.423146e+000
1.203414e+003,1.399576e+000
1.207271e+003,1.360545e+000
1.211128e+003,1.281971e+000
1.214985e+003,1.197885e+000
1.218842e+003,1.121974e+000
1.222699e+003,1.043490e+000
1.226557e+003,9.731718e-001
1.230414e+003,9.167801e-001
1.234271e+003,8.731158e-001
1.238128e+003,8.344876e-001
1.241985e+003,7.970962e-001
1.245842e+003,7.615735e-001
1.249699e+003,7.335609e-001
1.253556e+003,7.135870e-001
1.257413e+003,6.925379e-001
1.261271e+003,6.713956e-001
1.265128e+003,6.531211e-001
1.268985e+003,6.349428e-001
1.272842e+003,6.211963e-001
1.276699e+003,6.100332e-001
1.280556e+003,6.000682e-001
1.284413e+003,5.906782e-001
1.288270e+003,5.807451e-001
1.292127e+003,5.670643e-001
1.295984e+003,5.557594e-001
1.299841e+003,5.484933e-001
1.303698e+003,5.402494e-001
1.307556e+003,5.330318e-001
1.311413e+003,5.242993e-001
1.315270e+003,5.150539e-001
1.319127e+003,5.065152e-001
1.322984e+003,4.996904e-001
1.326841e+003,4.936537e-001
1.330698e+003,4.894088e-001
1.334555e+003,4.854272e-001
1.338412e+003,4.799969e-001
1.342270e+003,4.785441e-001
1.346127e+003,4.789354e-001
1.349984e+003,4.777601e-001
1.353841e+003,4.761176e-001
1.357698e+003,4.749210e-001
1.361555e+003,4.760178e-001
1.365412e+003,4.796292e-001
1.369269e+003,4.823889e-001
1.373126e+003,4.860670e-001
1.376983e+003,4.954155e-001
1.380840e+003,5.057747e-001
1.384698e+003,5.154021e-001
1.388555e+003,5.238845e-001
1.392412e+003,5.359323e-001
1.396269e+003,5.516078e-001
1.400126e+003,5.667806e-001
1.403983e+003,5.794922e-001
1.407840e+003,5.879595e-001
1.411697e+003,5.981901e-001
1.415554e+003,6.124901e-001
1.419411e+003,6.280548e-001
1.423269e+003,6.360180e-001
1.427126e+003,6.400073e-001
1.430983e+003,6.421052e-001
1.434840e+003,6.432640e-001
1.438697e+003,6.457347e-001
1.442554e+003,6.437424e-001
1.446411e+003,6.374144e-001
1.450268e+003,6.305585e-001
1.454125e+003,6.243489e-001
1.457982e+003,6.152454e-001
1.461839e+003,6.065371e-001
1.465697e+003,5.998651e-001
1.469554e+003,5.948613e-001
1.473411e+003,5.950587e-001
1.477268e+003,5.983003e-001
1.481125e+003,6.018456e-001
1.484982e+003,6.124651e-001
1.488839e+003,6.241862e-001
1.492696e+003,6.320685e-001
1.496553e+003,6.378036e-001
1.500411e+003,6.462138e-001
1.504268e+003,6.562487e-001
1.508125e+003,6.597101e-001
1.511982e+003,6.591417e-001
1.515839e+003,6.561038e-001
1.519696e+003,6.491529e-001
1.523553e+003,6.440747e-001
1.527410e+003,6.370628e-001
1.531267e+003,6.228608e-001
1.535124e+003,6.113650e-001
1.538981e+003,6.038463e-001
1.542839e+003,5.902460e-001
1.546696e+003,5.784225e-001
1.550553e+003,5.675350e-001
1.554410e+003,5.556310e-001
1.558267e+003,5.469658e-001
1.562124e+003,5.403799e-001
1.565981e+003,5.338249e-001
1.569838e+003,5.270069e-001
1.573695e+003,5.208139e-001
1.577552e+003,5.195162e-001
1.581410e+003,5.190879e-001
1.585267e+003,5.169850e-001
1.589124e+003,5.176095e-001
1.592981e+003,5.256287e-001
1.596838e+003,5.372111e-001
1.600695e+003,5.503121e-001
1.604552e+003,5.640336e-001
1.608409e+003,5.806391e-001
1.612266e+003,6.020952e-001
1.616123e+003,6.261243e-001
1.619980e+003,6.506720e-001
1.623838e+003,6.735046e-001
1.627695e+003,6.963060e-001
1.631552e+003,7.107783e-001
1.635409e+003,7.182396e-001
1.639266e+003,7.167943e-001
1.643123e+003,7.081609e-001
1.646980e+003,6.961817e-001
1.650837e+003,6.800883e-001
1.654694e+003,6.591296e-001
1.658551e+003,6.418482e-001
1.662409e+003,6.240637e-001
1.666266e+003,6.027293e-001
1.670123e+003,5.807857e-001
1.673980e+003,5.612431e-001
1.677837e+003,5.396618e-001
1.681694e+003,5.220289e-001
1.685551e+003,5.070544e-001
1.689408e+003,4.920593e-001
1.693265e+003,4.796570e-001
1.697122e+003,4.712960e-001
1.700979e+003,4.620368e-001
1.704837e+003,4.522899e-001
1.708694e+003,4.439410e-001
1.712551e+003,4.381915e-001
1.716408e+003,4.328791e-001
1.720265e+003,4.289682e-001
1.724122e+003,4.272802e-001
1.727979e+003,4.254055e-001
1.731836e+003,4.234782e-001
1.735693e+003,4.224221e-001
1.739550e+003,4.201875e-001
1.743408e+003,4.192865e-001
1.747265e+003,4.183091e-001
1.751122e+003,4.165386e-001
1.754979e+003,4.139619e-001
1.758836e+003,4.112760e-001
1.762693e+003,4.092443e-001
1.766550e+003,4.092022e-001
1.770407e+003,4.084522e-001
1.774264e+003,4.050460e-001
1.778121e+003,4.028898e-001
1.781979e+003,4.015107e-001
1.785836e+003,3.989592e-001
1.789693e+003,3.970879e-001
1.793550e+003,3.947551e-001
1.797407e+003,3.912347e-001
1.801264e+003,3.898452e-001
1.805121e+003,3.894320e-001
1.808978e+003,3.883832e-001
1.812835e+003,3.876482e-001
1.816692e+003,3.875581e-001
1.820549e+003,3.875024e-001
1.824407e+003,3.866198e-001
1.828264e+003,3.852738e-001
1.832121e+003,3.832444e-001
1.835978e+003,3.826652e-001
1.839835e+003,3.809724e-001
1.843692e+003,3.778986e-001
1.847549e+003,3.752542e-001
1.851406e+003,3.724256e-001
1.855263e+003,3.693613e-001
1.859120e+003,3.679798e-001
1.862978e+003,3.661300e-001
1.866835e+003,3.631922e-001
1.870692e+003,3.610038e-001
1.874549e+003,3.590872e-001
1.878406e+003,3.574432e-001
1.882263e+003,3.575563e-001
1.886120e+003,3.572492e-001
1.889977e+003,3.568427e-001
1.893834e+003,3.552198e-001
1.897691e+003,3.534659e-001
1.901548e+003,3.548895e-001
1.905406e+003,3.557362e-001
1.909263e+003,3.542601e-001
1.913120e+003,3.537554e-001
1.916977e+003,3.519658e-001
1.920834e+003,3.500719e-001
1.924691e+003,3.498595e-001
1.928548e+003,3.494615e-001
1.932405e+003,3.468771e-001
1.936262e+003,3.441300e-001
1.940119e+003,3.414991e-001
1.943977e+003,3.392332e-001
1.947834e+003,3.360436e-001
1.951691e+003,3.338899e-001
1.955548e+003,3.317966e-001
1.959405e+003,3.292980e-001
1.963262e+003,3.266284e-001
1.967119e+003,3.241616e-001
1.970976e+003,3.227678e-001
1.974833e+003,3.216410e-001
1.978690e+003,3.209042e-001
1.982547e+003,3.211938e-001
1.986405e+003,3.201248e-001
1.990262e+003,3.197559e-001
1.994119e+003,3.207463e-001
1.997976e+003,3.207047e-001
2.001833e+003,3.204180e-001
2.005690e+003,3.206654e-001
2.009547e+003,3.207003e-001
2.013404e+003,3.205249e-001
2.017261e+003,3.200999e-001
2.021118e+003,3.171619e-001
2.024976e+003,3.158339e-001
2.028833e+003,3.164588e-001
2.032690e+003,3.153191e-001
2.036547e+003,3.114391e-001
2.040404e+003,3.078541e-001
2.044261e+003,3.065222e-001
2.048118e+003,3.046998e-001
2.051975e+003,3.021632e-001
2.055832e+003,3.000597e-001
2.059689e+003,3.001958e-001
2.063546e+003,2.997020e-001
2.067404e+003,2.983012e-001
2.071261e+003,2.968598e-001
2.075118e+003,2.963339e-001
2.078975e+003,2.976387e-001
2.082832e+003,2.992883e-001
2.086689e+003,2.998798e-001
2.090546e+003,2.991965e-001
2.094403e+003,2.992269e-001
2.098260e+003,3.001946e-001
2.102117e+003,3.004194e-001
2.105975e+003,3.002463e-001
2.109832e+003,3.000129e-001
2.113689e+003,3.010013e-001
2.117546e+003,3.006589e-001
2.121403e+003,2.990922e-001
2.125260e+003,2.981726e-001
2.129117e+003,2.967788e-001
2.132974e+003,2.951134e-001
2.136831e+003,2.938133e-001
2.140688e+003,2.910341e-001
2.144545e+003,2.900926e-001
2.148403e+003,2.890752e-001
2.152260e+003,2.864150e-001
2.156117e+003,2.853642e-001
2.159974e+003,2.861578e-001
2.163831e+003,2.867829e-001
2.167688e+003,2.876804e-001
2.171545e+003,2.882209e-001
2.175402e+003,2.891288e-001
2.179259e+003,2.909714e-001
2.183116e+003,2.914674e-001
2.186974e+003,2.918582e-001
2.190831e+003,2.933438e-001
2.194688e+003,2.938351e-001
2.198545e+003,2.937135e-001
2.202402e+003,2.941674e-001
2.206259e+003,2.951189e-001
2.210116e+003,2.957456e-001
2.213973e+003,2.960579e-001
2.217830e+003,2.951288e-001
2.221688e+003,2.946289e-001
2.225544e+003,2.942223e-001
2.229402e+003,2.934262e-001
2.233259e+003,2.931758e-001
2.237116e+003,2.921654e-001
2.240973e+003,2.900497e-001
2.244830e+003,2.895882e-001
2.248687e+003,2.902121e-001
2.252544e+003,2.900785e-001
2.256401e+003,2.893393e-001
2.260258e+003,2.894622e-001
2.264115e+003,2.913305e-001
2.267973e+003,2.926309e-001
2.271830e+003,2.932438e-001
2.275687e+003,2.936419e-001
2.279544e+003,2.954674e-001
2.283401e+003,2.962618e-001
2.287258e+003,2.965126e-001
2.291115e+003,2.969792e-001
2.294972e+003,2.976002e-001
2.298829e+003,2.974261e-001
2.302687e+003,2.987760e-001
2.306543e+003,2.976929e-001
2.310401e+003,2.962249e-001
2.314258e+003,2.953019e-001
2.318115e+003,2.933581e-001
2.321972e+003,2.903215e-001
2.325829e+003,2.880813e-001
2.329686e+003,2.876613e-001
2.333543e+003,2.858059e-001
2.337400e+003,2.848562e-001
2.341257e+003,2.842733e-001
2.345115e+003,2.834097e-001
2.348972e+003,2.852052e-001
2.352829e+003,2.841960e-001
2.356686e+003,2.824849e-001
2.360543e+003,2.834657e-001
2.364400e+003,2.830071e-001
2.368257e+003,2.826833e-001
2.372114e+003,2.842280e-001
2.375971e+003,2.858882e-001
2.379828e+003,2.893758e-001
2.383686e+003,2.912897e-001
2.387542e+003,2.916152e-001
2.391400e+003,2.926749e-001
2.395257e+003,2.927364e-001
2.399114e+003,2.914742e-001
2.402971e+003,2.895193e-001
2.406828e+003,2.882820e-001
2.410685e+003,2.881710e-001
2.414542e+003,2.866843e-001
2.418399e+003,2.857507e-001
2.422256e+003,2.844093e-001
2.426114e+003,2.826582e-001
2.429971e+003,2.804885e-001
2.433828e+003,2.785278e-001
2.437685e+003,2.780283e-001
2.441542e+003,2.781942e-001
2.445399e+003,2.771504e-001
2.449256e+003,2.763533e-001
2.453113e+003,2.753282e-001
2.456970e+003,2.741379e-001
2.460827e+003,2.742145e-001
2.464684e+003,2.746277e-001
2.468542e+003,2.744095e-001
2.472399e+003,2.753153e-001
2.476256e+003,2.748122e-001
2.480113e+003,2.742648e-001
2.483970e+003,2.761186e-001
2.487827e+003,2.771941e-001
2.491684e+003,2.774888e-001
2.495541e+003,2.766218e-001
2.499398e+003,2.763035e-001
2.503255e+003,2.763581e-001
2.507113e+003,2.751442e-001
2.510969e+003,2.749509e-001
2.514827e+003,2.741249e-001
2.518684e+003,2.745290e-001
2.522541e+003,2.745525e-001
2.526398e+003,2.732727e-001
2.530255e+003,2.722768e-001
2.534112e+003,2.729555e-001
2.537969e+003,2.734258e-001
2.541826e+003,2.724345e-001
2.545683e+003,2.723492e-001
2.549541e+003,2.733286e-001
2.553398e+003,2.741073e-001
2.557255e+003,2.736987e-001
2.561112e+003,2.749852e-001
2.564969e+003,2.771299e-001
2.568826e+003,2.785648e-001
2.572683e+003,2.803052e-001
2.576540e+003,2.832772e-001
2.580397e+003,2.846516e-001
2.584254e+003,2.847129e-001
2.588112e+003,2.860600e-001
2.591969e+003,2.876984e-001
2.595826e+003,2.896651e-001
2.599683e+003,2.908651e-001
2.603540e+003,2.905948e-001
2.607397e+003,2.918298e-001
2.611254e+003,2.947349e-001
2.615111e+003,2.974814e-001
2.618968e+003,2.985281e-001
2.622825e+003,2.984971e-001
2.626682e+003,2.986734e-001
2.630540e+003,2.998284e-001
2.634397e+003,3.021683e-001
2.638254e+003,3.041958e-001
2.642111e+003,3.071721e-001
2.645968e+003,3.089081e-001
2.649825e+003,3.096479e-001
2.653682e+003,3.118732e-001
2.657539e+003,3.139818e-001
2.661396e+003,3.163169e-001
2.665253e+003,3.183646e-001
2.669111e+003,3.202586e-001
2.672968e+003,3.234357e-001
2.676825e+003,3.262475e-001
2.680682e+003,3.277391e-001
2.684539e+003,3.313846e-001
2.688396e+003,3.345608e-001
2.692253e+003,3.360684e-001
2.696110e+003,3.376792e-001
2.699967e+003,3.406247e-001
2.703824e+003,3.438397e-001
2.707681e+003,3.464090e-001
2.711539e+003,3.486113e-001
2.715396e+003,3.507143e-001
2.719253e+003,3.534987e-001
2.723110e+003,3.555371e-001
2.726967e+003,3.576100e-001
2.730824e+003,3.604883e-001
2.734681e+003,3.633826e-001
2.738538e+003,3.666954e-001
2.742395e+003,3.700009e-001
2.746252e+003,3.716256e-001
2.750110e+003,3.748001e-001
2.753967e+003,3.783001e-001
2.757824e+003,3.809346e-001
2.761681e+003,3.844435e-001
2.765538e+003,3.885080e-001
2.769395e+003,3.904862e-001
2.773252e+003,3.922682e-001
2.777109e+003,3.968024e-001
2.780966e+003,4.020558e-001
2.784823e+003,4.052329e-001
2.788680e+003,4.074239e-001
2.792538e+003,4.096673e-001
2.796395e+003,4.131331e-001
2.800252e+003,4.172142e-001
2.804109e+003,4.200695e-001
2.807966e+003,4.236310e-001
2.811823e+003,4.270659e-001
2.815680e+003,4.298188e-001
2.819537e+003,4.345418e-001
2.823394e+003,4.383551e-001
2.827251e+003,4.418866e-001
2.831109e+003,4.461173e-001
2.834966e+003,4.498569e-001
2.838823e+003,4.528922e-001
2.842680e+003,4.539548e-001
2.846537e+003,4.550461e-001
2.850394e+003,4.586367e-001
2.854251e+003,4.647751e-001
2.858108e+003,4.711161e-001
2.861965e+003,4.747688e-001
2.865823e+003,4.773475e-001
2.869679e+003,4.807000e-001
2.873537e+003,4.858046e-001
2.877394e+003,4.898064e-001
2.881251e+003,4.950117e-001
2.885108e+003,4.991036e-001
2.888965e+003,5.031905e-001
2.892822e+003,5.070522e-001
2.896679e+003,5.117788e-001
2.900536e+003,5.165457e-001
2.904393e+003,5.218942e-001
2.908250e+003,5.259363e-001
2.912108e+003,5.268728e-001
2.915965e+003,5.307036e-001
2.919822e+003,5.377076e-001
2.923679e+003,5.424190e-001
2.927536e+003,5.454463e-001
2.931393e+003,5.507027e-001
2.935250e+003,5.558031e-001
2.939107e+003,5.589228e-001
2.942964e+003,5.626982e-001
2.946822e+003,5.689481e-001
2.950678e+003,5.740710e-001
2.954536e+003,5.785151e-001
2.958393e+003,5.833926e-001
2.962250e+003,5.882553e-001
2.966107e+003,5.920970e-001
2.969964e+003,5.950841e-001
2.973821e+003,5.993236e-001
2.977678e+003,6.057594e-001
2.981535e+003,6.131878e-001
2.985392e+003,6.172168e-001
2.989250e+003,6.194152e-001
2.993107e+003,6.256407e-001
2.996964e+003,6.297756e-001
3.000821e+003,6.353059e-001
3.004678e+003,6.421478e-001
3.008535e+003,6.454819e-001
3.012392e+003,6.511609e-001
3.016249e+003,6.573071e-001
3.020106e+003,6.632109e-001
3.023963e+003,6.676291e-001
3.027821e+003,6.745786e-001
3.031677e+003,6.812481e-001
3.035535e+003,6.835490e-001
3.039392e+003,6.861768e-001
3.043249e+003,6.942110e-001
3.047106e+003,7.007294e-001
3.050963e+003,7.056026e-001
3.054820e+003,7.116616e-001
3.058677e+003,7.197115e-001
3.062534e+003,7.238238e-001
3.066391e+003,7.280310e-001
3.070249e+003,7.339957e-001
3.074106e+003,7.387953e-001
3.077963e+003,7.461184e-001
3.081820e+003,7.527162e-001
3.085677e+003,7.577082e-001
3.089534e+003,7.635501e-001
3.093391e+003,7.713120e-001
3.097248e+003,7.770172e-001
3.101105e+003,7.801899e-001
3.104962e+003,7.886264e-001
3.108820e+003,7.958782e-001
3.112677e+003,7.990841e-001
3.116534e+003,8.073133e-001
3.120391e+003,8.119814e-001
3.124248e+003,8.169020e-001
3.128105e+003,8.254179e-001
3.131962e+003,8.336541e-001
3.135819e+003,8.400737e-001
3.139676e+003,8.447226e-001
3.143533e+003,8.506206e-001
3.147390e+003,8.592173e-001
3.151248e+003,8.639491e-001
3.155105e+003,8.722891e-001
3.158962e+003,8.830919e-001
3.162819e+003,8.856407e-001
3.166676e+003,8.922121e-001
3.170533e+003,8.993493e-001
3.174390e+003,9.043375e-001
3.178247e+003,9.104845e-001
3.182104e+003,9.175056e-001
3.185961e+003,9.213874e-001
3.189819e+003,9.275265e-001
3.193676e+003,9.383048e-001
3.197533e+003,9.486263e-001
3.201390e+003,9.558174e-001
3.205247e+003,9.615824e-001
3.209104e+003,9.674960e-001
3.212961e+003,9.687551e-001
3.216818e+003,9.669912e-001
3.220675e+003,9.748741e-001
3.224532e+003,9.869446e-001
3.228389e+003,9.912339e-001
3.232247e+003,9.975992e-001
3.236104e+003,1.004223e+000
3.239961e+003,1.006536e+000
3.243818e+003,1.009583e+000
3.247675e+003,1.019640e+000
3.251532e+003,1.028166e+000
3.255389e+003,1.035340e+000
3.259246e+003,1.040494e+000
3.263103e+003,1.046231e+000
3.266960e+003,1.049829e+000
3.270818e+003,1.050482e+000
3.274675e+003,1.050611e+000
3.278532e+003,1.057613e+000
3.282389e+003,1.062398e+000
3.286246e+003,1.072087e+000
3.290103e+003,1.078532e+000
3.293960e+003,1.071154e+000
3.297817e+003,1.064097e+000
3.301674e+003,1.074534e+000
3.305531e+003,1.088755e+000
3.309388e+003,1.097715e+000
3.313246e+003,1.102702e+000
3.317103e+003,1.114127e+000
3.320960e+003,1.122265e+000
3.324817e+003,1.122816e+000
3.328674e+003,1.130007e+000
3.332531e+003,1.141949e+000
3.336388e+003,1.148470e+000
3.340245e+003,1.151364e+000
3.344102e+003,1.158856e+000
3.347959e+003,1.169356e+000
3.351817e+003,1.178336e+000
3.355674e+003,1.192556e+000
3.359531e+003,1.206807e+000
3.363388e+003,1.203858e+000
3.367245e+003,1.197421e+000
3.371102e+003,1.211296e+000
3.374959e+003,1.205947e+000
3.378816e+003,1.191064e+000
3.382673e+003,1.201618e+000
3.386530e+003,1.209720e+000
3.390387e+003,1.203109e+000
3.394245e+003,1.202814e+000
3.398102e+003,1.218443e+000
3.401959e+003,1.232956e+000
3.405816e+003,1.244483e+000
3.409673e+003,1.254266e+000
3.413530e+003,1.242138e+000
3.417387e+003,1.239272e+000
3.421244e+003,1.249930e+000
3.425101e+003,1.260514e+000
3.428958e+003,1.267449e+000
3.432815e+003,1.272765e+000
3.436673e+003,1.283691e+000
3.440530e+003,1.288433e+000
3.444387e+003,1.282087e+000
3.448244e+003,1.267120e+000
3.452101e+003,1.274350e+000
3.455958e+003,1.276125e+000
3.459815e+003,1.288126e+000
3.463672e+003,1.305825e+000
3.467529e+003,1.313247e+000
3.471386e+003,1.317116e+000
3.475244e+003,1.314428e+000
3.479101e+003,1.309097e+000
3.482958e+003,1.309927e+000
3.486815e+003,1.312180e+000
3.490672e+003,1.304824e+000
3.494529e+003,1.310429e+000
3.498386e+003,1.323880e+000
3.502243e+003,1.326775e+000
3.506100e+003,1.330571e+000
3.509958e+003,1.338581e+000
3.513814e+003,1.340348e+000
3.517672e+003,1.338748e+000
3.521529e+003,1.336038e+000
3.525386e+003,1.328864e+000
3.529243e+003,1.315154e+000
3.533100e+003,1.315349e+000
3.536957e+003,1.312864e+000
3.540814e+003,1.312697e+000
3.544671e+003,1.320132e+000
3.548528e+003,1.324794e+000
3.552385e+003,1.317185e+000
3.556243e+003,1.312070e+000
3.560100e+003,1.300114e+000
3.563957e+003,1.299515e+000
3.567814e+003,1.302491e+000
3.571671e+003,1.277963e+000
3.575528e+003,1.250811e+000
3.579385e+003,1.229565e+000
3.583242e+003,1.213292e+000
3.587099e+003,1.207578e+000
3.590957e+003,1.186059e+000
3.594813e+003,1.155001e+000
3.598671e+003,1.131711e+000
3.602528e+003,1.106105e+000
3.606385e+003,1.068681e+000
3.610242e+003,1.038310e+000
3.614099e+003,9.968213e-001
3.617956e+003,9.479683e-001
3.621813e+003,9.014009e-001
3.625670e+003,8.533213e-001
3.629527e+003,8.028295e-001
3.633385e+003,7.521496e-001
3.637242e+003,7.044171e-001
3.641099e+003,6.578610e-001
3.644956e+003,6.121738e-001
3.648813e+003,5.633944e-001
3.652670e+003,5.184307e-001
3.656527e+003,4.815406e-001
3.660384e+003,4.475168e-001
3.664241e+003,4.151137e-001
3.668098e+003,3.847262e-001
3.671956e+003,3.562773e-001
3.675813e+003,3.340073e-001
3.679670e+003,3.131754e-001
3.683527e+003,2.918287e-001
3.687384e+003,2.752717e-001
3.691241e+003,2.626023e-001
3.695098e+003,2.513731e-001
3.698955e+003,2.409036e-001
3.702812e+003,2.312068e-001
3.706669e+003,2.234474e-001
3.710526e+003,2.166526e-001
3.714384e+003,2.105431e-001
3.718241e+003,2.077632e-001
3.722098e+003,2.040730e-001
3.725955e+003,2.004417e-001
3.729812e+003,1.999977e-001
3.733669e+003,1.992723e-001
3.737526e+003,1.975954e-001
3.741383e+003,1.959414e-001
3.745240e+003,1.952954e-001
3.749097e+003,1.944389e-001
3.752955e+003,1.938841e-001
3.756812e+003,1.925381e-001
3.760669e+003,1.913166e-001
3.764526e+003,1.912413e-001
3.768383e+003,1.895628e-001
3.772240e+003,1.887717e-001
3.776097e+003,1.877034e-001
3.779954e+003,1.863416e-001
3.783811e+003,1.851046e-001
3.787668e+003,1.835248e-001
3.791525e+003,1.832065e-001
3.795383e+003,1.830505e-001
3.799240e+003,1.841269e-001
3.803097e+003,1.837656e-001
3.806954e+003,1.809604e-001
3.810811e+003,1.819691e-001
3.814668e+003,1.830538e-001
3.818525e+003,1.827795e-001
3.822382e+003,1.832591e-001
3.826239e+003,1.831187e-001
3.830096e+003,1.826979e-001
3.833954e+003,1.852352e-001
3.837811e+003,1.874890e-001
3.841668e+003,1.866409e-001
3.845525e+003,1.864976e-001
3.849382e+003,1.865277e-001
3.853239e+003,1.851116e-001
3.857096e+003,1.844694e-001
3.860953e+003,1.858912e-001
3.864810e+003,1.865611e-001
3.868667e+003,1.868849e-001
3.872524e+003,1.846045e-001
3.876382e+003,1.809139e-001
3.880239e+003,1.808133e-001
3.884096e+003,1.833272e-001
3.887953e+003,1.835829e-001
3.891810e+003,1.816472e-001
3.895667e+003,1.809688e-001
3.899524e+003,1.814231e-001
3.903381e+003,1.822737e-001
3.907238e+003,1.828095e-001
3.911095e+003,1.836954e-001
3.914953e+003,1.848857e-001
3.918810e+003,1.849033e-001
3.922667e+003,1.859681e-001
3.926524e+003,1.884047e-001
3.930381e+003,1.901234e-001
3.934238e+003,1.891786e-001
3.938095e+003,1.881854e-001
3.941952e+003,1.876087e-001
3.945809e+003,1.875533e-001
3.949667e+003,1.881405e-001
3.953523e+003,1.879923e-001
3.957381e+003,1.871390e-001
3.961238e+003,1.880368e-001
3.965095e+003,1.880252e-001
3.968952e+003,1.856424e-001
3.972809e+003,1.852842e-001
3.976666e+003,1.845771e-001
3.980523e+003,1.820045e-001
3.984380e+003,1.820322e-001
3.988237e+003,1.826446e-001
3.992094e+003,1.822269e-001
3.995952e+003,1.825376e-001
3.999809e+003,1.837954e-001
4.003666e+003,1.845279e-001
4.007523e+003,1.843415e-001
4.011380e+003,1.840079e-001
4.015237e+003,1.845340e-001
4.019094e+003,1.867760e-001
4.022951e+003,1.875791e-001
4.026808e+003,1.870064e-001
4.030666e+003,1.862198e-001
4.034522e+003,1.878165e-001
4.038380e+003,1.886504e-001
4.042237e+003,1.893241e-001
4.046094e+003,1.900370e-001
4.049951e+003,1.874922e-001
4.053808e+003,1.849641e-001
4.057665e+003,1.860837e-001
4.061522e+003,1.858933e-001
4.065379e+003,1.842771e-001
4.069236e+003,1.840197e-001
4.073094e+003,1.847763e-001
4.076951e+003,1.831751e-001
4.080808e+003,1.842230e-001
4.084665e+003,1.854097e-001
4.088522e+003,1.847270e-001
4.092379e+003,1.838235e-001
4.096236e+003,1.833539e-001
4.100093e+003,1.836149e-001
4.103950e+003,1.847241e-001
4.107808e+003,1.858653e-001
4.111665e+003,1.864062e-001
4.115521e+003,1.866015e-001
4.119379e+003,1.861086e-001
4.123236e+003,1.854149e-001
4.127093e+003,1.858023e-001
4.130950e+003,1.878962e-001
4.134807e+003,1.879482e-001
4.138664e+003,1.865632e-001
4.142521e+003,1.862529e-001
4.146378e+003,1.861383e-001
4.150235e+003,1.841870e-001
4.154093e+003,1.839874e-001
4.157950e+003,1.839344e-001
4.161807e+003,1.823308e-001
4.165664e+003,1.838576e-001
4.169521e+003,1.853452e-001
4.173378e+003,1.840550e-001
4.177235e+003,1.830817e-001
4.181092e+003,1.828836e-001
4.184949e+003,1.820796e-001
4.188807e+003,1.816867e-001
4.192664e+003,1.824232e-001
4.196521e+003,1.814231e-001
4.200378e+003,1.805773e-001
4.204235e+003,1.810461e-001
4.208092e+003,1.837346e-001
4.211949e+003,1.841979e-001
4.215806e+003,1.832692e-001
4.219663e+003,1.839089e-001
4.223521e+003,1.845904e-001
4.227377e+003,1.843914e-001
4.231234e+003,1.868327e-001
4.235092e+003,1.870024e-001
4.238949e+003,1.852732e-001
4.242806e+003,1.849180e-001
4.246663e+003,1.854403e-001
4.250520e+003,1.835595e-001
4.254377e+003,1.815848e-001
4.258234e+003,1.833173e-001
4.262091e+003,1.860374e-001
4.265948e+003,1.869198e-001
4.269806e+003,1.841160e-001
4.273663e+003,1.822126e-001
4.277520e+003,1.820844e-001
4.281377e+003,1.832104e-001
4.285234e+003,1.838824e-001
4.289091e+003,1.844165e-001
4.292948e+003,1.842037e-001
4.296805e+003,1.850980e-001
4.300662e+003,1.855446e-001
4.304520e+003,1.842996e-001
4.308376e+003,1.845400e-001
4.312233e+003,1.868330e-001
4.316091e+003,1.888055e-001
4.319948e+003,1.891046e-001
4.323805e+003,1.905583e-001
4.327662e+003,1.909121e-001
4.331519e+003,1.914050e-001
4.335376e+003,1.911891e-001
4.339233e+003,1.884055e-001
4.343090e+003,1.851035e-001
4.346947e+003,1.871163e-001
4.350805e+003,1.901966e-001
4.354662e+003,1.896651e-001
4.358519e+003,1.888256e-001
4.362376e+003,1.873186e-001
4.366233e+003,1.859922e-001
4.370090e+003,1.840072e-001
4.373947e+003,1.843234e-001
4.377804e+003,1.854150e-001
4.381661e+003,1.856344e-001
4.385519e+003,1.847958e-001
4.389375e+003,1.865056e-001
4.393232e+003,1.888752e-001
4.397090e+003,1.893007e-001
4.400947e+003,1.872873e-001
4.404804e+003,1.864532e-001
4.408661e+003,1.884560e-001
4.412518e+003,1.884662e-001
4.416375e+003,1.885073e-001
4.420232e+003,1.906660e-001
4.424089e+003,1.930548e-001
4.427946e+003,1.929870e-001
4.431804e+003,1.915792e-001
4.435661e+003,1.921155e-001
4.439518e+003,1.908358e-001
4.443375e+003,1.873877e-001
4.447232e+003,1.871332e-001
4.451089e+003,1.863040e-001
4.454946e+003,1.859644e-001
4.458803e+003,1.889576e-001
4.462660e+003,1.905833e-001
4.466518e+003,1.888844e-001
4.470375e+003,1.875118e-001
4.474231e+003,1.853573e-001
4.478089e+003,1.831043e-001
4.481946e+003,1.835746e-001
4.485803e+003,1.858769e-001
4.489660e+003,1.867924e-001
4.493517e+003,1.868399e-001
4.497375e+003,1.880639e-001
4.501231e+003,1.880149e-001
4.505088e+003,1.858508e-001
4.508946e+003,1.868314e-001
4.512803e+003,1.909469e-001
4.516660e+003,1.916868e-001
4.520517e+003,1.863877e-001
4.524374e+003,1.864574e-001
4.528231e+003,1.894597e-001
4.532088e+003,1.881307e-001
4.535945e+003,1.874452e-001
4.539802e+003,1.871098e-001
4.543660e+003,1.860730e-001
4.547517e+003,1.834544e-001
4.551374e+003,1.838951e-001
4.555231e+003,1.836932e-001
4.559088e+003,1.823448e-001
4.562945e+003,1.830514e-001
4.566802e+003,1.826844e-001
4.570659e+003,1.812873e-001
4.574516e+003,1.808145e-001
4.578374e+003,1.798445e-001
4.582230e+003,1.789965e-001
4.586087e+003,1.796391e-001
4.589945e+003,1.794873e-001
4.593802e+003,1.817966e-001
4.597659e+003,1.830158e-001
4.601516e+003,1.818560e-001
4.605373e+003,1.813179e-001
4.609230e+003,1.814957e-001
4.613087e+003,1.834315e-001
4.616944e+003,1.833457e-001
4.620801e+003,1.815393e-001
4.624659e+003,1.821055e-001
4.628516e+003,1.831250e-001
4.632373e+003,1.844675e-001
4.636230e+003,1.855033e-001
4.640087e+003,1.835867e-001
4.643944e+003,1.813172e-001
4.647801e+003,1.793220e-001
4.651658e+003,1.783077e-001
4.655515e+003,1.779314e-001
4.659373e+003,1.784662e-001
4.663229e+003,1.805863e-001
4.667086e+003,1.789332e-001
4.670944e+003,1.765116e-001
4.674801e+003,1.765760e-001
4.678658e+003,1.758334e-001
4.682515e+003,1.780489e-001
4.686372e+003,1.768932e-001
4.690229e+003,1.772074e-001
4.694086e+003,1.766699e-001
4.697943e+003,1.756722e-001
4.701800e+003,1.774167e-001
4.705658e+003,1.801530e-001
4.709515e+003,1.805520e-001
4.713372e+003,1.780131e-001
4.717229e+003,1.792837e-001
4.721086e+003,1.795776e-001
4.724943e+003,1.790906e-001
4.728800e+003,1.797267e-001
4.732657e+003,1.783587e-001
4.736514e+003,1.753263e-001
4.740372e+003,1.764924e-001
4.744229e+003,1.760594e-001
4.748085e+003,1.755712e-001
4.751943e+003,1.767576e-001
4.755800e+003,1.765914e-001
4.759657e+003,1.759949e-001
4.763514e+003,1.757273e-001
4.767371e+003,1.734977e-001
4.771228e+003,1.728530e-001
4.775085e+003,1.720923e-001
4.778942e+003,1.699937e-001
4.782799e+003,1.710750e-001
4.786657e+003,1.734949e-001
4.790514e+003,1.742679e-001
4.794371e+003,1.753716e-001
4.798228e+003,1.737656e-001
4.802085e+003,1.737147e-001
4.805942e+003,1.766047e-001
4.809799e+003,1.742560e-001
4.813656e+003,1.701157e-001
4.817513e+003,1.681681e-001
4.821371e+003,1.700204e-001
4.825228e+003,1.745922e-001
4.829084e+003,1.762344e-001
4.832942e+003,1.753603e-001
4.836799e+003,1.755841e-001
4.840656e+003,1.726367e-001
4.844513e+003,1.695075e-001
4.848370e+003,1.724714e-001
4.852227e+003,1.724430e-001
4.856084e+003,1.699918e-001
4.859941e+003,1.680059e-001
4.863798e+003,1.662360e-001
4.867656e+003,1.684251e-001
4.871513e+003,1.723236e-001
4.875370e+003,1.735206e-001
4.879227e+003,1.709942e-001
4.883084e+003,1.685027e-001
4.886941e+003,1.703738e-001
4.890798e+003,1.743324e-001
4.894655e+003,1.738697e-001
4.898512e+003,1.712364e-001
4.902370e+003,1.713987e-001
4.906227e+003,1.725143e-001
4.910083e+003,1.729417e-001
4.913941e+003,1.696646e-001
4.917798e+003,1.691367e-001
4.921655e+003,1.708359e-001
4.925512e+003,1.715793e-001
4.929369e+003,1.694797e-001
4.933226e+003,1.691057e-001
4.937083e+003,1.713560e-001
4.940940e+003,1.721622e-001
4.944797e+003,1.718559e-001
4.948655e+003,1.689660e-001
4.952512e+003,1.667698e-001
4.956369e+003,1.682766e-001
4.960226e+003,1.666017e-001
4.964083e+003,1.654116e-001
4.967940e+003,1.674370e-001
4.971797e+003,1.688242e-001
4.975654e+003,1.673995e-001
4.979511e+003,1.655038e-001
4.983369e+003,1.649548e-001
4.987226e+003,1.648044e-001
4.991083e+003,1.689662e-001
4.994940e+003,1.692118e-001
4.998797e+003,1.668541e-001
5.002654e+003,1.655303e-001
5.006511e+003,1.664129e-001
5.010368e+003,1.660906e-001
5.014225e+003,1.674834e-001
5.018083e+003,1.667596e-001
5.021939e+003,1.647453e-001
5.025796e+003,1.653441e-001
5.029654e+003,1.660268e-001
5.033511e+003,1.690060e-001
5.037368e+003,1.682767e-001
5.041225e+003,1.635030e-001
5.045082e+003,1.634281e-001
5.048939e+003,1.631896e-001
5.052796e+003,1.630254e-001
5.056653e+003,1.628022e-001
5.060510e+003,1.600652e-001
5.064368e+003,1.583932e-001
5.068225e+003,1.625980e-001
5.072082e+003,1.659465e-001
5.075939e+003,1.638319e-001
5.079796e+003,1.639847e-001
5.083653e+003,1.653589e-001
5.087510e+003,1.646982e-001
5.091367e+003,1.614831e-001
5.095224e+003,1.575488e-001
5.099082e+003,1.589343e-001
5.102938e+003,1.612274e-001
5.106795e+003,1.633054e-001
5.110653e+003,1.649486e-001
5.114510e+003,1.667397e-001
5.118367e+003,1.655979e-001
5.122224e+003,1.639349e-001
5.126081e+003,1.643619e-001
5.129938e+003,1.670087e-001
5.133795e+003,1.674806e-001
5.137652e+003,1.627351e-001
5.141509e+003,1.605106e-001
5.145367e+003,1.635074e-001
5.149224e+003,1.641611e-001
5.153081e+003,1.592180e-001
5.156938e+003,1.570842e-001
5.160795e+003,1.590377e-001
5.164652e+003,1.589471e-001
5.168509e+003,1.593897e-001
5.172366e+003,1.626943e-001
5.176223e+003,1.630080e-001
5.180081e+003,1.588317e-001
5.183938e+003,1.585738e-001
5.187794e+003,1.604044e-001
5.191652e+003,1.601831e-001
5.195509e+003,1.624918e-001
5.199366e+003,1.594184e-001
5.203223e+003,1.602449e-001
5.207080e+003,1.618412e-001
5.210937e+003,1.598676e-001
5.214794e+003,1.595299e-001
5.218651e+003,1.601366e-001
5.222508e+003,1.615383e-001
5.226366e+003,1.599294e-001
5.230223e+003,1.574777e-001
5.234080e+003,1.538505e-001
5.237937e+003,1.546249e-001
5.241794e+003,1.544016e-001
5.245651e+003,1.543704e-001
5.249508e+003,1.561537e-001
5.253365e+003,1.575037e-001
5.257222e+003,1.570818e-001
5.261080e+003,1.545500e-001
5.264937e+003,1.542049e-001
5.268793e+003,1.549755e-001
5.272651e+003,1.524976e-001
5.276508e+003,1.508965e-001
5.280365e+003,1.501590e-001
5.284222e+003,1.473136e-001
5.288079e+003,1.463529e-001
5.291936e+003,1.484865e-001
5.295793e+003,1.501361e-001
5.299650e+003,1.498743e-001
5.303507e+003,1.501728e-001
5.307365e+003,1.480006e-001
5.311222e+003,1.465457e-001
5.315079e+003,1.466135e-001
5.318936e+003,1.477231e-001
5.322793e+003,1.463348e-001
5.326650e+003,1.444132e-001
5.330507e+003,1.441913e-001
5.334364e+003,1.462644e-001
5.338221e+003,1.466793e-001
5.342079e+003,1.448769e-001
5.345936e+003,1.465982e-001
5.349792e+003,1.477855e-001
5.353650e+003,1.454054e-001
5.357507e+003,1.470432e-001
5.361364e+003,1.481295e-001
5.365221e+003,1.483084e-001
5.369078e+003,1.477148e-001
5.372935e+003,1.484981e-001
5.376792e+003,1.487601e-001
5.380649e+003,1.448061e-001
5.384506e+003,1.456769e-001
5.388364e+003,1.489051e-001
5.392221e+003,1.482572e-001
5.396078e+003,1.440615e-001
5.399935e+003,1.426710e-001
5.403792e+003,1.414445e-001
5.407649e+003,1.408341e-001
5.411506e+003,1.433180e-001
5.415363e+003,1.455620e-001
5.419220e+003,1.452858e-001
5.423078e+003,1.422534e-001
5.426935e+003,1.433146e-001
5.430792e+003,1.419966e-001
5.434649e+003,1.386730e-001
5.438506e+003,1.407887e-001
5.442363e+003,1.419299e-001
5.446220e+003,1.422832e-001
5.450077e+003,1.417295e-001
5.453934e+003,1.426908e-001
5.457792e+003,1.414645e-001
5.461648e+003,1.409463e-001
5.465505e+003,1.418962e-001
5.469363e+003,1.404666e-001
5.473220e+003,1.419700e-001
5.477077e+003,1.431195e-001
5.480934e+003,1.403041e-001
5.484791e+003,1.401439e-001
5.488648e+003,1.393730e-001
5.492505e+003,1.373301e-001
5.496362e+003,1.367228e-001
5.500219e+003,1.391500e-001
5.504077e+003,1.436080e-001
5.507934e+003,1.409126e-001
5.511791e+003,1.382213e-001
5.515648e+003,1.428033e-001
5.519505e+003,1.451687e-001
5.523362e+003,1.437252e-001
5.527219e+003,1.417248e-001
5.531076e+003,1.397051e-001
5.534933e+003,1.407641e-001
5.538791e+003,1.415353e-001
5.542647e+003,1.452670e-001
5.546504e+003,1.443289e-001
5.550362e+003,1.404870e-001
5.554219e+003,1.406255e-001
5.558076e+003,1.387906e-001
5.561933e+003,1.390602e-001
5.565790e+003,1.411978e-001
5.569647e+003,1.421220e-001
5.573504e+003,1.379944e-001
5.577361e+003,1.376971e-001
5.581218e+003,1.421822e-001
5.585076e+003,1.429356e-001
5.588933e+003,1.381577e-001
5.592790e+003,1.366190e-001
5.596647e+003,1.366652e-001
5.600504e+003,1.352452e-001
5.604361e+003,1.351626e-001
5.608218e+003,1.358224e-001
5.612075e+003,1.363812e-001
5.615932e+003,1.369391e-001
5.619790e+003,1.366475e-001
5.623646e+003,1.354747e-001
5.627503e+003,1.347859e-001
5.631361e+003,1.371081e-001
5.635218e+003,1.373238e-001
5.639075e+003,1.323263e-001
5.642932e+003,1.299405e-001
5.646789e+003,1.337220e-001
5.650646e+003,1.387536e-001
5.654503e+003,1.385883e-001
5.658360e+003,1.356307e-001
5.662217e+003,1.366274e-001
5.666075e+003,1.375854e-001
5.669932e+003,1.407436e-001
5.673789e+003,1.411523e-001
5.677646e+003,1.358977e-001
5.681503e+003,1.306005e-001
5.685360e+003,1.290674e-001
5.689217e+003,1.336077e-001
5.693074e+003,1.346344e-001
5.696931e+003,1.313607e-001
5.700789e+003,1.320795e-001
5.704646e+003,1.358659e-001
5.708502e+003,1.337718e-001
5.712360e+003,1.308843e-001
5.716217e+003,1.342676e-001
5.720074e+003,1.382342e-001
5.723931e+003,1.366152e-001
5.727788e+003,1.353619e-001
5.731645e+003,1.380832e-001
5.735502e+003,1.397464e-001
5.739359e+003,1.392630e-001
5.743216e+003,1.354951e-001
5.747074e+003,1.352706e-001
5.750931e+003,1.362576e-001
5.754788e+003,1.331971e-001
5.758645e+003,1.342458e-001
5.762502e+003,1.399388e-001
5.766359e+003,1.396906e-001
5.770216e+003,1.325997e-001
5.774073e+003,1.311297e-001
5.777930e+003,1.347258e-001
5.781788e+003,1.338407e-001
5.785645e+003,1.341113e-001
5.789501e+003,1.319484e-001
5.793359e+003,1.325858e-001
5.797216e+003,1.339628e-001
5.801073e+003,1.339705e-001
5.804930e+003,1.369392e-001
5.808787e+003,1.368591e-001
5.812644e+003,1.358031e-001
5.816501e+003,1.326676e-001
5.820358e+003,1.287121e-001
5.824215e+003,1.339294e-001
5.828073e+003,1.389518e-001
5.831930e+003,1.370643e-001
5.835787e+003,1.326682e-001
5.839644e+003,1.304842e-001
5.843501e+003,1.348410e-001
5.847358e+003,1.388736e-001
5.851215e+003,1.371574e-001
5.855072e+003,1.336539e-001
5.858929e+003,1.316717e-001
5.862787e+003,1.315373e-001
5.866644e+003,1.315610e-001
5.870500e+003,1.326718e-001
5.874358e+003,1.311170e-001
5.878215e+003,1.357359e-001
5.882072e+003,1.380742e-001
5.885929e+003,1.363702e-001
5.889786e+003,1.359754e-001
5.893643e+003,1.366032e-001
5.897500e+003,1.327296e-001
5.901357e+003,1.312803e-001
5.905214e+003,1.343414e-001
5.909072e+003,1.377955e-001
5.912929e+003,1.376234e-001
5.916786e+003,1.397703e-001
5.920643e+003,1.437403e-001
5.924500e+003,1.427282e-001
5.928357e+003,1.382888e-001
5.932214e+003,1.382090e-001
5.936071e+003,1.377006e-001
5.939928e+003,1.343781e-001
5.943786e+003,1.340569e-001
5.947643e+003,1.361641e-001
5.951500e+003,1.345804e-001
5.955357e+003,1.305948e-001
5.959214e+003,1.294010e-001
5.963071e+003,1.353793e-001
5.966928e+003,1.381701e-001
5.970785e+003,1.391987e-001
5.974642e+003,1.381157e-001
5.978500e+003,1.354717e-001
5.982356e+003,1.331362e-001
5.986213e+003,1.326216e-001
5.990071e+003,1.344973e-001
5.993928e+003,1.403152e-001
5.997785e+003,1.426502e-001
6.001642e+003,1.368429e-001
6.005499e+003,1.385939e-001
6.009356e+003,1.381827e-001
6.013213e+003,1.331465e-001
6.017070e+003,1.313405e-001
6.020927e+003,1.317627e-001
6.024785e+003,1.366467e-001
6.028642e+003,1.403441e-001
6.032499e+003,1.412886e-001
6.036356e+003,1.421759e-001
6.040213e+003,1.412489e-001
6.044070e+003,1.387786e-001
6.047927e+003,1.348719e-001
6.051784e+003,1.351040e-001
6.055641e+003,1.351756e-001
6.059499e+003,1.360255e-001
6.063355e+003,1.367938e-001
6.067212e+003,1.346678e-001
6.071070e+003,1.343846e-001
6.074927e+003,1.364474e-001
6.078784e+003,1.347718e-001
6.082641e+003,1.376554e-001
6.086498e+003,1.348798e-001
6.090355e+003,1.333240e-001
6.094212e+003,1.363886e-001
6.098069e+003,1.355598e-001
6.101926e+003,1.361686e-001
6.105784e+003,1.374764e-001
6.109641e+003,1.399474e-001
6.113498e+003,1.394757e-001
6.117355e+003,1.345878e-001
6.121212e+003,1.372346e-001
6.125069e+003,1.380509e-001
6.128926e+003,1.378053e-001
6.132783e+003,1.401311e-001
6.136640e+003,1.390584e-001
6.140498e+003,1.406998e-001
6.144354e+003,1.389727e-001
6.148211e+003,1.380917e-001
6.152069e+003,1.392517e-001
6.155926e+003,1.369852e-001
6.159783e+003,1.378227e-001
6.163640e+003,1.369560e-001
6.167497e+003,1.376153e-001
6.171354e+003,1.377168e-001
6.175211e+003,1.434580e-001
6.179068e+003,1.451334e-001
6.182925e+003,1.400671e-001
6.186783e+003,1.386072e-001
6.190640e+003,1.387657e-001
6.194497e+003,1.412401e-001
6.198354e+003,1.437474e-001
6.202211e+003,1.413633e-001
6.206068e+003,1.409087e-001
6.209925e+003,1.397044e-001
6.213782e+003,1.416624e-001
6.217639e+003,1.453474e-001
6.221497e+003,1.468769e-001
6.225354e+003,1.479653e-001
6.229210e+003,1.455450e-001
6.233068e+003,1.444028e-001
6.236925e+003,1.430674e-001
6.240782e+003,1.379462e-001
6.244639e+003,1.414115e-001
6.248496e+003,1.497080e-001
6.252353e+003,1.501108e-001
6.256210e+003,1.499357e-001
6.260067e+003,1.530342e-001
6.263924e+003,1.464170e-001
6.267782e+003,1.438560e-001
6.271639e+003,1.438161e-001
6.275496e+003,1.437768e-001
6.279353e+003,1.458753e-001
6.283210e+003,1.490529e-001
6.287067e+003,1.430804e-001
6.290924e+003,1.378706e-001
6.294781e+003,1.395599e-001
6.298638e+003,1.500520e-001
6.302496e+003,1.514127e-001
6.306353e+003,1.443629e-001
6.310209e+003,1.460277e-001
6.314067e+003,1.508179e-001
6.317924e+003,1.508739e-001
6.321781e+003,1.497131e-001
6.325638e+003,1.493783e-001
6.329495e+003,1.505409e-001
6.333352e+003,1.508421e-001
6.337209e+003,1.513946e-001
6.341066e+003,1.567160e-001
6.344923e+003,1.572752e-001
6.348780e+003,1.633990e-001
6.352638e+003,1.637937e-001
6.356495e+003,1.555125e-001
6.360352e+003,1.502085e-001
6.364209e+003,1.482019e-001
6.368066e+003,1.533227e-001
6.371923e+003,1.552587e-001
6.375780e+003,1.525542e-001
6.379637e+003,1.468671e-001
6.383494e+003,1.491619e-001
6.387352e+003,1.589833e-001
6.391208e+003,1.625183e-001
6.395065e+003,1.597867e-001
6.398923e+003,1.519675e-001
6.402780e+003,1.426098e-001
6.406637e+003,1.495045e-001
6.410494e+003,1.613473e-001
6.414351e+003,1.616997e-001
6.418208e+003,1.589113e-001
6.422065e+003,1.574113e-001
6.425922e+003,1.624182e-001
6.429779e+003,1.634379e-001
6.433637e+003,1.618185e-001
6.437494e+003,1.585467e-001
6.441351e+003,1.579104e-001
6.445208e+003,1.589332e-001
6.449065e+003,1.640546e-001
6.452922e+003,1.642191e-001
6.456779e+003,1.634689e-001
6.460636e+003,1.685124e-001
6.464493e+003,1.689226e-001
6.468351e+003,1.582990e-001
6.472208e+003,1.511602e-001
6.476064e+003,1.556465e-001
6.479922e+003,1.524567e-001
6.483779e+003,1.509407e-001
6.487636e+003,1.625066e-001
6.491493e+003,1.684605e-001
6.495350e+003,1.617865e-001
6.499207e+003,1.565772e-001
6.503064e+003,1.588153e-001
6.506921e+003,1.606808e-001
6.510778e+003,1.554612e-001
6.514636e+003,1.544912e-001
6.518493e+003,1.596113e-001
6.522350e+003,1.591637e-001
6.526207e+003,1.531899e-001
6.530064e+003,1.477065e-001
6.533921e+003,1.515658e-001
6.537778e+003,1.650721e-001
6.541635e+003,1.706935e-001
6.545492e+003,1.658123e-001
6.549350e+003,1.574511e-001
6.553207e+003,1.576788e-001
6.557063e+003,1.595323e-001
6.560921e+003,1.592300e-001
6.564778e+003,1.628259e-001
6.568635e+003,1.639382e-001
6.572492e+003,1.674331e-001
6.576349e+003,1.693586e-001
6.580206e+003,1.681867e-001
6.584063e+003,1.656443e-001
6.587920e+003,1.648723e-001
6.591777e+003,1.698293e-001
6.595635e+003,1.719289e-001
6.599492e+003,1.703612e-001
6.603349e+003,1.661978e-001
6.607206e+003,1.653140e-001
6.611063e+003,1.696897e-001
6.614920e+003,1.703035e-001
6.618777e+003,1.724255e-001
6.622634e+003,1.749411e-001
6.626491e+003,1.740441e-001
6.630349e+003,1.727764e-001
6.634206e+003,1.731313e-001
6.638063e+003,1.700060e-001
6.641920e+003,1.675011e-001
6.645777e+003,1.718152e-001
6.649634e+003,1.811517e-001
6.653491e+003,1.833362e-001
6.657348e+003,1.765743e-001
6.661205e+003,1.815165e-001
6.665063e+003,1.852997e-001
6.668919e+003,1.799705e-001
6.672776e+003,1.765825e-001
6.676634e+003,1.744362e-001
6.680491e+003,1.686732e-001
6.684348e+003,1.692296e-001
6.688205e+003,1.775986e-001
6.692062e+003,1.769992e-001
6.695919e+003,1.768269e-001
6.699776e+003,1.770425e-001
6.703633e+003,1.724284e-001
6.707490e+003,1.735506e-001
6.711348e+003,1.751789e-001
6.715205e+003,1.730155e-001
6.719062e+003,1.778489e-001
6.722919e+003,1.811667e-001
6.726776e+003,1.816696e-001
6.730633e+003,1.763406e-001
6.734490e+003,1.775911e-001
6.738347e+003,1.821325e-001
6.742204e+003,1.824906e-001
6.746062e+003,1.837907e-001
6.749918e+003,1.803582e-001
6.753775e+003,1.717682e-001
6.757633e+003,1.696660e-001
6.761490e+003,1.830747e-001
6.765347e+003,1.914354e-001
6.769204e+003,1.890693e-001
6.773061e+003,1.802777e-001
6.776918e+003,1.734634e-001
6.780775e+003,1.785439e-001
6.784632e+003,1.887482e-001
6.788489e+003,1.905135e-001
6.792347e+003,1.816718e-001
6.796204e+003,1.733236e-001
6.800061e+003,1.715187e-001
6.803918e+003,1.820619e-001
6.807775e+003,1.873778e-001
6.811632e+003,1.878724e-001
6.815489e+003,1.843510e-001
6.819346e+003,1.848779e-001
6.823203e+003,1.868662e-001
6.827061e+003,1.874285e-001
6.830917e+003,1.827563e-001
6.834774e+003,1.878136e-001
6.838632e+003,1.832056e-001
6.842489e+003,1.818149e-001
6.846346e+003,1.931703e-001
6.850203e+003,1.941744e-001
6.854060e+003,1.870413e-001
6.857917e+003,1.838564e-001
6.861774e+003,1.800656e-001
6.865631e+003,1.804248e-001
6.869488e+003,1.818355e-001
6.873346e+003,1.876137e-001
6.877203e+003,1.935776e-001
6.881060e+003,1.926969e-001
6.884917e+003,1.944017e-001
6.888774e+003,1.931344e-001
6.892631e+003,1.899461e-001
6.896488e+003,1.883181e-001
6.900345e+003,1.789082e-001
6.904202e+003,1.816311e-001
6.908060e+003,1.972955e-001
6.911917e+003,2.084653e-001
6.915773e+003,2.037066e-001
6.919631e+003,1.894470e-001
6.923488e+003,1.820415e-001
6.927345e+003,1.818814e-001
6.931202e+003,1.935606e-001
6.935059e+003,2.014483e-001
6.938916e+003,2.027103e-001
6.942773e+003,1.979052e-001
6.946630e+003,1.939444e-001
6.950487e+003,2.049495e-001
6.954345e+003,2.017654e-001
6.958202e+003,1.946678e-001
6.962059e+003,1.878749e-001
6.965916e+003,1.866834e-001
6.969773e+003,1.916545e-001
6.973630e+003,1.941751e-001
6.977487e+003,1.973347e-001
6.981344e+003,2.013679e-001
6.985201e+003,1.930707e-001
6.989059e+003,1.986885e-001
6.992916e+003,1.936229e-001
6.996772e+003,1.974189e-001
7.000630e+003,2.069440e-001
7.004487e+003,2.009245e-001
7.008344e+003,1.881528e-001
7.012201e+003,1.845500e-001
7.016058e+003,1.853413e-001
7.019915e+003,1.902192e-001
7.023772e+003,1.978492e-001
7.027629e+003,2.100538e-001
7.031486e+003,1.948861e-001
7.035344e+003,1.898926e-001
7.039201e+003,1.953117e-001
7.043058e+003,1.929940e-001
7.046915e+003,2.026873e-001
7.050772e+003,2.070876e-001
7.054629e+003,2.007596e-001
7.058486e+003,1.943161e-001
7.062343e+003,1.973965e-001
7.066200e+003,2.075442e-001
7.070058e+003,2.099498e-001
7.073915e+003,2.126801e-001
7.077771e+003,2.213682e-001
7.081629e+003,2.143635e-001
7.085486e+003,1.996316e-001
7.089343e+003,1.986706e-001
7.093200e+003,2.049360e-001
7.097057e+003,2.017757e-001
7.100914e+003,2.127183e-001
7.104771e+003,2.166552e-001
7.108628e+003,2.167140e-001
7.112485e+003,2.163998e-001
7.116343e+003,2.144662e-001
7.120200e+003,2.079372e-001
7.124057e+003,2.074963e-001
7.127914e+003,2.035647e-001
7.131771e+003,2.033609e-001
7.135628e+003,2.044797e-001
7.139485e+003,2.060095e-001
7.143342e+003,2.010299e-001
7.147199e+003,1.978745e-001
7.151057e+003,2.075506e-001
7.154914e+003,2.049156e-001
7.158771e+003,2.134911e-001
7.162628e+003,2.206500e-001
7.166485e+003,2.140064e-001
7.170342e+003,2.077907e-001
7.174199e+003,1.968345e-001
7.178056e+003,1.891346e-001
7.181913e+003,1.889263e-001
7.185771e+003,1.863796e-001
7.189627e+003,1.893469e-001
7.193484e+003,2.021530e-001
7.197342e+003,2.088141e-001
7.201199e+003,2.006498e-001
7.205056e+003,1.826046e-001
7.208913e+003,1.773339e-001
7.212770e+003,1.911480e-001
7.216627e+003,2.089411e-001
7.220484e+003,2.023633e-001
7.224341e+003,1.965385e-001
7.228198e+003,1.944658e-001
7.232056e+003,2.010349e-001
7.235913e+003,2.039830e-001
7.239770e+003,2.130243e-001
7.243627e+003,2.169128e-001
7.247484e+003,2.262998e-001
7.251341e+003,2.353876e-001
7.255198e+003,2.112892e-001
7.259055e+003,1.924374e-001
7.262912e+003,1.974280e-001
7.266770e+003,2.081022e-001
7.270626e+003,2.111644e-001
7.274483e+003,1.996731e-001
7.278341e+003,1.898836e-001
7.282198e+003,1.918927e-001
7.286055e+003,2.111831e-001
7.289912e+003,2.230958e-001
7.293769e+003,2.057703e-001
7.297626e+003,1.873861e-001
7.301483e+003,1.894298e-001
7.305340e+003,1.938785e-001
7.309197e+003,1.930748e-001
7.313055e+003,1.994330e-001
7.316912e+003,2.072493e-001
7.320769e+003,2.031166e-001
7.324626e+003,1.999505e-001
7.328483e+003,1.845874e-001
7.332340e+003,1.711655e-001
7.336197e+003,1.743573e-001
7.340054e+003,1.910011e-001
7.343911e+003,1.942899e-001
7.347769e+003,1.790052e-001
7.351625e+003,1.635327e-001
7.355482e+003,1.592494e-001
7.359340e+003,1.852553e-001
7.363197e+003,1.966369e-001
7.367054e+003,1.840296e-001
7.370911e+003,1.667970e-001
7.374768e+003,1.648383e-001
7.378625e+003,1.793033e-001
7.382482e+003,1.880085e-001
7.386339e+003,1.861667e-001
7.390196e+003,1.787832e-001
7.394054e+003,1.861930e-001
7.397911e+003,1.909936e-001
7.401768e+003,1.833575e-001
7.405625e+003,1.811419e-001
7.409482e+003,1.711417e-001
7.413339e+003,1.790783e-001
7.417196e+003,1.969500e-001
7.421053e+003,1.802863e-001
7.424910e+003,1.595615e-001
7.428768e+003,1.787580e-001
7.432625e+003,1.979875e-001
7.436481e+003,1.897831e-001
7.440339e+003,1.754299e-001
7.444196e+003,1.699747e-001
7.448053e+003,1.579272e-001
7.451910e+003,1.519551e-001
7.455767e+003,1.536252e-001
7.459624e+003,1.810017e-001
7.463481e+003,1.857119e-001
7.467338e+003,1.705298e-001
7.471195e+003,1.716158e-001
7.475053e+003,1.862538e-001
7.478910e+003,1.958267e-001
7.482767e+003,1.717487e-001
7.486624e+003,1.798261e-001
7.490481e+003,1.800559e-001
7.494338e+003,1.708421e-001
7.498195e+003,1.747043e-001
7.502052e+003,1.694777e-001
7.505909e+003,1.395295e-001
7.509767e+003,1.358396e-001
7.513624e+003,1.672870e-001
7.517480e+003,1.574440e-001
7.521338e+003,1.717791e-001
7.525195e+003,1.986549e-001
7.529052e+003,1.920141e-001
7.532909e+003,1.910530e-001
7.536766e+003,1.802586e-001
7.540623e+003,1.617374e-001
7.544480e+003,1.545191e-001
7.548337e+003,1.619240e-001
7.552194e+003,1.663908e-001
7.556052e+003,1.535764e-001
7.559909e+003,1.454159e-001
7.563766e+003,1.612034e-001
7.567623e+003,1.916105e-001
7.571480e+003,1.888011e-001
7.575337e+003,1.663201e-001
7.579194e+003,1.596232e-001
7.583051e+003,1.781182e-001
7.586908e+003,1.827274e-001
7.590766e+003,1.770848e-001
7.594623e+003,1.742100e-001
7.598479e+003,1.593485e-001
7.602337e+003,1.592982e-001
7.606194e+003,1.755999e-001
7.610051e+003,1.787461e-001
7.613908e+003,1.652858e-001
7.617765e+003,1.580101e-001
7.621622e+003,1.580107e-001
7.625479e+003,1.478402e-001
7.629336e+003,1.609776e-001
7.633193e+003,1.629104e-001
7.637051e+003,1.613540e-001
7.640908e+003,1.734849e-001
7.644765e+003,1.593643e-001
7.648622e+003,1.531176e-001
7.652479e+003,1.818579e-001
7.656336e+003,1.920918e-001
7.660193e+003,1.670037e-001
7.664050e+003,1.533929e-001
7.667907e+003,1.694879e-001
7.671765e+003,1.851074e-001
7.675622e+003,1.648761e-001
7.679479e+003,1.749992e-001
7.683336e+003,1.793351e-001
7.687193e+003,1.625151e-001
7.691050e+003,1.822682e-001
7.694907e+003,1.892137e-001
7.698764e+003,1.428024e-001
7.702621e+003,1.302271e-001
7.706479e+003,1.555065e-001
7.710335e+003,1.567857e-001
7.714192e+003,1.577052e-001
7.718050e+003,1.707408e-001
7.721907e+003,1.876929e-001
7.725764e+003,1.775847e-001
7.729621e+003,1.604705e-001
7.733478e+003,1.750581e-001
7.737335e+003,1.807465e-001
7.741192e+003,1.668715e-001
7.745049e+003,1.569378e-001
7.748906e+003,1.560526e-001
7.752764e+003,1.771435e-001
7.756621e+003,1.721226e-001
7.760478e+003,1.373006e-001
7.764335e+003,1.261007e-001
7.768192e+003,1.440382e-001
7.772049e+003,1.562026e-001
7.775906e+003,1.682549e-001
7.779763e+003,1.478124e-001
7.783620e+003,1.393516e-001
7.787478e+003,1.526460e-001
7.791334e+003,1.776719e-001
7.795191e+003,1.816626e-001
7.799049e+003,1.587501e-001
7.802906e+003,1.701116e-001
7.806763e+003,1.503789e-001
7.810620e+003,1.425852e-001
7.814477e+003,1.621120e-001
7.818334e+003,1.595469e-001
7.822191e+003,1.523301e-001
7.826048e+003,1.270028e-001
7.829905e+003,1.294776e-001
7.833763e+003,1.320818e-001
7.837620e+003,1.093148e-001
7.841477e+003,1.287769e-001
7.845334e+003,1.549585e-001
7.849191e+003,1.326255e-001
7.853048e+003,9.398903e-002
7.856905e+003,1.016211e-001
7.860762e+003,1.492896e-001
7.864619e+003,1.800794e-001
7.868477e+003,1.683898e-001
7.872333e+003,1.707693e-001
7.876190e+003,1.704482e-001
7.880048e+003,1.474336e-001
7.883905e+003,1.427986e-001
7.887762e+003,1.516459e-001
7.891619e+003,1.437815e-001
7.895476e+003,1.461565e-001
7.899333e+003,1.624388e-001
7.903190e+003,1.595252e-001
7.907047e+003,1.477036e-001
7.910904e+003,1.534613e-001
7.914762e+003,1.616729e-001
7.918619e+003,1.583607e-001
7.922476e+003,1.632564e-001
7.926333e+003,1.548096e-001
7.930190e+003,1.056720e-001
7.934047e+003,9.855845e-002
7.937904e+003,1.150580e-001
7.941761e+003,1.423004e-001
7.945618e+003,1.776495e-001
7.949476e+003,1.585401e-001
7.953333e+003,1.453757e-001
7.957189e+003,1.790050e-001
7.961047e+003,1.625966e-001
7.964904e+003,1.689670e-001
7.968761e+003,1.932150e-001
7.972618e+003,1.675258e-001
7.976475e+003,1.302532e-001
7.980332e+003,1.536885e-001
7.984189e+003,1.588504e-001
7.988046e+003,1.678546e-001
7.991903e+003,1.389755e-001
7.995761e+003,7.571369e-002
7.999618e+003,8.241294e-002
