4.011380e+002,6.000000e+000
4.049951e+002,6.000000e+000
4.088522e+002,-4.785121e-001
4.127093e+002,6.000000e+000
4.165664e+002,6.000000e+000
4.204235e+002,-2.046935e-001
4.242806e+002,6.000000e+000
4.281377e+002,7.439926e-002
4.319948e+002,6.000000e+000
4.358519e+002,6.000000e+000
4.397090e+002,6.000000e+000
4.435661e+002,6.000000e+000
4.474232e+002,6.000000e+000
4.512803e+002,-1.965269e-001
4.551374e+002,-6.487548e-001
4.589945e+002,5.725273e-001
4.628516e+002,6.499551e-001
4.667087e+002,8.262029e-001
4.705658e+002,6.000000e+000
4.744229e+002,2.928554e-001
4.782800e+002,-2.853004e-001
4.821371e+002,6.000000e+000
4.859941e+002,-6.444245e-002
4.898513e+002,6.000000e+000
4.937083e+002,6.000000e+000
4.975654e+002,6.000000e+000
5.014225e+002,6.000000e+000
5.052796e+002,1.009508e+000
5.091367e+002,6.000000e+000
5.129938e+002,6.000000e+000
5.168509e+002,6.000000e+000
5.207080e+002,4.092056e-002
5.245651e+002,-2.071238e-001
5.284222e+002,1.109590e+000
5.322793e+002,9.255438e-002
5.361364e+002,6.000000e+000
5.399935e+002,6.000000e+000
5.438506e+002,-6.862628e-001
5.477077e+002,-2.514152e-001
5.515648e+002,-9.337690e-002
5.554219e+002,6.000000e+000
5.592790e+002,-1.177384e+000
5.631361e+002,-1.600998e-002
5.669932e+002,6.000000e+000
5.708503e+002,6.000000e+000
5.747074e+002,6.000000e+000
5.785645e+002,6.000000e+000
5.824216e+002,-6.691721e-001
5.862787e+002,6.000000e+000
5.901357e+002,6.000000e+000
5.939929e+002,6.000000e+000
5.978499e+002,2.902659e+000
6.017070e+002,2.734253e+000
6.055641e+002,6.000000e+000
6.094212e+002,6.000000e+000
6.132783e+002,6.000000e+000
6.171354e+002,6.000000e+000
6.209925e+002,-2.083085e-001
6.248496e+002,7.824533e-001
6.287067e+002,1.110133e-001
6.325638e+002,6.000000e+000
6.364209e+002,-2.132100e-001
6.402780e+002,-6.002167e-001
6.441351e+002,-1.746337e+000
6.479922e+002,6.000000e+000
6.518493e+002,6.000000e+000
6.557064e+002,6.000000e+000
6.595635e+002,-4.906247e-001
6.634205e+002,-9.683493e-001
6.672777e+002,6.000000e+000
6.711348e+002,-1.416824e+000
6.749918e+002,-6.029584e-002
6.788490e+002,6.000000e+000
6.827061e+002,6.000000e+000
6.865631e+002,6.000000e+000
6.904203e+002,5.292986e-001
6.942773e+002,5.021126e-001
6.981344e+002,6.953267e-001
7.019916e+002,6.000000e+000
7.058486e+002,-1.473650e+000
7.097057e+002,6.000000e+000
7.135629e+002,3.831832e-001
7.174199e+002,-1.645987e-001
7.212770e+002,2.665029e-001
7.251342e+002,6.597672e-001
7.289912e+002,-2.722605e-002
7.328483e+002,8.450578e-001
7.367054e+002,-4.925425e-001
7.405625e+002,-2.672277e-001
7.444196e+002,6.000000e+000
7.482767e+002,1.091822e+000
7.521338e+002,6.000000e+000
7.559908e+002,6.000000e+000
7.598480e+002,6.000000e+000
7.637051e+002,6.000000e+000
7.675621e+002,6.000000e+000
7.714193e+002,5.297766e-001
7.752764e+002,6.000000e+000
7.791334e+002,6.000000e+000
7.829905e+002,-2.009992e-001
7.868477e+002,6.000000e+000
7.907047e+002,6.000000e+000
7.945618e+002,-4.534641e-001
7.984189e+002,-1.033626e+000
8.022760e+002,-5.686213e-001
8.061331e+002,6.000000e+000
8.099902e+002,5.777273e-001
8.138473e+002,6.000000e+000
8.177044e+002,6.000000e+000
8.215615e+002,1.212015e+000
8.254186e+002,1.203938e+000
8.292757e+002,6.000000e+000
8.331328e+002,6.000000e+000
8.369899e+002,1.045880e+000
8.408470e+002,3.658543e-001
8.447041e+002,6.000000e+000
8.485612e+002,6.000000e+000
8.524183e+002,6.846480e-001
8.562754e+002,6.231909e-001
8.601324e+002,8.329463e-001
8.639896e+002,8.229021e-001
8.678467e+002,8.302342e-001
8.717037e+002,9.557223e-001
8.755609e+002,6.445670e-001
8.794180e+002,6.446877e-001
8.832750e+002,1.007572e+000
8.871321e+002,2.214345e+000
8.909893e+002,1.594437e+000
8.948463e+002,1.527214e+000
8.987034e+002,6.000000e+000
9.025605e+002,6.000000e+000
9.064176e+002,1.277372e+000
9.102747e+002,1.141060e+000
9.141318e+002,1.056556e+000
9.179889e+002,1.042924e+000
9.218461e+002,1.184470e+000
9.257031e+002,6.000000e+000
9.295602e+002,6.000000e+000
9.334174e+002,2.052358e+000
9.372744e+002,2.057477e+000
9.411315e+002,1.880361e+000
9.449886e+002,1.554434e+000
9.488457e+002,2.189340e+000
9.527028e+002,6.000000e+000
9.565599e+002,2.230428e+000
9.604170e+002,1.641355e+000
9.642740e+002,1.612082e+000
9.681312e+002,1.630563e+000
9.719883e+002,1.346502e+000
9.758453e+002,1.201758e+000
9.797025e+002,1.399914e+000
9.835596e+002,1.736250e+000
9.874166e+002,6.000000e+000
9.912738e+002,2.153459e+000
9.951309e+002,1.660815e+000
9.989879e+002,1.513337e+000
1.002845e+003,1.518961e+000
1.006702e+003,1.358982e+000
1.010559e+003,1.368988e+000
1.014416e+003,1.549920e+000
1.018273e+003,1.744138e+000
1.022130e+003,1.588933e+000
1.025988e+003,1.503545e+000
1.029845e+003,1.600992e+000
1.033702e+003,1.564757e+000
1.037559e+003,1.540903e+000
1.041416e+003,1.768333e+000
1.045273e+003,1.662027e+000
1.049130e+003,1.395405e+000
1.052987e+003,1.395835e+000
1.056844e+003,1.518084e+000
1.060702e+003,1.464396e+000
1.064559e+003,1.528336e+000
1.068416e+003,1.645812e+000
1.072273e+003,1.504335e+000
1.076130e+003,1.353652e+000
1.079987e+003,1.380814e+000
1.083844e+003,1.463160e+000
1.087701e+003,1.429640e+000
1.091558e+003,1.424234e+000
1.095415e+003,1.501952e+000
1.099272e+003,1.395841e+000
1.103130e+003,1.324568e+000
1.106987e+003,1.298972e+000
1.110844e+003,1.294795e+000
1.114701e+003,1.488862e+000
1.118558e+003,1.479057e+000
1.122415e+003,1.383991e+000
1.126272e+003,1.325136e+000
1.130129e+003,1.338948e+000
1.133986e+003,1.348816e+000
1.137843e+003,1.300846e+000
1.141701e+003,1.433247e+000
1.145558e+003,1.447184e+000
1.149415e+003,1.368825e+000
1.153272e+003,1.355472e+000
1.157129e+003,1.314655e+000
1.160986e+003,1.372132e+000
1.164843e+003,1.423222e+000
1.168700e+003,1.354667e+000
1.172557e+003,1.397403e+000
1.176414e+003,1.367535e+000
1.180271e+003,1.323124e+000
1.184129e+003,1.339136e+000
1.187986e+003,1.286349e+000
1.191843e+003,1.333536e+000
1.195700e+003,1.416077e+000
1.199557e+003,1.337461e+000
1.203414e+003,1.286147e+000
1.207271e+003,1.288753e+000
1.211128e+003,1.221374e+000
1.214985e+003,1.147817e+000
1.218842e+003,1.086682e+000
1.222699e+003,1.049283e+000
1.226557e+003,1.028778e+000
1.230414e+003,1.009989e+000
1.234271e+003,9.405447e-001
1.238128e+003,9.147854e-001
1.241985e+003,9.041080e-001
1.245842e+003,8.622631e-001
1.249699e+003,8.316727e-001
1.253556e+003,7.918910e-001
1.257413e+003,7.634228e-001
1.261271e+003,7.458916e-001
1.265128e+003,7.202587e-001
1.268985e+003,6.858079e-001
1.272842e+003,6.640996e-001
1.276699e+003,6.524513e-001
1.280556e+003,6.403298e-001
1.284413e+003,6.270242e-001
1.288270e+003,6.092034e-001
1.292127e+003,5.872833e-001
1.295984e+003,5.828950e-001
1.299841e+003,5.859799e-001
1.303698e+003,5.734040e-001
1.307556e+003,5.645933e-001
1.311413e+003,5.661164e-001
1.315270e+003,5.611416e-001
1.319127e+003,5.570264e-001
1.322984e+003,5.547382e-001
1.326841e+003,5.466837e-001
1.330698e+003,5.450335e-001
1.334555e+003,5.452801e-001
1.338412e+003,5.379934e-001
1.342270e+003,5.404406e-001
1.346127e+003,5.453376e-001
1.349984e+003,5.453581e-001
1.353841e+003,5.477271e-001
1.357698e+003,5.424910e-001
1.361555e+003,5.355746e-001
1.365412e+003,5.365746e-001
1.369269e+003,5.446289e-001
1.373126e+003,5.468695e-001
1.376983e+003,5.514936e-001
1.380840e+003,5.665298e-001
1.384698e+003,5.766811e-001
1.388555e+003,5.882154e-001
1.392412e+003,6.014642e-001
1.396269e+003,6.118779e-001
1.400126e+003,6.211679e-001
1.403983e+003,6.326752e-001
1.407840e+003,6.494141e-001
1.411697e+003,6.628370e-001
1.415554e+003,6.684316e-001
1.419411e+003,6.785526e-001
1.423269e+003,6.905828e-001
1.427126e+003,6.947256e-001
1.430983e+003,6.963097e-001
1.434840e+003,7.013600e-001
1.438697e+003,7.040877e-001
1.442554e+003,6.974779e-001
1.446411e+003,6.896876e-001
1.450268e+003,6.831389e-001
1.454125e+003,6.699746e-001
1.457982e+003,6.637884e-001
1.461839e+003,6.585637e-001
1.465697e+003,6.615689e-001
1.469554e+003,6.571981e-001
1.473411e+003,6.539311e-001
1.477268e+003,6.546264e-001
1.481125e+003,6.732067e-001
1.484982e+003,6.848414e-001
1.488839e+003,6.877025e-001
1.492696e+003,6.999112e-001
1.496553e+003,7.235441e-001
1.500411e+003,7.324755e-001
1.504268e+003,7.267169e-001
1.508125e+003,7.273350e-001
1.511982e+003,7.283773e-001
1.515839e+003,7.252068e-001
1.519696e+003,7.196811e-001
1.523553e+003,7.120346e-001
1.527410e+003,7.106816e-001
1.531267e+003,7.067940e-001
1.535124e+003,6.858180e-001
1.538981e+003,6.723431e-001
1.542839e+003,6.646754e-001
1.546696e+003,6.449697e-001
1.550553e+003,6.322705e-001
1.554410e+003,6.218305e-001
1.558267e+003,6.178658e-001
1.562124e+003,6.133167e-001
1.565981e+003,6.036035e-001
1.569838e+003,6.010885e-001
1.573695e+003,5.992456e-001
1.577552e+003,5.896694e-001
1.581410e+003,5.855847e-001
1.585267e+003,5.901911e-001
1.589124e+003,5.887156e-001
1.592981e+003,5.935630e-001
1.596838e+003,6.110883e-001
1.600695e+003,6.193943e-001
1.604552e+003,6.366271e-001
1.608409e+003,6.665667e-001
1.612266e+003,6.873329e-001
1.616123e+003,7.038955e-001
1.619980e+003,7.226087e-001
1.623838e+003,7.443634e-001
1.627695e+003,7.819561e-001
1.631552e+003,8.059455e-001
1.635409e+003,8.092301e-001
1.639266e+003,8.063789e-001
1.643123e+003,7.953941e-001
1.646980e+003,7.760620e-001
1.650837e+003,7.610974e-001
1.654694e+003,7.432263e-001
1.658551e+003,7.248785e-001
1.662409e+003,7.058010e-001
1.666266e+003,6.861929e-001
1.670123e+003,6.618280e-001
1.673980e+003,6.355824e-001
1.677837e+003,6.137283e-001
1.681694e+003,5.930448e-001
1.685551e+003,5.751857e-001
1.689408e+003,5.544351e-001
1.693265e+003,5.367477e-001
1.697122e+003,5.268267e-001
1.700979e+003,5.192447e-001
1.704837e+003,5.102320e-001
1.708694e+003,5.038841e-001
1.712551e+003,5.013164e-001
1.716408e+003,4.922228e-001
1.720265e+003,4.900403e-001
1.724122e+003,4.865546e-001
1.727979e+003,4.799053e-001
1.731836e+003,4.774151e-001
1.735693e+003,4.760784e-001
1.739550e+003,4.715365e-001
1.743408e+003,4.715463e-001
1.747265e+003,4.666759e-001
1.751122e+003,4.647630e-001
1.754979e+003,4.632625e-001
1.758836e+003,4.608592e-001
1.762693e+003,4.607210e-001
1.766550e+003,4.625950e-001
1.770407e+003,4.629606e-001
1.774264e+003,4.581576e-001
1.778121e+003,4.497955e-001
1.781979e+003,4.471262e-001
1.785836e+003,4.442968e-001
1.789693e+003,4.412187e-001
1.793550e+003,4.415766e-001
1.797407e+003,4.385498e-001
1.801264e+003,4.332217e-001
1.805121e+003,4.317569e-001
1.808978e+003,4.331571e-001
1.812835e+003,4.352482e-001
1.816692e+003,4.363958e-001
1.820549e+003,4.361266e-001
1.824407e+003,4.342362e-001
1.828264e+003,4.312825e-001
1.832121e+003,4.278083e-001
1.835978e+003,4.300857e-001
1.839835e+003,4.295305e-001
1.843692e+003,4.234105e-001
1.847549e+003,4.209861e-001
1.851406e+003,4.243396e-001
1.855263e+003,4.260776e-001
1.859120e+003,4.265656e-001
1.862978e+003,4.246134e-001
1.866835e+003,4.195475e-001
1.870692e+003,4.179795e-001
1.874549e+003,4.203101e-001
1.878406e+003,4.204819e-001
1.882263e+003,4.183546e-001
1.886120e+003,4.199460e-001
1.889977e+003,4.152997e-001
1.893834e+003,4.075293e-001
1.897691e+003,4.079880e-001
1.901548e+003,4.061410e-001
1.905406e+003,4.081832e-001
1.909263e+003,4.122706e-001
1.913120e+003,4.068035e-001
1.916977e+003,3.987996e-001
1.920834e+003,3.988984e-001
1.924691e+003,4.023517e-001
1.928548e+003,4.018821e-001
1.932405e+003,3.982724e-001
1.936262e+003,3.951278e-001
1.940119e+003,3.945885e-001
1.943977e+003,3.932283e-001
1.947834e+003,3.917541e-001
1.951691e+003,3.914196e-001
1.955548e+003,3.876450e-001
1.959405e+003,3.859284e-001
1.963262e+003,3.849194e-001
1.967119e+003,3.823833e-001
1.970976e+003,3.813879e-001
1.974833e+003,3.813407e-001
1.978690e+003,3.780127e-001
1.982547e+003,3.757696e-001
1.986405e+003,3.779396e-001
1.990262e+003,3.768711e-001
1.994119e+003,3.730835e-001
1.997976e+003,3.721516e-001
2.001833e+003,3.709522e-001
2.005690e+003,3.686332e-001
2.009547e+003,3.688812e-001
2.013404e+003,3.668679e-001
2.017261e+003,3.633974e-001
2.021118e+003,3.601583e-001
2.024976e+003,3.596844e-001
2.028833e+003,3.610832e-001
2.032690e+003,3.632980e-001
2.036547e+003,3.623258e-001
2.040404e+003,3.611386e-001
2.044261e+003,3.607337e-001
2.048118e+003,3.577252e-001
2.051975e+003,3.568324e-001
2.055832e+003,3.574778e-001
2.059689e+003,3.559818e-001
2.063546e+003,3.532353e-001
2.067404e+003,3.530256e-001
2.071261e+003,3.524002e-001
2.075118e+003,3.483626e-001
2.078975e+003,3.455739e-001
2.082832e+003,3.457084e-001
2.086689e+003,3.472750e-001
2.090546e+003,3.507839e-001
2.094403e+003,3.494381e-001
2.098260e+003,3.464022e-001
2.102117e+003,3.465655e-001
2.105975e+003,3.435334e-001
2.109832e+003,3.463742e-001
2.113689e+003,3.527821e-001
2.117546e+003,3.547356e-001
2.121403e+003,3.538839e-001
2.125260e+003,3.513301e-001
2.129117e+003,3.504831e-001
2.132974e+003,3.524120e-001
2.136831e+003,3.544696e-001
2.140688e+003,3.542018e-001
2.144545e+003,3.502369e-001
2.148403e+003,3.541580e-001
2.152260e+003,3.573146e-001
2.156117e+003,3.568106e-001
2.159974e+003,3.596215e-001
2.163831e+003,3.606970e-001
2.167688e+003,3.601798e-001
2.171545e+003,3.566697e-001
2.175402e+003,3.549106e-001
2.179259e+003,3.525910e-001
2.183116e+003,3.531857e-001
2.186974e+003,3.553350e-001
2.190831e+003,3.564558e-001
2.194688e+003,3.567894e-001
2.198545e+003,3.516383e-001
2.202402e+003,3.527088e-001
2.206259e+003,3.574449e-001
2.210116e+003,3.586538e-001
2.213973e+003,3.618165e-001
2.217830e+003,3.627448e-001
2.221688e+003,3.588367e-001
2.225544e+003,3.618038e-001
2.229402e+003,3.659649e-001
2.233259e+003,3.656585e-001
2.237116e+003,3.672869e-001
2.240973e+003,3.663773e-001
2.244830e+003,3.640735e-001
2.248687e+003,3.643799e-001
2.252544e+003,3.645920e-001
2.256401e+003,3.655464e-001
2.260258e+003,3.656423e-001
2.264115e+003,3.686049e-001
2.267973e+003,3.691499e-001
2.271830e+003,3.664873e-001
2.275687e+003,3.660847e-001
2.279544e+003,3.645327e-001
2.283401e+003,3.674764e-001
2.287258e+003,3.704475e-001
2.291115e+003,3.704391e-001
2.294972e+003,3.697233e-001
2.298829e+003,3.685634e-001
2.302687e+003,3.733044e-001
2.306543e+003,3.748869e-001
2.310401e+003,3.716073e-001
2.314258e+003,3.725322e-001
2.318115e+003,3.718762e-001
2.321972e+003,3.674224e-001
2.325829e+003,3.706968e-001
2.329686e+003,3.744445e-001
2.333543e+003,3.768252e-001
2.337400e+003,3.747525e-001
2.341257e+003,3.721386e-001
2.345115e+003,3.706733e-001
2.348972e+003,3.706752e-001
2.352829e+003,3.702482e-001
2.356686e+003,3.705342e-001
2.360543e+003,3.711112e-001
2.364400e+003,3.745775e-001
2.368257e+003,3.751627e-001
2.372114e+003,3.750320e-001
2.375971e+003,3.780001e-001
2.379828e+003,3.788787e-001
2.383686e+003,3.774119e-001
2.387542e+003,3.735379e-001
2.391400e+003,3.725820e-001
2.395257e+003,3.698445e-001
2.399114e+003,3.686352e-001
2.402971e+003,3.687867e-001
2.406828e+003,3.673522e-001
2.410685e+003,3.666075e-001
2.414542e+003,3.679233e-001
2.418399e+003,3.666175e-001
2.422256e+003,3.647989e-001
2.426114e+003,3.666776e-001
2.429971e+003,3.705240e-001
2.433828e+003,3.673797e-001
2.437685e+003,3.674714e-001
2.441542e+003,3.679835e-001
2.445399e+003,3.626932e-001
2.449256e+003,3.598312e-001
2.453113e+003,3.649929e-001
2.456970e+003,3.667934e-001
2.460827e+003,3.622469e-001
2.464684e+003,3.593015e-001
2.468542e+003,3.598122e-001
2.472399e+003,3.617293e-001
2.476256e+003,3.619498e-001
2.480113e+003,3.618322e-001
2.483970e+003,3.639245e-001
2.487827e+003,3.595825e-001
2.491684e+003,3.565129e-001
2.495541e+003,3.608554e-001
2.499398e+003,3.613345e-001
2.503255e+003,3.604993e-001
2.507113e+003,3.615567e-001
2.510969e+003,3.584575e-001
2.514827e+003,3.577823e-001
2.518684e+003,3.589444e-001
2.522541e+003,3.632920e-001
2.526398e+003,3.682001e-001
2.530255e+003,3.696198e-001
2.534112e+003,3.689939e-001
2.537969e+003,3.683327e-001
2.541826e+003,3.678031e-001
2.545683e+003,3.670388e-001
2.549541e+003,3.681122e-001
2.553398e+003,3.712889e-001
2.557255e+003,3.747657e-001
2.561112e+003,3.732595e-001
2.564969e+003,3.748474e-001
2.568826e+003,3.758514e-001
2.572683e+003,3.772268e-001
2.576540e+003,3.767129e-001
2.580397e+003,3.760431e-001
2.584254e+003,3.766653e-001
2.588112e+003,3.816343e-001
2.591969e+003,3.899735e-001
2.595826e+003,3.912220e-001
2.599683e+003,3.868567e-001
2.603540e+003,3.889184e-001
2.607397e+003,3.950513e-001
2.611254e+003,3.960955e-001
2.615111e+003,3.986169e-001
2.618968e+003,4.016284e-001
2.622825e+003,4.046483e-001
2.626682e+003,4.062798e-001
2.630540e+003,4.058183e-001
2.634397e+003,4.106793e-001
2.638254e+003,4.138581e-001
2.642111e+003,4.143268e-001
2.645968e+003,4.157827e-001
2.649825e+003,4.161909e-001
2.653682e+003,4.143803e-001
2.657539e+003,4.158370e-001
2.661396e+003,4.206147e-001
2.665253e+003,4.267771e-001
2.669111e+003,4.277896e-001
2.672968e+003,4.305503e-001
2.676825e+003,4.335146e-001
2.680682e+003,4.339116e-001
2.684539e+003,4.385774e-001
2.688396e+003,4.457944e-001
2.692253e+003,4.474356e-001
2.696110e+003,4.477661e-001
2.699967e+003,4.512511e-001
2.703824e+003,4.554810e-001
2.707681e+003,4.570894e-001
2.711539e+003,4.609835e-001
2.715396e+003,4.675403e-001
2.719253e+003,4.747268e-001
2.723110e+003,4.766843e-001
2.726967e+003,4.777959e-001
2.730824e+003,4.823020e-001
2.734681e+003,4.805825e-001
2.738538e+003,4.819579e-001
2.742395e+003,4.875635e-001
2.746252e+003,4.935763e-001
2.750110e+003,5.015669e-001
2.753967e+003,5.020258e-001
2.757824e+003,4.961107e-001
2.761681e+003,4.974653e-001
2.765538e+003,5.046567e-001
2.769395e+003,5.082629e-001
2.773252e+003,5.101802e-001
2.777109e+003,5.104247e-001
2.780966e+003,5.101497e-001
2.784823e+003,5.107085e-001
2.788680e+003,5.163926e-001
2.792538e+003,5.250154e-001
2.796395e+003,5.252775e-001
2.800252e+003,5.328266e-001
2.804109e+003,5.469509e-001
2.807966e+003,5.479800e-001
2.811823e+003,5.493567e-001
2.815680e+003,5.539719e-001
2.819537e+003,5.536843e-001
2.823394e+003,5.565229e-001
2.827251e+003,5.570914e-001
2.831109e+003,5.580858e-001
2.834966e+003,5.664788e-001
2.838823e+003,5.770765e-001
2.842680e+003,5.853379e-001
2.846537e+003,5.856988e-001
2.850394e+003,5.805117e-001
2.854251e+003,5.880078e-001
2.858108e+003,5.978389e-001
2.861965e+003,6.020092e-001
2.865823e+003,6.032978e-001
2.869679e+003,6.106277e-001
2.873537e+003,6.171725e-001
2.877394e+003,6.168017e-001
2.881251e+003,6.192809e-001
2.885108e+003,6.220670e-001
2.888965e+003,6.231902e-001
2.892822e+003,6.303940e-001
2.896679e+003,6.314077e-001
2.900536e+003,6.366943e-001
2.904393e+003,6.465321e-001
2.908250e+003,6.600187e-001
2.912108e+003,6.701673e-001
2.915965e+003,6.729085e-001
2.919822e+003,6.794729e-001
2.923679e+003,6.855942e-001
2.927536e+003,6.828198e-001
2.931393e+003,6.892751e-001
2.935250e+003,7.006931e-001
2.939107e+003,7.044010e-001
2.942964e+003,7.098597e-001
2.946822e+003,7.077439e-001
2.950678e+003,7.126790e-001
2.954536e+003,7.221014e-001
2.958393e+003,7.232181e-001
2.962250e+003,7.222776e-001
2.966107e+003,7.294886e-001
2.969964e+003,7.440516e-001
2.973821e+003,7.537699e-001
2.977678e+003,7.569103e-001
2.981535e+003,7.533398e-001
2.985392e+003,7.549689e-001
2.989250e+003,7.612664e-001
2.993107e+003,7.595505e-001
2.996964e+003,7.659841e-001
3.000821e+003,7.809882e-001
3.004678e+003,7.868509e-001
3.008535e+003,7.977181e-001
3.012392e+003,7.953292e-001
3.016249e+003,8.011875e-001
3.020106e+003,8.182745e-001
3.023963e+003,8.138430e-001
3.027821e+003,8.150968e-001
3.031677e+003,8.357350e-001
3.035535e+003,8.402019e-001
3.039392e+003,8.246234e-001
3.043249e+003,8.226038e-001
3.047106e+003,8.508247e-001
3.050963e+003,8.699073e-001
3.054820e+003,8.722179e-001
3.058677e+003,8.722325e-001
3.062534e+003,8.803509e-001
3.066391e+003,8.823075e-001
3.070249e+003,9.024056e-001
3.074106e+003,9.269478e-001
3.077963e+003,9.271494e-001
3.081820e+003,9.216481e-001
3.085677e+003,9.315535e-001
3.089534e+003,9.368985e-001
3.093391e+003,9.315310e-001
3.097248e+003,9.331220e-001
3.101105e+003,9.329094e-001
3.104962e+003,9.351919e-001
3.108820e+003,9.556510e-001
3.112677e+003,9.884740e-001
3.116534e+003,9.915619e-001
3.120391e+003,9.932382e-001
3.124248e+003,1.000322e+000
3.128105e+003,1.001422e+000
3.131962e+003,1.001072e+000
3.135819e+003,1.018251e+000
3.139676e+003,1.025993e+000
3.143533e+003,1.014262e+000
3.147390e+003,1.022087e+000
3.151248e+003,1.021820e+000
3.155105e+003,1.030128e+000
3.158962e+003,1.048080e+000
3.162819e+003,1.054447e+000
3.166676e+003,1.055219e+000
3.170533e+003,1.051307e+000
3.174390e+003,1.048771e+000
3.178247e+003,1.061099e+000
3.182104e+003,1.068627e+000
3.185961e+003,1.084347e+000
3.189819e+003,1.095545e+000
3.193676e+003,1.085236e+000
3.197533e+003,1.097837e+000
3.201390e+003,1.121665e+000
3.205247e+003,1.130023e+000
3.209104e+003,1.115361e+000
3.212961e+003,1.110310e+000
3.216818e+003,1.120743e+000
3.220675e+003,1.123408e+000
3.224532e+003,1.140258e+000
3.228389e+003,1.166331e+000
3.232247e+003,1.178626e+000
3.236104e+003,1.189603e+000
3.239961e+003,1.178971e+000
3.243818e+003,1.162496e+000
3.247675e+003,1.165636e+000
3.251532e+003,1.175186e+000
3.255389e+003,1.188832e+000
3.259246e+003,1.184586e+000
3.263103e+003,1.172310e+000
3.266960e+003,1.170737e+000
3.270818e+003,1.176124e+000
3.274675e+003,1.173719e+000
3.278532e+003,1.178035e+000
3.282389e+003,1.210856e+000
3.286246e+003,1.231286e+000
3.290103e+003,1.222233e+000
3.293960e+003,1.229028e+000
3.297817e+003,1.226580e+000
3.301674e+003,1.243733e+000
3.305531e+003,1.242430e+000
3.309388e+003,1.237729e+000
3.313246e+003,1.255502e+000
3.317103e+003,1.274616e+000
3.320960e+003,1.283690e+000
3.324817e+003,1.287298e+000
3.328674e+003,1.268689e+000
3.332531e+003,1.268151e+000
3.336388e+003,1.280798e+000
3.340245e+003,1.318598e+000
3.344102e+003,1.310190e+000
3.347959e+003,1.313787e+000
3.351817e+003,1.345160e+000
3.355674e+003,1.339284e+000
3.359531e+003,1.341417e+000
3.363388e+003,1.318175e+000
3.367245e+003,1.271151e+000
3.371102e+003,1.290862e+000
3.374959e+003,1.343809e+000
3.378816e+003,1.365011e+000
3.382673e+003,1.341661e+000
3.386530e+003,1.327239e+000
3.390387e+003,1.361723e+000
3.394245e+003,1.356709e+000
3.398102e+003,1.362282e+000
3.401959e+003,1.367271e+000
3.405816e+003,1.341338e+000
3.409673e+003,1.333727e+000
3.413530e+003,1.343172e+000
3.417387e+003,1.382627e+000
3.421244e+003,1.409654e+000
3.425101e+003,1.438559e+000
3.428958e+003,1.492338e+000
3.432815e+003,1.475946e+000
3.436673e+003,1.441166e+000
3.440530e+003,1.426975e+000
3.444387e+003,1.392759e+000
3.448244e+003,1.379006e+000
3.452101e+003,1.384320e+000
3.455958e+003,1.409172e+000
3.459815e+003,1.438815e+000
3.463672e+003,1.420144e+000
3.467529e+003,1.423388e+000
3.471386e+003,1.462751e+000
3.475244e+003,1.473557e+000
3.479101e+003,1.435184e+000
3.482958e+003,1.432092e+000
3.486815e+003,1.409065e+000
3.490672e+003,1.385684e+000
3.494529e+003,1.386283e+000
3.498386e+003,1.422991e+000
3.502243e+003,1.488442e+000
3.506100e+003,1.524163e+000
3.509958e+003,1.477389e+000
3.513814e+003,1.449821e+000
3.517672e+003,1.440467e+000
3.521529e+003,1.484724e+000
3.525386e+003,1.527051e+000
3.529243e+003,1.467923e+000
3.533100e+003,1.443770e+000
3.536957e+003,1.478640e+000
3.540814e+003,1.543099e+000
3.544671e+003,1.513368e+000
3.548528e+003,1.423800e+000
3.552385e+003,1.386924e+000
3.556243e+003,1.395875e+000
3.560100e+003,1.451727e+000
3.563957e+003,1.463966e+000
3.567814e+003,1.410943e+000
3.571671e+003,1.413797e+000
3.575528e+003,1.393196e+000
3.579385e+003,1.338611e+000
3.583242e+003,1.297231e+000
3.587099e+003,1.290084e+000
3.590957e+003,1.274015e+000
3.594813e+003,1.261375e+000
3.598671e+003,1.261039e+000
3.602528e+003,1.239804e+000
3.606385e+003,1.214319e+000
3.610242e+003,1.171144e+000
3.614099e+003,1.117234e+000
3.617956e+003,1.059333e+000
3.621813e+003,1.007528e+000
3.625670e+003,9.619517e-001
3.629527e+003,9.264719e-001
3.633385e+003,8.764858e-001
3.637242e+003,7.989442e-001
3.641099e+003,7.351932e-001
3.644956e+003,6.902962e-001
3.648813e+003,6.460878e-001
3.652670e+003,6.078342e-001
3.656527e+003,5.678576e-001
3.660384e+003,5.268851e-001
3.664241e+003,4.894056e-001
3.668098e+003,4.534169e-001
3.671956e+003,4.246099e-001
3.675813e+003,4.026946e-001
3.679670e+003,3.781729e-001
3.683527e+003,3.582076e-001
3.687384e+003,3.413894e-001
3.691241e+003,3.262748e-001
3.695098e+003,3.141178e-001
3.698955e+003,3.056396e-001
3.702812e+003,2.986000e-001
3.706669e+003,2.894025e-001
3.710526e+003,2.812042e-001
3.714384e+003,2.735513e-001
3.718241e+003,2.681876e-001
3.722098e+003,2.701008e-001
3.725955e+003,2.687858e-001
3.729812e+003,2.652797e-001
3.733669e+003,2.601893e-001
3.737526e+003,2.555756e-001
3.741383e+003,2.533125e-001
3.745240e+003,2.524121e-001
3.749097e+003,2.502968e-001
3.752955e+003,2.505735e-001
3.756812e+003,2.477357e-001
3.760669e+003,2.390561e-001
3.764526e+003,2.386733e-001
3.768383e+003,2.431264e-001
3.772240e+003,2.444097e-001
3.776097e+003,2.417771e-001
3.779954e+003,2.426599e-001
3.783811e+003,2.466186e-001
3.787668e+003,2.463277e-001
3.791525e+003,2.421732e-001
3.795383e+003,2.412615e-001
3.799240e+003,2.419911e-001
3.803097e+003,2.367392e-001
3.806954e+003,2.352712e-001
3.810811e+003,2.348190e-001
3.814668e+003,2.350369e-001
3.818525e+003,2.354981e-001
3.822382e+003,2.385551e-001
3.826239e+003,2.380887e-001
3.830096e+003,2.368817e-001
3.833954e+003,2.350278e-001
3.837811e+003,2.317773e-001
3.841668e+003,2.300617e-001
3.845525e+003,2.313405e-001
3.849382e+003,2.321905e-001
3.853239e+003,2.293545e-001
3.857096e+003,2.268759e-001
3.860953e+003,2.259088e-001
3.864810e+003,2.281110e-001
3.868667e+003,2.314361e-001
3.872524e+003,2.330879e-001
3.876382e+003,2.333630e-001
3.880239e+003,2.324035e-001
3.884096e+003,2.335555e-001
3.887953e+003,2.355670e-001
3.891810e+003,2.348685e-001
3.895667e+003,2.326808e-001
3.899524e+003,2.334079e-001
3.903381e+003,2.350985e-001
3.907238e+003,2.340289e-001
3.911095e+003,2.359597e-001
3.914953e+003,2.392340e-001
3.918810e+003,2.395525e-001
3.922667e+003,2.363790e-001
3.926524e+003,2.367905e-001
3.930381e+003,2.326332e-001
3.934238e+003,2.301612e-001
3.938095e+003,2.299379e-001
3.941952e+003,2.280387e-001
3.945809e+003,2.295741e-001
3.949667e+003,2.283899e-001
3.953523e+003,2.258128e-001
3.957381e+003,2.280630e-001
3.961238e+003,2.282258e-001
3.965095e+003,2.250489e-001
3.968952e+003,2.287122e-001
3.972809e+003,2.339494e-001
3.976666e+003,2.329815e-001
3.980523e+003,2.317886e-001
3.984380e+003,2.347576e-001
3.988237e+003,2.341739e-001
3.992094e+003,2.352913e-001
3.995952e+003,2.374382e-001
3.999809e+003,2.357716e-001
4.003666e+003,2.379071e-001
4.007523e+003,2.375186e-001
4.011380e+003,2.322791e-001
4.015237e+003,2.351659e-001
4.019094e+003,2.341384e-001
4.022951e+003,2.257903e-001
4.026808e+003,2.218043e-001
4.030666e+003,2.203458e-001
4.034522e+003,2.263790e-001
4.038380e+003,2.321852e-001
4.042237e+003,2.308130e-001
4.046094e+003,2.267117e-001
4.049951e+003,2.229831e-001
4.053808e+003,2.216059e-001
4.057665e+003,2.286797e-001
4.061522e+003,2.318325e-001
4.065379e+003,2.290776e-001
4.069236e+003,2.295287e-001
4.073094e+003,2.307149e-001
4.076951e+003,2.266012e-001
4.080808e+003,2.285042e-001
4.084665e+003,2.346643e-001
4.088522e+003,2.380816e-001
4.092379e+003,2.375877e-001
4.096236e+003,2.377178e-001
4.100093e+003,2.347504e-001
4.103950e+003,2.298032e-001
4.107808e+003,2.282239e-001
4.111665e+003,2.300301e-001
4.115521e+003,2.270834e-001
4.119379e+003,2.228060e-001
4.123236e+003,2.245110e-001
4.127093e+003,2.290620e-001
4.130950e+003,2.340324e-001
4.134807e+003,2.315498e-001
4.138664e+003,2.284966e-001
4.142521e+003,2.284746e-001
4.146378e+003,2.274411e-001
4.150235e+003,2.274323e-001
4.154093e+003,2.252389e-001
4.157950e+003,2.224680e-001
4.161807e+003,2.222644e-001
4.165664e+003,2.256800e-001
4.169521e+003,2.302927e-001
4.173378e+003,2.318199e-001
4.177235e+003,2.291608e-001
4.181092e+003,2.290467e-001
4.184949e+003,2.345134e-001
4.188807e+003,2.350060e-001
4.192664e+003,2.306722e-001
4.196521e+003,2.262146e-001
4.200378e+003,2.267022e-001
4.204235e+003,2.329621e-001
4.208092e+003,2.292713e-001
4.211949e+003,2.266992e-001
4.215806e+003,2.225365e-001
4.219663e+003,2.235809e-001
4.223521e+003,2.296130e-001
4.227377e+003,2.291372e-001
4.231234e+003,2.263828e-001
4.235092e+003,2.235522e-001
4.238949e+003,2.250741e-001
4.242806e+003,2.254945e-001
4.246663e+003,2.241670e-001
4.250520e+003,2.241867e-001
4.254377e+003,2.274861e-001
4.258234e+003,2.309880e-001
4.262091e+003,2.279167e-001
4.265948e+003,2.247461e-001
4.269806e+003,2.230468e-001
4.273663e+003,2.234669e-001
4.277520e+003,2.268990e-001
4.281377e+003,2.269039e-001
4.285234e+003,2.241621e-001
4.289091e+003,2.223836e-001
4.292948e+003,2.218184e-001
4.296805e+003,2.215679e-001
4.300662e+003,2.243204e-001
4.304520e+003,2.247795e-001
4.308376e+003,2.252689e-001
4.312233e+003,2.275219e-001
4.316091e+003,2.234104e-001
4.319948e+003,2.217323e-001
4.323805e+003,2.223742e-001
4.327662e+003,2.171040e-001
4.331519e+003,2.139716e-001
4.335376e+003,2.225414e-001
4.339233e+003,2.253098e-001
4.343090e+003,2.220288e-001
4.346947e+003,2.227498e-001
4.350805e+003,2.274590e-001
4.354662e+003,2.311428e-001
4.358519e+003,2.390841e-001
4.362376e+003,2.405858e-001
4.366233e+003,2.339061e-001
4.370090e+003,2.338195e-001
4.373947e+003,2.373712e-001
4.377804e+003,2.292324e-001
4.381661e+003,2.242015e-001
4.385519e+003,2.315580e-001
4.389375e+003,2.373991e-001
4.393232e+003,2.313380e-001
4.397090e+003,2.233761e-001
4.400947e+003,2.253825e-001
4.404804e+003,2.267557e-001
4.408661e+003,2.240133e-001
4.412518e+003,2.247727e-001
4.416375e+003,2.217515e-001
4.420232e+003,2.249117e-001
4.424089e+003,2.253951e-001
4.427946e+003,2.237025e-001
4.431804e+003,2.327455e-001
4.435661e+003,2.334715e-001
4.439518e+003,2.267447e-001
4.443375e+003,2.305157e-001
4.447232e+003,2.332654e-001
4.451089e+003,2.319989e-001
4.454946e+003,2.357829e-001
4.458803e+003,2.401957e-001
4.462660e+003,2.364791e-001
4.466518e+003,2.299550e-001
4.470375e+003,2.308967e-001
4.474231e+003,2.333978e-001
4.478089e+003,2.351532e-001
4.481946e+003,2.268990e-001
4.485803e+003,2.281508e-001
4.489660e+003,2.321555e-001
4.493517e+003,2.346044e-001
4.497375e+003,2.354626e-001
4.501231e+003,2.347164e-001
4.505088e+003,2.339948e-001
4.508946e+003,2.286438e-001
4.512803e+003,2.295172e-001
4.516660e+003,2.368230e-001
4.520517e+003,2.379088e-001
4.524374e+003,2.323197e-001
4.528231e+003,2.324870e-001
4.532088e+003,2.283763e-001
4.535945e+003,2.257231e-001
4.539802e+003,2.327396e-001
4.543660e+003,2.404267e-001
4.547517e+003,2.408180e-001
4.551374e+003,2.376577e-001
4.555231e+003,2.357143e-001
4.559088e+003,2.364815e-001
4.562945e+003,2.373872e-001
4.566802e+003,2.343135e-001
4.570659e+003,2.357109e-001
4.574516e+003,2.344230e-001
4.578374e+003,2.356579e-001
4.582230e+003,2.334969e-001
4.586087e+003,2.332112e-001
4.589945e+003,2.333843e-001
4.593802e+003,2.324941e-001
4.597659e+003,2.365716e-001
4.601516e+003,2.327172e-001
4.605373e+003,2.291451e-001
4.609230e+003,2.267176e-001
4.613087e+003,2.260078e-001
4.616944e+003,2.335602e-001
4.620801e+003,2.350227e-001
4.624659e+003,2.366261e-001
4.628516e+003,2.366010e-001
4.632373e+003,2.317386e-001
4.636230e+003,2.270457e-001
4.640087e+003,2.255967e-001
4.643944e+003,2.282187e-001
4.647801e+003,2.331496e-001
4.651658e+003,2.349342e-001
4.655515e+003,2.348448e-001
4.659373e+003,2.287829e-001
4.663229e+003,2.268880e-001
4.667086e+003,2.363787e-001
4.670944e+003,2.414713e-001
4.674801e+003,2.358208e-001
4.678658e+003,2.229207e-001
4.682515e+003,2.225882e-001
4.686372e+003,2.319668e-001
4.690229e+003,2.380551e-001
4.694086e+003,2.408935e-001
4.697943e+003,2.366403e-001
4.701800e+003,2.333973e-001
4.705658e+003,2.367125e-001
4.709515e+003,2.391465e-001
4.713372e+003,2.424068e-001
4.717229e+003,2.419259e-001
4.721086e+003,2.291496e-001
4.724943e+003,2.329650e-001
4.728800e+003,2.451374e-001
4.732657e+003,2.409761e-001
4.736514e+003,2.361214e-001
4.740372e+003,2.301891e-001
4.744229e+003,2.262982e-001
4.748085e+003,2.321935e-001
4.751943e+003,2.365755e-001
4.755800e+003,2.330914e-001
4.759657e+003,2.337887e-001
4.763514e+003,2.373536e-001
4.767371e+003,2.341013e-001
4.771228e+003,2.342293e-001
4.775085e+003,2.391838e-001
4.778942e+003,2.384401e-001
4.782799e+003,2.354955e-001
4.786657e+003,2.288214e-001
4.790514e+003,2.267905e-001
4.794371e+003,2.312301e-001
4.798228e+003,2.237148e-001
4.802085e+003,2.212195e-001
4.805942e+003,2.264160e-001
4.809799e+003,2.312327e-001
4.813656e+003,2.384222e-001
4.817513e+003,2.478236e-001
4.821371e+003,2.431431e-001
4.825228e+003,2.363841e-001
4.829084e+003,2.315196e-001
4.832942e+003,2.256281e-001
4.836799e+003,2.258978e-001
4.840656e+003,2.318013e-001
4.844513e+003,2.315645e-001
4.848370e+003,2.288218e-001
4.852227e+003,2.279111e-001
4.856084e+003,2.275011e-001
4.859941e+003,2.331828e-001
4.863798e+003,2.420076e-001
4.867656e+003,2.418506e-001
4.871513e+003,2.330255e-001
4.875370e+003,2.314201e-001
4.879227e+003,2.371388e-001
4.883084e+003,2.387752e-001
4.886941e+003,2.272338e-001
4.890798e+003,2.196333e-001
4.894655e+003,2.317674e-001
4.898512e+003,2.396590e-001
4.902370e+003,2.372580e-001
4.906227e+003,2.395791e-001
4.910083e+003,2.398803e-001
4.913941e+003,2.367346e-001
4.917798e+003,2.411068e-001
4.921655e+003,2.420311e-001
4.925512e+003,2.408508e-001
4.929369e+003,2.406061e-001
4.933226e+003,2.359197e-001
4.937083e+003,2.365685e-001
4.940940e+003,2.414483e-001
4.944797e+003,2.395331e-001
4.948655e+003,2.359266e-001
4.952512e+003,2.359234e-001
4.956369e+003,2.281849e-001
4.960226e+003,2.278409e-001
4.964083e+003,2.341620e-001
4.967940e+003,2.427989e-001
4.971797e+003,2.418782e-001
4.975654e+003,2.330084e-001
4.979511e+003,2.233140e-001
4.983369e+003,2.290544e-001
4.987226e+003,2.322204e-001
4.991083e+003,2.289168e-001
4.994940e+003,2.323070e-001
4.998797e+003,2.351927e-001
5.002654e+003,2.284172e-001
5.006511e+003,2.363278e-001
5.010368e+003,2.453214e-001
5.014225e+003,2.442097e-001
5.018083e+003,2.383499e-001
5.021939e+003,2.354626e-001
5.025796e+003,2.361864e-001
5.029654e+003,2.373146e-001
5.033511e+003,2.413646e-001
5.037368e+003,2.510797e-001
5.041225e+003,2.531953e-001
5.045082e+003,2.538571e-001
5.048939e+003,2.441848e-001
5.052796e+003,2.353722e-001
5.056653e+003,2.438443e-001
5.060510e+003,2.548257e-001
5.064368e+003,2.528696e-001
5.068225e+003,2.447108e-001
5.072082e+003,2.457692e-001
5.075939e+003,2.479662e-001
5.079796e+003,2.426040e-001
5.083653e+003,2.467792e-001
5.087510e+003,2.474489e-001
5.091367e+003,2.456612e-001
5.095224e+003,2.491819e-001
5.099082e+003,2.483922e-001
5.102938e+003,2.379237e-001
5.106795e+003,2.347988e-001
5.110653e+003,2.410319e-001
5.114510e+003,2.463236e-001
5.118367e+003,2.434900e-001
5.122224e+003,2.515098e-001
5.126081e+003,2.569250e-001
5.129938e+003,2.545741e-001
5.133795e+003,2.502978e-001
5.137652e+003,2.450382e-001
5.141509e+003,2.426426e-001
5.145367e+003,2.454002e-001
5.149224e+003,2.501812e-001
5.153081e+003,2.516375e-001
5.156938e+003,2.524525e-001
5.160795e+003,2.585943e-001
5.164652e+003,2.616686e-001
5.168509e+003,2.547234e-001
5.172366e+003,2.440625e-001
5.176223e+003,2.423853e-001
5.180081e+003,2.386856e-001
5.183938e+003,2.386144e-001
5.187794e+003,2.343789e-001
5.191652e+003,2.360499e-001
5.195509e+003,2.431640e-001
5.199366e+003,2.475855e-001
5.203223e+003,2.524230e-001
5.207080e+003,2.452653e-001
5.210937e+003,2.464934e-001
5.214794e+003,2.601798e-001
5.218651e+003,2.709770e-001
5.222508e+003,2.577283e-001
5.226366e+003,2.505100e-001
5.230223e+003,2.593056e-001
5.234080e+003,2.639205e-001
5.237937e+003,2.590899e-001
5.241794e+003,2.563743e-001
5.245651e+003,2.525991e-001
5.249508e+003,2.477172e-001
5.253365e+003,2.491610e-001
5.257222e+003,2.531958e-001
5.261080e+003,2.514932e-001
5.264937e+003,2.551025e-001
5.268793e+003,2.526037e-001
5.272651e+003,2.467694e-001
5.276508e+003,2.447869e-001
5.280365e+003,2.469948e-001
5.284222e+003,2.460249e-001
5.288079e+003,2.429050e-001
5.291936e+003,2.454274e-001
5.295793e+003,2.477341e-001
5.299650e+003,2.428347e-001
5.303507e+003,2.382433e-001
5.307365e+003,2.400105e-001
5.311222e+003,2.375093e-001
5.315079e+003,2.350684e-001
5.318936e+003,2.335769e-001
5.322793e+003,2.400266e-001
5.326650e+003,2.434180e-001
5.330507e+003,2.455276e-001
5.334364e+003,2.488452e-001
5.338221e+003,2.494424e-001
5.342079e+003,2.428439e-001
5.345936e+003,2.455273e-001
5.349792e+003,2.509379e-001
5.353650e+003,2.461766e-001
5.357507e+003,2.409758e-001
5.361364e+003,2.429122e-001
5.365221e+003,2.521450e-001
5.369078e+003,2.560583e-001
5.372935e+003,2.422509e-001
5.376792e+003,2.371344e-001
5.380649e+003,2.424858e-001
5.384506e+003,2.404475e-001
5.388364e+003,2.402679e-001
5.392221e+003,2.436286e-001
5.396078e+003,2.483070e-001
5.399935e+003,2.490659e-001
5.403792e+003,2.425113e-001
5.407649e+003,2.354593e-001
5.411506e+003,2.373445e-001
5.415363e+003,2.379731e-001
5.419220e+003,2.494239e-001
5.423078e+003,2.541609e-001
5.426935e+003,2.496951e-001
5.430792e+003,2.491866e-001
5.434649e+003,2.493554e-001
5.438506e+003,2.517956e-001
5.442363e+003,2.526512e-001
5.446220e+003,2.528475e-001
5.450077e+003,2.461924e-001
5.453934e+003,2.415767e-001
5.457792e+003,2.541385e-001
5.461648e+003,2.546825e-001
5.465505e+003,2.529109e-001
5.469363e+003,2.623371e-001
5.473220e+003,2.602868e-001
5.477077e+003,2.582190e-001
5.480934e+003,2.542923e-001
5.484791e+003,2.457348e-001
5.488648e+003,2.446536e-001
5.492505e+003,2.448885e-001
5.496362e+003,2.426078e-001
5.500219e+003,2.378345e-001
5.504077e+003,2.310672e-001
5.507934e+003,2.375469e-001
5.511791e+003,2.535182e-001
5.515648e+003,2.557737e-001
5.519505e+003,2.453333e-001
5.523362e+003,2.415409e-001
5.527219e+003,2.461965e-001
5.531076e+003,2.603438e-001
5.534933e+003,2.614986e-001
5.538791e+003,2.497773e-001
5.542647e+003,2.453448e-001
5.546504e+003,2.453668e-001
5.550362e+003,2.418339e-001
5.554219e+003,2.412548e-001
5.558076e+003,2.517218e-001
5.561933e+003,2.588279e-001
5.565790e+003,2.542449e-001
5.569647e+003,2.389136e-001
5.573504e+003,2.282556e-001
5.577361e+003,2.386746e-001
5.581218e+003,2.465848e-001
5.585076e+003,2.460155e-001
5.588933e+003,2.461262e-001
5.592790e+003,2.402561e-001
5.596647e+003,2.407384e-001
5.600504e+003,2.405316e-001
5.604361e+003,2.433970e-001
5.608218e+003,2.478189e-001
5.612075e+003,2.496975e-001
5.615932e+003,2.610030e-001
5.619790e+003,2.544073e-001
5.623646e+003,2.374018e-001
5.627503e+003,2.402905e-001
5.631361e+003,2.407660e-001
5.635218e+003,2.351481e-001
5.639075e+003,2.454809e-001
5.642932e+003,2.498023e-001
5.646789e+003,2.458956e-001
5.650646e+003,2.506829e-001
5.654503e+003,2.494629e-001
5.658360e+003,2.436879e-001
5.662217e+003,2.401371e-001
5.666075e+003,2.357116e-001
5.669932e+003,2.388086e-001
5.673789e+003,2.527046e-001
5.677646e+003,2.548226e-001
5.681503e+003,2.450621e-001
5.685360e+003,2.431279e-001
5.689217e+003,2.464526e-001
5.693074e+003,2.467077e-001
5.696931e+003,2.485538e-001
5.700789e+003,2.504530e-001
5.704646e+003,2.530542e-001
5.708502e+003,2.540933e-001
5.712360e+003,2.463250e-001
5.716217e+003,2.441584e-001
5.720074e+003,2.455464e-001
5.723931e+003,2.372823e-001
5.727788e+003,2.331904e-001
5.731645e+003,2.440787e-001
5.735502e+003,2.461837e-001
5.739359e+003,2.442467e-001
5.743216e+003,2.531281e-001
5.747074e+003,2.480395e-001
5.750931e+003,2.468576e-001
5.754788e+003,2.475879e-001
5.758645e+003,2.459178e-001
5.762502e+003,2.510548e-001
5.766359e+003,2.494639e-001
5.770216e+003,2.463438e-001
5.774073e+003,2.375858e-001
5.777930e+003,2.377944e-001
5.781788e+003,2.494009e-001
5.785645e+003,2.479372e-001
5.789501e+003,2.438407e-001
5.793359e+003,2.381514e-001
5.797216e+003,2.366709e-001
5.801073e+003,2.484355e-001
5.804930e+003,2.518268e-001
5.808787e+003,2.435250e-001
5.812644e+003,2.436406e-001
5.816501e+003,2.491866e-001
5.820358e+003,2.613328e-001
5.824215e+003,2.564623e-001
5.828073e+003,2.523818e-001
5.831930e+003,2.553343e-001
5.835787e+003,2.570285e-001
5.839644e+003,2.570674e-001
5.843501e+003,2.468234e-001
5.847358e+003,2.405046e-001
5.851215e+003,2.341028e-001
5.855072e+003,2.306612e-001
5.858929e+003,2.451072e-001
5.862787e+003,2.481589e-001
5.866644e+003,2.435033e-001
5.870500e+003,2.348886e-001
5.874358e+003,2.371990e-001
5.878215e+003,2.436207e-001
5.882072e+003,2.400091e-001
5.885929e+003,2.309501e-001
5.889786e+003,2.336125e-001
5.893643e+003,2.411124e-001
5.897500e+003,2.457528e-001
5.901357e+003,2.562671e-001
5.905214e+003,2.667138e-001
5.909072e+003,2.519708e-001
5.912929e+003,2.407684e-001
5.916786e+003,2.442841e-001
5.920643e+003,2.475490e-001
5.924500e+003,2.439438e-001
5.928357e+003,2.398182e-001
5.932214e+003,2.475997e-001
5.936071e+003,2.501642e-001
5.939928e+003,2.450979e-001
5.943786e+003,2.406599e-001
5.947643e+003,2.356626e-001
5.951500e+003,2.418354e-001
5.955357e+003,2.474758e-001
5.959214e+003,2.454063e-001
5.963071e+003,2.515893e-001
5.966928e+003,2.562094e-001
5.970785e+003,2.532757e-001
5.974642e+003,2.482733e-001
5.978500e+003,2.344307e-001
5.982356e+003,2.392523e-001
5.986213e+003,2.518656e-001
5.990071e+003,2.559652e-001
5.993928e+003,2.559334e-001
5.997785e+003,2.389734e-001
6.001642e+003,2.291624e-001
6.005499e+003,2.411700e-001
6.009356e+003,2.549708e-001
6.013213e+003,2.521988e-001
6.017070e+003,2.347377e-001
6.020927e+003,2.362033e-001
6.024785e+003,2.467524e-001
6.028642e+003,2.519404e-001
6.032499e+003,2.591939e-001
6.036356e+003,2.647781e-001
6.040213e+003,2.565898e-001
6.044070e+003,2.461285e-001
6.047927e+003,2.537974e-001
6.051784e+003,2.700459e-001
6.055641e+003,2.640785e-001
6.059499e+003,2.517461e-001
6.063355e+003,2.556907e-001
6.067212e+003,2.411952e-001
6.071070e+003,2.237008e-001
6.074927e+003,2.179972e-001
6.078784e+003,2.176180e-001
6.082641e+003,2.453495e-001
6.086498e+003,2.570775e-001
6.090355e+003,2.395917e-001
6.094212e+003,2.401319e-001
6.098069e+003,2.406961e-001
6.101926e+003,2.306566e-001
6.105784e+003,2.344863e-001
6.109641e+003,2.490217e-001
6.113498e+003,2.499432e-001
6.117355e+003,2.420832e-001
6.121212e+003,2.433184e-001
6.125069e+003,2.486795e-001
6.128926e+003,2.421368e-001
6.132783e+003,2.500153e-001
6.136640e+003,2.553197e-001
6.140498e+003,2.495044e-001
6.144354e+003,2.324333e-001
6.148211e+003,2.493253e-001
6.152069e+003,2.480273e-001
6.155926e+003,2.439300e-001
6.159783e+003,2.345145e-001
6.163640e+003,2.200014e-001
6.167497e+003,2.305216e-001
6.171354e+003,2.402248e-001
6.175211e+003,2.339350e-001
6.179068e+003,2.394288e-001
6.182925e+003,2.477205e-001
6.186783e+003,2.437454e-001
6.190640e+003,2.381109e-001
6.194497e+003,2.289946e-001
6.198354e+003,2.348702e-001
6.202211e+003,2.467112e-001
6.206068e+003,2.514937e-001
6.209925e+003,2.516121e-001
6.213782e+003,2.446020e-001
6.217639e+003,2.352445e-001
6.221497e+003,2.370354e-001
6.225354e+003,2.448103e-001
6.229210e+003,2.518272e-001
6.233068e+003,2.496592e-001
6.236925e+003,2.437320e-001
6.240782e+003,2.437658e-001
6.244639e+003,2.316709e-001
6.248496e+003,2.236562e-001
6.252353e+003,2.426581e-001
6.256210e+003,2.546986e-001
6.260067e+003,2.472758e-001
6.263924e+003,2.518284e-001
6.267782e+003,2.543493e-001
6.271639e+003,2.445084e-001
6.275496e+003,2.397354e-001
6.279353e+003,2.412129e-001
6.283210e+003,2.392204e-001
6.287067e+003,2.426191e-001
6.290924e+003,2.486307e-001
6.294781e+003,2.507668e-001
6.298638e+003,2.403906e-001
6.302496e+003,2.272849e-001
6.306353e+003,2.332341e-001
6.310209e+003,2.507880e-001
6.314067e+003,2.317658e-001
6.317924e+003,2.166278e-001
6.321781e+003,2.417170e-001
6.325638e+003,2.490718e-001
6.329495e+003,2.443159e-001
6.333352e+003,2.471541e-001
6.337209e+003,2.443555e-001
6.341066e+003,2.300567e-001
6.344923e+003,2.303645e-001
6.348780e+003,2.439054e-001
6.352638e+003,2.453051e-001
6.356495e+003,2.478687e-001
6.360352e+003,2.449910e-001
6.364209e+003,2.413560e-001
6.368066e+003,2.446872e-001
6.371923e+003,2.392157e-001
6.375780e+003,2.260090e-001
6.379637e+003,2.230923e-001
6.383494e+003,2.351100e-001
6.387352e+003,2.357271e-001
6.391208e+003,2.345729e-001
6.395065e+003,2.370053e-001
6.398923e+003,2.366475e-001
6.402780e+003,2.360243e-001
6.406637e+003,2.379905e-001
6.410494e+003,2.460645e-001
6.414351e+003,2.498049e-001
6.418208e+003,2.517818e-001
6.422065e+003,2.349290e-001
6.425922e+003,2.377033e-001
6.429779e+003,2.444068e-001
6.433637e+003,2.247856e-001
6.437494e+003,2.307291e-001
6.441351e+003,2.482256e-001
6.445208e+003,2.649618e-001
6.449065e+003,2.555529e-001
6.452922e+003,2.206008e-001
6.456779e+003,2.179549e-001
6.460636e+003,2.291979e-001
6.464493e+003,2.380848e-001
6.468351e+003,2.468059e-001
6.472208e+003,2.653337e-001
6.476064e+003,2.541167e-001
6.479922e+003,2.378320e-001
6.483779e+003,2.484023e-001
6.487636e+003,2.572511e-001
6.491493e+003,2.511052e-001
6.495350e+003,2.512173e-001
6.499207e+003,2.522671e-001
6.503064e+003,2.377887e-001
6.506921e+003,2.317482e-001
6.510778e+003,2.418339e-001
6.514636e+003,2.493098e-001
6.518493e+003,2.513066e-001
6.522350e+003,2.472446e-001
6.526207e+003,2.577991e-001
6.530064e+003,2.630180e-001
6.533921e+003,2.622066e-001
6.537778e+003,2.529465e-001
6.541635e+003,2.510427e-001
6.545492e+003,2.616347e-001
6.549350e+003,2.692133e-001
6.553207e+003,2.525476e-001
6.557063e+003,2.426588e-001
6.560921e+003,2.300580e-001
6.564778e+003,2.465596e-001
6.568635e+003,2.755620e-001
6.572492e+003,2.786035e-001
6.576349e+003,2.816013e-001
6.580206e+003,2.730011e-001
6.584063e+003,2.418079e-001
6.587920e+003,2.334312e-001
6.591777e+003,2.579296e-001
6.595635e+003,2.569454e-001
6.599492e+003,2.661228e-001
6.603349e+003,2.787177e-001
6.607206e+003,2.765295e-001
6.611063e+003,2.550311e-001
6.614920e+003,2.269501e-001
6.618777e+003,2.262747e-001
6.622634e+003,2.635592e-001
6.626491e+003,2.655704e-001
6.630349e+003,2.450768e-001
6.634206e+003,2.329213e-001
6.638063e+003,2.307358e-001
6.641920e+003,2.450066e-001
6.645777e+003,2.752944e-001
6.649634e+003,2.916563e-001
6.653491e+003,2.699944e-001
6.657348e+003,2.475084e-001
6.661205e+003,2.504677e-001
6.665063e+003,2.648654e-001
6.668919e+003,2.368899e-001
6.672776e+003,2.252312e-001
6.676634e+003,2.542823e-001
6.680491e+003,2.322796e-001
6.684348e+003,2.151147e-001
6.688205e+003,2.467600e-001
6.692062e+003,2.728213e-001
6.695919e+003,2.673725e-001
6.699776e+003,2.616467e-001
6.703633e+003,2.699864e-001
6.707490e+003,2.442120e-001
6.711348e+003,2.177607e-001
6.715205e+003,2.603957e-001
6.719062e+003,2.902010e-001
6.722919e+003,2.418531e-001
6.726776e+003,2.290030e-001
6.730633e+003,2.499668e-001
6.734490e+003,2.707003e-001
6.738347e+003,2.506986e-001
6.742204e+003,2.538117e-001
6.746062e+003,2.477481e-001
6.749918e+003,2.388086e-001
6.753775e+003,2.269563e-001
6.757633e+003,2.230051e-001
6.761490e+003,2.630582e-001
6.765347e+003,2.695758e-001
6.769204e+003,2.431146e-001
6.773061e+003,2.338609e-001
6.776918e+003,2.573241e-001
6.780775e+003,2.731652e-001
6.784632e+003,2.948827e-001
6.788489e+003,2.860617e-001
6.792347e+003,2.527626e-001
6.796204e+003,2.464801e-001
6.800061e+003,2.620917e-001
6.803918e+003,2.585704e-001
6.807775e+003,2.438716e-001
6.811632e+003,2.447684e-001
6.815489e+003,2.644851e-001
6.819346e+003,2.717475e-001
6.823203e+003,2.637244e-001
6.827061e+003,2.617680e-001
6.830917e+003,2.565129e-001
6.834774e+003,2.459633e-001
6.838632e+003,2.381572e-001
6.842489e+003,2.402524e-001
6.846346e+003,2.410309e-001
6.850203e+003,2.306196e-001
6.854060e+003,2.169225e-001
6.857917e+003,2.289497e-001
6.861774e+003,2.550867e-001
6.865631e+003,2.738499e-001
6.869488e+003,2.768098e-001
6.873346e+003,2.808977e-001
6.877203e+003,2.720846e-001
6.881060e+003,2.531593e-001
6.884917e+003,2.548772e-001
6.888774e+003,2.820543e-001
6.892631e+003,2.695190e-001
6.896488e+003,2.358020e-001
6.900345e+003,2.285530e-001
6.904202e+003,2.435341e-001
6.908060e+003,2.500932e-001
6.911917e+003,2.598119e-001
6.915773e+003,2.471751e-001
6.919631e+003,2.450584e-001
6.923488e+003,2.658156e-001
6.927345e+003,2.499847e-001
6.931202e+003,2.394715e-001
6.935059e+003,2.517942e-001
6.938916e+003,2.359757e-001
6.942773e+003,2.337006e-001
6.946630e+003,2.531314e-001
6.950487e+003,2.741089e-001
6.954345e+003,2.623269e-001
6.958202e+003,2.535737e-001
6.962059e+003,2.672189e-001
6.965916e+003,2.608318e-001
6.969773e+003,2.519554e-001
6.973630e+003,2.544543e-001
6.977487e+003,2.834524e-001
6.981344e+003,3.099408e-001
6.985201e+003,2.842660e-001
6.989059e+003,2.769760e-001
6.992916e+003,2.853818e-001
6.996772e+003,2.484837e-001
7.000630e+003,2.596107e-001
7.004487e+003,2.909843e-001
7.008344e+003,2.689067e-001
7.012201e+003,2.562356e-001
7.016058e+003,2.778142e-001
7.019915e+003,2.774850e-001
7.023772e+003,2.773972e-001
7.027629e+003,2.585032e-001
7.031486e+003,2.281158e-001
7.035344e+003,2.509302e-001
7.039201e+003,3.069859e-001
7.043058e+003,2.939300e-001
7.046915e+003,2.658400e-001
7.050772e+003,2.387765e-001
7.054629e+003,2.234507e-001
7.058486e+003,2.587859e-001
7.062343e+003,2.475109e-001
7.066200e+003,2.566960e-001
7.070058e+003,2.912006e-001
7.073915e+003,2.743482e-001
7.077771e+003,2.576339e-001
7.081629e+003,2.637447e-001
7.085486e+003,2.617302e-001
7.089343e+003,2.367957e-001
7.093200e+003,2.386370e-001
7.097057e+003,2.480937e-001
7.100914e+003,2.567447e-001
7.104771e+003,2.508637e-001
7.108628e+003,2.576803e-001
7.112485e+003,2.496586e-001
7.116343e+003,2.426398e-001
7.120200e+003,2.503152e-001
7.124057e+003,2.530272e-001
7.127914e+003,2.363579e-001
7.131771e+003,2.322845e-001
7.135628e+003,2.463970e-001
7.139485e+003,2.573384e-001
7.143342e+003,2.678552e-001
7.147199e+003,2.463442e-001
7.151057e+003,2.412485e-001
7.154914e+003,2.704861e-001
7.158771e+003,2.861360e-001
7.162628e+003,2.978887e-001
7.166485e+003,2.688785e-001
7.170342e+003,2.441067e-001
7.174199e+003,2.540404e-001
7.178056e+003,2.683414e-001
7.181913e+003,2.783546e-001
7.185771e+003,3.027145e-001
7.189627e+003,3.166115e-001
7.193484e+003,2.927833e-001
7.197342e+003,2.567912e-001
7.201199e+003,2.347656e-001
7.205056e+003,2.709076e-001
7.208913e+003,3.307338e-001
7.212770e+003,3.302242e-001
7.216627e+003,3.340505e-001
7.220484e+003,3.323451e-001
7.224341e+003,3.168336e-001
7.228198e+003,2.951840e-001
7.232056e+003,2.849594e-001
7.235913e+003,3.069952e-001
7.239770e+003,2.512642e-001
7.243627e+003,1.937798e-001
7.247484e+003,1.888449e-001
7.251341e+003,2.097728e-001
7.255198e+003,2.294978e-001
7.259055e+003,2.275132e-001
7.262912e+003,2.084355e-001
7.266770e+003,2.224407e-001
7.270626e+003,2.724995e-001
7.274483e+003,2.659912e-001
7.278341e+003,2.719431e-001
7.282198e+003,2.971663e-001
7.286055e+003,2.953396e-001
7.289912e+003,2.841454e-001
7.293769e+003,2.818338e-001
7.297626e+003,3.045766e-001
7.301483e+003,3.444516e-001
7.305340e+003,3.722631e-001
7.309197e+003,3.537476e-001
7.313055e+003,2.801540e-001
7.316912e+003,2.605009e-001
7.320769e+003,2.691072e-001
7.324626e+003,2.782188e-001
7.328483e+003,2.710096e-001
7.332340e+003,2.982876e-001
7.336197e+003,2.960732e-001
7.340054e+003,2.755188e-001
7.343911e+003,2.660496e-001
7.347769e+003,2.476944e-001
7.351625e+003,2.776172e-001
7.355482e+003,3.135593e-001
7.359340e+003,2.862352e-001
7.363197e+003,2.406956e-001
7.367054e+003,2.559987e-001
7.370911e+003,2.863191e-001
7.374768e+003,3.230861e-001
7.378625e+003,3.058372e-001
7.382482e+003,2.966943e-001
7.386339e+003,2.500435e-001
7.390196e+003,2.172808e-001
7.394054e+003,2.330264e-001
7.397911e+003,2.347600e-001
7.401768e+003,2.231775e-001
7.405625e+003,2.698296e-001
7.409482e+003,3.105278e-001
7.413339e+003,2.541189e-001
7.417196e+003,2.317109e-001
7.421053e+003,3.375438e-001
7.424910e+003,3.562972e-001
7.428768e+003,2.386615e-001
7.432625e+003,2.005123e-001
7.436481e+003,2.071135e-001
7.440339e+003,2.971526e-001
7.444196e+003,3.680221e-001
7.448053e+003,2.796821e-001
7.451910e+003,2.369717e-001
7.455767e+003,2.729042e-001
7.459624e+003,2.684432e-001
7.463481e+003,2.491026e-001
7.467338e+003,2.701693e-001
7.471195e+003,2.923878e-001
7.475053e+003,3.001883e-001
7.478910e+003,2.834949e-001
7.482767e+003,2.806147e-001
7.486624e+003,2.974176e-001
7.490481e+003,3.206356e-001
7.494338e+003,2.499816e-001
7.498195e+003,2.399685e-001
7.502052e+003,3.306186e-001
7.505909e+003,3.473910e-001
7.509767e+003,3.260261e-001
7.513624e+003,2.953092e-001
7.517480e+003,2.541555e-001
7.521338e+003,2.455862e-001
7.525195e+003,2.509795e-001
7.529052e+003,2.283914e-001
7.532909e+003,2.429063e-001
7.536766e+003,2.401210e-001
7.540623e+003,2.536398e-001
7.544480e+003,2.809964e-001
7.548337e+003,2.649488e-001
7.552194e+003,2.421549e-001
7.556052e+003,2.453247e-001
7.559909e+003,2.842817e-001
7.563766e+003,3.745832e-001
7.567623e+003,3.083138e-001
7.571480e+003,2.561210e-001
7.575337e+003,2.406669e-001
7.579194e+003,2.382899e-001
7.583051e+003,3.064012e-001
7.586908e+003,3.170756e-001
7.590766e+003,3.039239e-001
7.594623e+003,2.878222e-001
7.598479e+003,2.554524e-001
7.602337e+003,2.565297e-001
7.606194e+003,2.576998e-001
7.610051e+003,2.785194e-001
7.613908e+003,2.983567e-001
7.617765e+003,2.696096e-001
7.621622e+003,2.562374e-001
7.625479e+003,2.435892e-001
7.629336e+003,2.717417e-001
7.633193e+003,2.762468e-001
7.637051e+003,2.124836e-001
7.640908e+003,2.062542e-001
7.644765e+003,2.345466e-001
7.648622e+003,2.600936e-001
7.652479e+003,2.687416e-001
7.656336e+003,2.924220e-001
7.660193e+003,2.911644e-001
7.664050e+003,2.927247e-001
7.667907e+003,2.954351e-001
7.671765e+003,3.068826e-001
7.675622e+003,2.563786e-001
7.679479e+003,2.422522e-001
7.683336e+003,2.743595e-001
7.687193e+003,3.363719e-001
7.691050e+003,3.837565e-001
7.694907e+003,3.515709e-001
7.698764e+003,3.160347e-001
7.702621e+003,3.058454e-001
7.706479e+003,3.382342e-001
7.710335e+003,3.581026e-001
7.714192e+003,2.595699e-001
7.718050e+003,2.193906e-001
7.721907e+003,2.870232e-001
7.725764e+003,4.275338e-001
7.729621e+003,4.991882e-001
7.733478e+003,4.212628e-001
7.737335e+003,3.874989e-001
7.741192e+003,4.238624e-001
7.745049e+003,3.972015e-001
7.748906e+003,3.715187e-001
7.752764e+003,3.964905e-001
7.756621e+003,3.467418e-001
7.760478e+003,2.569549e-001
7.764335e+003,2.917151e-001
7.768192e+003,3.755032e-001
7.772049e+003,4.037561e-001
7.775906e+003,3.530210e-001
7.779763e+003,3.366902e-001
7.783620e+003,3.145872e-001
7.787478e+003,3.350268e-001
7.791334e+003,3.791665e-001
7.795191e+003,3.719354e-001
7.799049e+003,2.891667e-001
7.802906e+003,2.763271e-001
7.806763e+003,3.422358e-001
7.810620e+003,3.442125e-001
7.814477e+003,2.553314e-001
7.818334e+003,2.271578e-001
7.822191e+003,2.534526e-001
7.826048e+003,3.242596e-001
7.829905e+003,2.681579e-001
7.833763e+003,2.282635e-001
7.837620e+003,1.819339e-001
7.841477e+003,1.845073e-001
7.845334e+003,2.635595e-001
7.849191e+003,2.579537e-001
7.853048e+003,2.156818e-001
7.856905e+003,2.405859e-001
7.860762e+003,3.114162e-001
7.864619e+003,3.923216e-001
7.868477e+003,3.509968e-001
7.872333e+003,2.668233e-001
7.876190e+003,3.305686e-001
7.880048e+003,3.373740e-001
7.883905e+003,3.685547e-001
7.887762e+003,3.428713e-001
7.891619e+003,2.520628e-001
7.895476e+003,1.787695e-001
7.899333e+003,1.862561e-001
7.903190e+003,2.248283e-001
7.907047e+003,2.707635e-001
7.910904e+003,3.120474e-001
7.914762e+003,2.900501e-001
7.918619e+003,2.426031e-001
7.922476e+003,1.919627e-001
7.926333e+003,2.170391e-001
7.930190e+003,2.437440e-001
7.934047e+003,2.754801e-001
7.937904e+003,2.050827e-001
7.941761e+003,1.437560e-001
7.945618e+003,1.637676e-001
7.949476e+003,2.233004e-001
7.953333e+003,3.031230e-001
7.957189e+003,2.511339e-001
7.961047e+003,2.343334e-001
7.964904e+003,2.471346e-001
7.968761e+003,3.439074e-001
7.972618e+003,3.880386e-001
7.976475e+003,3.235829e-001
7.980332e+003,3.301758e-001
7.984189e+003,2.917954e-001
7.988046e+003,2.588979e-001
7.991903e+003,3.776892e-001
7.995761e+003,3.880007e-001
7.999618e+003,3.106886e-001
