4.011380e+002,-8.122487e-001
4.049951e+002,6.000000e+000
4.088522e+002,-7.100872e-002
4.127093e+002,-6.147920e-001
4.165664e+002,-9.790193e-001
4.204235e+002,1.948386e-001
4.242806e+002,-5.449188e-003
4.281377e+002,6.000000e+000
4.319948e+002,2.452039e-001
4.358519e+002,6.000000e+000
4.397090e+002,-2.933414e-001
4.435661e+002,6.000000e+000
4.474232e+002,6.000000e+000
4.512803e+002,-4.991217e-001
4.551374e+002,6.000000e+000
4.589945e+002,9.592675e-002
4.628516e+002,2.295761e-001
4.667087e+002,6.000000e+000
4.705658e+002,6.000000e+000
4.744229e+002,-2.552069e-001
4.782800e+002,-9.386733e-001
4.821371e+002,6.000000e+000
4.859941e+002,6.000000e+000
4.898513e+002,6.000000e+000
4.937083e+002,5.978079e-003
4.975654e+002,6.605513e-001
5.014225e+002,6.000000e+000
5.052796e+002,6.000000e+000
5.091367e+002,6.000000e+000
5.129938e+002,6.000000e+000
5.168509e+002,6.000000e+000
5.207080e+002,6.000000e+000
5.245651e+002,6.000000e+000
5.284222e+002,6.000000e+000
5.322793e+002,-2.835327e+000
5.361364e+002,6.000000e+000
5.399935e+002,6.000000e+000
5.438506e+002,6.000000e+000
5.477077e+002,6.000000e+000
5.515648e+002,1.677973e-001
5.554219e+002,6.000000e+000
5.592790e+002,6.000000e+000
5.631361e+002,-2.123880e-001
5.669932e+002,6.000000e+000
5.708503e+002,6.000000e+000
5.747074e+002,6.000000e+000
5.785645e+002,3.608150e-001
5.824216e+002,6.000000e+000
5.862787e+002,6.000000e+000
5.901357e+002,-4.929180e-002
5.939929e+002,1.701854e-001
5.978499e+002,7.874170e-002
6.017070e+002,-2.598782e-001
6.055641e+002,6.000000e+000
6.094212e+002,6.000000e+000
6.132783e+002,6.000000e+000
6.171354e+002,6.000000e+000
6.209925e+002,6.000000e+000
6.248496e+002,6.000000e+000
6.287067e+002,6.000000e+000
6.325638e+002,-1.766891e-001
6.364209e+002,2.523600e-001
6.402780e+002,2.998551e-001
6.441351e+002,4.369364e-001
6.479922e+002,-3.826492e-001
6.518493e+002,-4.021175e-001
6.557064e+002,6.000000e+000
6.595635e+002,6.000000e+000
6.634205e+002,6.000000e+000
6.672777e+002,-3.965119e-001
6.711348e+002,1.483185e-001
6.749918e+002,1.863906e-001
6.788490e+002,6.000000e+000
6.827061e+002,6.000000e+000
6.865631e+002,-6.910080e-001
6.904203e+002,-2.566394e-002
6.942773e+002,4.233311e-001
6.981344e+002,6.000000e+000
7.019916e+002,-1.875452e+000
7.058486e+002,6.000000e+000
7.097057e+002,6.000000e+000
7.135629e+002,1.415291e-001
7.174199e+002,5.661129e-001
7.212770e+002,7.449415e-001
7.251342e+002,9.620116e-001
7.289912e+002,-7.641271e-002
7.328483e+002,-5.769122e-001
7.367054e+002,7.988780e-002
7.405625e+002,3.209217e-001
7.444196e+002,2.403108e-001
7.482767e+002,6.000000e+000
7.521338e+002,-4.241826e-001
7.559908e+002,3.907740e-001
7.598480e+002,6.000000e+000
7.637051e+002,6.000000e+000
7.675621e+002,6.000000e+000
7.714193e+002,-6.925098e-001
7.752764e+002,6.000000e+000
7.791334e+002,-5.718120e-001
7.829905e+002,-7.722580e-002
7.868477e+002,5.270759e-001
7.907047e+002,6.000000e+000
7.945618e+002,6.000000e+000
7.984189e+002,6.000000e+000
8.022760e+002,-1.565889e-001
8.061331e+002,1.325202e-001
8.099902e+002,6.000000e+000
8.138473e+002,6.000000e+000
8.177044e+002,6.000000e+000
8.215615e+002,6.000000e+000
8.254186e+002,6.000000e+000
8.292757e+002,6.000000e+000
8.331328e+002,2.217636e+000
8.369899e+002,7.084923e-001
8.408470e+002,5.581549e-001
8.447041e+002,8.155530e-001
8.485612e+002,7.729873e-001
8.524183e+002,7.169736e-001
8.562754e+002,1.228056e+000
8.601324e+002,6.000000e+000
8.639896e+002,6.000000e+000
8.678467e+002,1.399531e+000
8.717037e+002,1.249382e+000
8.755609e+002,1.964610e+000
8.794180e+002,3.344054e+000
8.832750e+002,6.000000e+000
8.871321e+002,1.531840e+000
8.909893e+002,1.311508e+000
8.948463e+002,1.788096e+000
8.987034e+002,6.000000e+000
9.025605e+002,1.763570e+000
9.064176e+002,1.594499e+000
9.102747e+002,1.682287e+000
9.141318e+002,1.802078e+000
9.179889e+002,1.998549e+000
9.218461e+002,2.177236e+000
9.257031e+002,2.330160e+000
9.295602e+002,6.000000e+000
9.334174e+002,6.000000e+000
9.372744e+002,6.000000e+000
9.411315e+002,2.598496e+000
9.449886e+002,1.894849e+000
9.488457e+002,1.933192e+000
9.527028e+002,2.087024e+000
9.565599e+002,2.372450e+000
9.604170e+002,2.468305e+000
9.642740e+002,6.000000e+000
9.681312e+002,6.000000e+000
9.719883e+002,2.330804e+000
9.758453e+002,2.044344e+000
9.797025e+002,2.068903e+000
9.835596e+002,2.055035e+000
9.874166e+002,1.981240e+000
9.912738e+002,1.909505e+000
9.951309e+002,2.041672e+000
9.989879e+002,1.999368e+000
1.002845e+003,1.675794e+000
1.006702e+003,1.694751e+000
1.010559e+003,2.308990e+000
1.014416e+003,3.495045e+000
1.018273e+003,1.881801e+000
1.022130e+003,1.800040e+000
1.025988e+003,1.833660e+000
1.029845e+003,1.870226e+000
1.033702e+003,2.174086e+000
1.037559e+003,2.069947e+000
1.041416e+003,1.904332e+000
1.045273e+003,2.098996e+000
1.049130e+003,1.970478e+000
1.052987e+003,1.873724e+000
1.056844e+003,1.879386e+000
1.060702e+003,1.807664e+000
1.064559e+003,1.667765e+000
1.068416e+003,1.607947e+000
1.072273e+003,1.684574e+000
1.076130e+003,1.862180e+000
1.079987e+003,1.778522e+000
1.083844e+003,1.854039e+000
1.087701e+003,1.820182e+000
1.091558e+003,1.717466e+000
1.095415e+003,1.642769e+000
1.099272e+003,1.648605e+000
1.103130e+003,1.716876e+000
1.106987e+003,1.746130e+000
1.110844e+003,1.669691e+000
1.114701e+003,1.622101e+000
1.118558e+003,1.584443e+000
1.122415e+003,1.600379e+000
1.126272e+003,1.620163e+000
1.130129e+003,1.570570e+000
1.133986e+003,1.505284e+000
1.137843e+003,1.478912e+000
1.141701e+003,1.490544e+000
1.145558e+003,1.560284e+000
1.149415e+003,1.587144e+000
1.153272e+003,1.582096e+000
1.157129e+003,1.535310e+000
1.160986e+003,1.467646e+000
1.164843e+003,1.489477e+000
1.168700e+003,1.587249e+000
1.172557e+003,1.524593e+000
1.176414e+003,1.462927e+000
1.180271e+003,1.513646e+000
1.184129e+003,1.550800e+000
1.187986e+003,1.500594e+000
1.191843e+003,1.476959e+000
1.195700e+003,1.417431e+000
1.199557e+003,1.351912e+000
1.203414e+003,1.305859e+000
1.207271e+003,1.280338e+000
1.211128e+003,1.229245e+000
1.214985e+003,1.181241e+000
1.218842e+003,1.112176e+000
1.222699e+003,1.040755e+000
1.226557e+003,9.760233e-001
1.230414e+003,9.210942e-001
1.234271e+003,8.725081e-001
1.238128e+003,8.238710e-001
1.241985e+003,7.962387e-001
1.245842e+003,7.771658e-001
1.249699e+003,7.521726e-001
1.253556e+003,7.311718e-001
1.257413e+003,7.085478e-001
1.261271e+003,6.938102e-001
1.265128e+003,6.836130e-001
1.268985e+003,6.707458e-001
1.272842e+003,6.588991e-001
1.276699e+003,6.496552e-001
1.280556e+003,6.374490e-001
1.284413e+003,6.264365e-001
1.288270e+003,6.209034e-001
1.292127e+003,6.136916e-001
1.295984e+003,6.020789e-001
1.299841e+003,5.881330e-001
1.303698e+003,5.738269e-001
1.307556e+003,5.626955e-001
1.311413e+003,5.632162e-001
1.315270e+003,5.601988e-001
1.319127e+003,5.448809e-001
1.322984e+003,5.352548e-001
1.326841e+003,5.300814e-001
1.330698e+003,5.260991e-001
1.334555e+003,5.250304e-001
1.338412e+003,5.257722e-001
1.342270e+003,5.189515e-001
1.346127e+003,5.148392e-001
1.349984e+003,5.129878e-001
1.353841e+003,5.099545e-001
1.357698e+003,5.145840e-001
1.361555e+003,5.167648e-001
1.365412e+003,5.147856e-001
1.369269e+003,5.199328e-001
1.373126e+003,5.300984e-001
1.376983e+003,5.343508e-001
1.380840e+003,5.389822e-001
1.384698e+003,5.465150e-001
1.388555e+003,5.565646e-001
1.392412e+003,5.710222e-001
1.396269e+003,5.846094e-001
1.400126e+003,5.986992e-001
1.403983e+003,6.106761e-001
1.407840e+003,6.236005e-001
1.411697e+003,6.363804e-001
1.415554e+003,6.450359e-001
1.419411e+003,6.508462e-001
1.423269e+003,6.611413e-001
1.427126e+003,6.737757e-001
1.430983e+003,6.798375e-001
1.434840e+003,6.768748e-001
1.438697e+003,6.718413e-001
1.442554e+003,6.685494e-001
1.446411e+003,6.661460e-001
1.450268e+003,6.605792e-001
1.454125e+003,6.543028e-001
1.457982e+003,6.483162e-001
1.461839e+003,6.379607e-001
1.465697e+003,6.336327e-001
1.469554e+003,6.299587e-001
1.473411e+003,6.210521e-001
1.477268e+003,6.212633e-001
1.481125e+003,6.327083e-001
1.484982e+003,6.414866e-001
1.488839e+003,6.543517e-001
1.492696e+003,6.664582e-001
1.496553e+003,6.714998e-001
1.500411e+003,6.774245e-001
1.504268e+003,6.812044e-001
1.508125e+003,6.833275e-001
1.511982e+003,6.855308e-001
1.515839e+003,6.826100e-001
1.519696e+003,6.813672e-001
1.523553e+003,6.776473e-001
1.527410e+003,6.675895e-001
1.531267e+003,6.581195e-001
1.535124e+003,6.478982e-001
1.538981e+003,6.416249e-001
1.542839e+003,6.325914e-001
1.546696e+003,6.201171e-001
1.550553e+003,6.079167e-001
1.554410e+003,6.008146e-001
1.558267e+003,5.926553e-001
1.562124e+003,5.841446e-001
1.565981e+003,5.793295e-001
1.569838e+003,5.714884e-001
1.573695e+003,5.649820e-001
1.577552e+003,5.665011e-001
1.581410e+003,5.648977e-001
1.585267e+003,5.631939e-001
1.589124e+003,5.646780e-001
1.592981e+003,5.729429e-001
1.596838e+003,5.808349e-001
1.600695e+003,5.873015e-001
1.604552e+003,6.017292e-001
1.608409e+003,6.264281e-001
1.612266e+003,6.507832e-001
1.616123e+003,6.759712e-001
1.619980e+003,7.008119e-001
1.623838e+003,7.180346e-001
1.627695e+003,7.352987e-001
1.631552e+003,7.531627e-001
1.635409e+003,7.611006e-001
1.639266e+003,7.604091e-001
1.643123e+003,7.517698e-001
1.646980e+003,7.395144e-001
1.650837e+003,7.280555e-001
1.654694e+003,7.157990e-001
1.658551e+003,6.966630e-001
1.662409e+003,6.745346e-001
1.666266e+003,6.508743e-001
1.670123e+003,6.301980e-001
1.673980e+003,6.078197e-001
1.677837e+003,5.887649e-001
1.681694e+003,5.723872e-001
1.685551e+003,5.592309e-001
1.689408e+003,5.468982e-001
1.693265e+003,5.348392e-001
1.697122e+003,5.232646e-001
1.700979e+003,5.124422e-001
1.704837e+003,5.067831e-001
1.708694e+003,5.000538e-001
1.712551e+003,4.955340e-001
1.716408e+003,4.914525e-001
1.720265e+003,4.859444e-001
1.724122e+003,4.854334e-001
1.727979e+003,4.842299e-001
1.731836e+003,4.824749e-001
1.735693e+003,4.831152e-001
1.739550e+003,4.794683e-001
1.743408e+003,4.778083e-001
1.747265e+003,4.774396e-001
1.751122e+003,4.765588e-001
1.754979e+003,4.764728e-001
1.758836e+003,4.745134e-001
1.762693e+003,4.705191e-001
1.766550e+003,4.661056e-001
1.770407e+003,4.698060e-001
1.774264e+003,4.718576e-001
1.778121e+003,4.692284e-001
1.781979e+003,4.648295e-001
1.785836e+003,4.623124e-001
1.789693e+003,4.629647e-001
1.793550e+003,4.600744e-001
1.797407e+003,4.565938e-001
1.801264e+003,4.529271e-001
1.805121e+003,4.499022e-001
1.808978e+003,4.518078e-001
1.812835e+003,4.529043e-001
1.816692e+003,4.514436e-001
1.820549e+003,4.506379e-001
1.824407e+003,4.491729e-001
1.828264e+003,4.488958e-001
1.832121e+003,4.526278e-001
1.835978e+003,4.489612e-001
1.839835e+003,4.459987e-001
1.843692e+003,4.443126e-001
1.847549e+003,4.407528e-001
1.851406e+003,4.371144e-001
1.855263e+003,4.335860e-001
1.859120e+003,4.272180e-001
1.862978e+003,4.263952e-001
1.866835e+003,4.305422e-001
1.870692e+003,4.303460e-001
1.874549e+003,4.292199e-001
1.878406e+003,4.280186e-001
1.882263e+003,4.251157e-001
1.886120e+003,4.251759e-001
1.889977e+003,4.246516e-001
1.893834e+003,4.232458e-001
1.897691e+003,4.226826e-001
1.901548e+003,4.229835e-001
1.905406e+003,4.206267e-001
1.909263e+003,4.200458e-001
1.913120e+003,4.211803e-001
1.916977e+003,4.218653e-001
1.920834e+003,4.166111e-001
1.924691e+003,4.113316e-001
1.928548e+003,4.112445e-001
1.932405e+003,4.116414e-001
1.936262e+003,4.091715e-001
1.940119e+003,4.080447e-001
1.943977e+003,4.060748e-001
1.947834e+003,4.013602e-001
1.951691e+003,3.986640e-001
1.955548e+003,3.943083e-001
1.959405e+003,3.888143e-001
1.963262e+003,3.877815e-001
1.967119e+003,3.876663e-001
1.970976e+003,3.864812e-001
1.974833e+003,3.837162e-001
1.978690e+003,3.829768e-001
1.982547e+003,3.848529e-001
1.986405e+003,3.855547e-001
1.990262e+003,3.855774e-001
1.994119e+003,3.856688e-001
1.997976e+003,3.865382e-001
2.001833e+003,3.850898e-001
2.005690e+003,3.850176e-001
2.009547e+003,3.855798e-001
2.013404e+003,3.836999e-001
2.017261e+003,3.815987e-001
2.021118e+003,3.807552e-001
2.024976e+003,3.816745e-001
2.028833e+003,3.796170e-001
2.032690e+003,3.767200e-001
2.036547e+003,3.733254e-001
2.040404e+003,3.693652e-001
2.044261e+003,3.681770e-001
2.048118e+003,3.674895e-001
2.051975e+003,3.657584e-001
2.055832e+003,3.633993e-001
2.059689e+003,3.628008e-001
2.063546e+003,3.598956e-001
2.067404e+003,3.566436e-001
2.071261e+003,3.584044e-001
2.075118e+003,3.589075e-001
2.078975e+003,3.606777e-001
2.082832e+003,3.615148e-001
2.086689e+003,3.636205e-001
2.090546e+003,3.652323e-001
2.094403e+003,3.632100e-001
2.098260e+003,3.623603e-001
2.102117e+003,3.654472e-001
2.105975e+003,3.665276e-001
2.109832e+003,3.657461e-001
2.113689e+003,3.626454e-001
2.117546e+003,3.596852e-001
2.121403e+003,3.588087e-001
2.125260e+003,3.598676e-001
2.129117e+003,3.606994e-001
2.132974e+003,3.577901e-001
2.136831e+003,3.548057e-001
2.140688e+003,3.538248e-001
2.144545e+003,3.503098e-001
2.148403e+003,3.488196e-001
2.152260e+003,3.498740e-001
2.156117e+003,3.498662e-001
2.159974e+003,3.487835e-001
2.163831e+003,3.460448e-001
2.167688e+003,3.476461e-001
2.171545e+003,3.498041e-001
2.175402e+003,3.516769e-001
2.179259e+003,3.532485e-001
2.183116e+003,3.537989e-001
2.186974e+003,3.560652e-001
2.190831e+003,3.595858e-001
2.194688e+003,3.592887e-001
2.198545e+003,3.591468e-001
2.202402e+003,3.591093e-001
2.206259e+003,3.567775e-001
2.210116e+003,3.563338e-001
2.213973e+003,3.572343e-001
2.217830e+003,3.571871e-001
2.221688e+003,3.551813e-001
2.225544e+003,3.536075e-001
2.229402e+003,3.546403e-001
2.233259e+003,3.550335e-001
2.237116e+003,3.541421e-001
2.240973e+003,3.511899e-001
2.244830e+003,3.504690e-001
2.248687e+003,3.521781e-001
2.252544e+003,3.509765e-001
2.256401e+003,3.502992e-001
2.260258e+003,3.494064e-001
2.264115e+003,3.492221e-001
2.267973e+003,3.516107e-001
2.271830e+003,3.548535e-001
2.275687e+003,3.561152e-001
2.279544e+003,3.586012e-001
2.283401e+003,3.593962e-001
2.287258e+003,3.575994e-001
2.291115e+003,3.575133e-001
2.294972e+003,3.593275e-001
2.298829e+003,3.620116e-001
2.302687e+003,3.614640e-001
2.306543e+003,3.581397e-001
2.310401e+003,3.558266e-001
2.314258e+003,3.552949e-001
2.318115e+003,3.559971e-001
2.321972e+003,3.552448e-001
2.325829e+003,3.493033e-001
2.329686e+003,3.464222e-001
2.333543e+003,3.490517e-001
2.337400e+003,3.481399e-001
2.341257e+003,3.435210e-001
2.345115e+003,3.435839e-001
2.348972e+003,3.467198e-001
2.352829e+003,3.459975e-001
2.356686e+003,3.447726e-001
2.360543e+003,3.439341e-001
2.364400e+003,3.424450e-001
2.368257e+003,3.459166e-001
2.372114e+003,3.497377e-001
2.375971e+003,3.504603e-001
2.379828e+003,3.491678e-001
2.383686e+003,3.493686e-001
2.387542e+003,3.486589e-001
2.391400e+003,3.499913e-001
2.395257e+003,3.544742e-001
2.399114e+003,3.540961e-001
2.402971e+003,3.508683e-001
2.406828e+003,3.492032e-001
2.410685e+003,3.475108e-001
2.414542e+003,3.465151e-001
2.418399e+003,3.473050e-001
2.422256e+003,3.463411e-001
2.426114e+003,3.418373e-001
2.429971e+003,3.386578e-001
2.433828e+003,3.391277e-001
2.437685e+003,3.384468e-001
2.441542e+003,3.382920e-001
2.445399e+003,3.380596e-001
2.449256e+003,3.361202e-001
2.453113e+003,3.338930e-001
2.456970e+003,3.337469e-001
2.460827e+003,3.341027e-001
2.464684e+003,3.345322e-001
2.468542e+003,3.345846e-001
2.472399e+003,3.348698e-001
2.476256e+003,3.348878e-001
2.480113e+003,3.331231e-001
2.483970e+003,3.343971e-001
2.487827e+003,3.360626e-001
2.491684e+003,3.362086e-001
2.495541e+003,3.350197e-001
2.499398e+003,3.330386e-001
2.503255e+003,3.339528e-001
2.507113e+003,3.342869e-001
2.510969e+003,3.295482e-001
2.514827e+003,3.280596e-001
2.518684e+003,3.296815e-001
2.522541e+003,3.309352e-001
2.526398e+003,3.309228e-001
2.530255e+003,3.296047e-001
2.534112e+003,3.295995e-001
2.537969e+003,3.312451e-001
2.541826e+003,3.314664e-001
2.545683e+003,3.298554e-001
2.549541e+003,3.293142e-001
2.553398e+003,3.298483e-001
2.557255e+003,3.314387e-001
2.561112e+003,3.333971e-001
2.564969e+003,3.342567e-001
2.568826e+003,3.366128e-001
2.572683e+003,3.370640e-001
2.576540e+003,3.381927e-001
2.580397e+003,3.443000e-001
2.584254e+003,3.454436e-001
2.588112e+003,3.439857e-001
2.591969e+003,3.430409e-001
2.595826e+003,3.425989e-001
2.599683e+003,3.449803e-001
2.603540e+003,3.490367e-001
2.607397e+003,3.503097e-001
2.611254e+003,3.514720e-001
2.615111e+003,3.540619e-001
2.618968e+003,3.561774e-001
2.622825e+003,3.567801e-001
2.626682e+003,3.544808e-001
2.630540e+003,3.557564e-001
2.634397e+003,3.624514e-001
2.638254e+003,3.639037e-001
2.642111e+003,3.625011e-001
2.645968e+003,3.640510e-001
2.649825e+003,3.682347e-001
2.653682e+003,3.730806e-001
2.657539e+003,3.753099e-001
2.661396e+003,3.755372e-001
2.665253e+003,3.763640e-001
2.669111e+003,3.768247e-001
2.672968e+003,3.785148e-001
2.676825e+003,3.812733e-001
2.680682e+003,3.839653e-001
2.684539e+003,3.872250e-001
2.688396e+003,3.894717e-001
2.692253e+003,3.933540e-001
2.696110e+003,3.974012e-001
2.699967e+003,3.998774e-001
2.703824e+003,3.998704e-001
2.707681e+003,4.038135e-001
2.711539e+003,4.100372e-001
2.715396e+003,4.086230e-001
2.719253e+003,4.074685e-001
2.723110e+003,4.121729e-001
2.726967e+003,4.157756e-001
2.730824e+003,4.190176e-001
2.734681e+003,4.198557e-001
2.738538e+003,4.218668e-001
2.742395e+003,4.240389e-001
2.746252e+003,4.291084e-001
2.750110e+003,4.329815e-001
2.753967e+003,4.334104e-001
2.757824e+003,4.357825e-001
2.761681e+003,4.364293e-001
2.765538e+003,4.385469e-001
2.769395e+003,4.435145e-001
2.773252e+003,4.482444e-001
2.777109e+003,4.533568e-001
2.780966e+003,4.577371e-001
2.784823e+003,4.621165e-001
2.788680e+003,4.655953e-001
2.792538e+003,4.673156e-001
2.796395e+003,4.687779e-001
2.800252e+003,4.712777e-001
2.804109e+003,4.743960e-001
2.807966e+003,4.775582e-001
2.811823e+003,4.827907e-001
2.815680e+003,4.870758e-001
2.819537e+003,4.893640e-001
2.823394e+003,4.902186e-001
2.827251e+003,4.904987e-001
2.831109e+003,4.946999e-001
2.834966e+003,5.005212e-001
2.838823e+003,5.027114e-001
2.842680e+003,5.080836e-001
2.846537e+003,5.137668e-001
2.850394e+003,5.188100e-001
2.854251e+003,5.234413e-001
2.858108e+003,5.224112e-001
2.861965e+003,5.233739e-001
2.865823e+003,5.285634e-001
2.869679e+003,5.333534e-001
2.873537e+003,5.379735e-001
2.877394e+003,5.425054e-001
2.881251e+003,5.470347e-001
2.885108e+003,5.529913e-001
2.888965e+003,5.598636e-001
2.892822e+003,5.614188e-001
2.896679e+003,5.628957e-001
2.900536e+003,5.687352e-001
2.904393e+003,5.726823e-001
2.908250e+003,5.724348e-001
2.912108e+003,5.772891e-001
2.915965e+003,5.811405e-001
2.919822e+003,5.875993e-001
2.923679e+003,5.971107e-001
2.927536e+003,6.001498e-001
2.931393e+003,6.021624e-001
2.935250e+003,6.041498e-001
2.939107e+003,6.071658e-001
2.942964e+003,6.117376e-001
2.946822e+003,6.167279e-001
2.950678e+003,6.172033e-001
2.954536e+003,6.200773e-001
2.958393e+003,6.226300e-001
2.962250e+003,6.266631e-001
2.966107e+003,6.359133e-001
2.969964e+003,6.442322e-001
2.973821e+003,6.522864e-001
2.977678e+003,6.576350e-001
2.981535e+003,6.581322e-001
2.985392e+003,6.625180e-001
2.989250e+003,6.679604e-001
2.993107e+003,6.686931e-001
2.996964e+003,6.751686e-001
3.000821e+003,6.807916e-001
3.004678e+003,6.814920e-001
3.008535e+003,6.860728e-001
3.012392e+003,6.891933e-001
3.016249e+003,6.971881e-001
3.020106e+003,7.100856e-001
3.023963e+003,7.151047e-001
3.027821e+003,7.234216e-001
3.031677e+003,7.308491e-001
3.035535e+003,7.322048e-001
3.039392e+003,7.376513e-001
3.043249e+003,7.425188e-001
3.047106e+003,7.403080e-001
3.050963e+003,7.469230e-001
3.054820e+003,7.603888e-001
3.058677e+003,7.642239e-001
3.062534e+003,7.650795e-001
3.066391e+003,7.648523e-001
3.070249e+003,7.716336e-001
3.074106e+003,7.842793e-001
3.077963e+003,7.870384e-001
3.081820e+003,7.867742e-001
3.085677e+003,7.916066e-001
3.089534e+003,8.048879e-001
3.093391e+003,8.114940e-001
3.097248e+003,8.099123e-001
3.101105e+003,8.159423e-001
3.104962e+003,8.320912e-001
3.108820e+003,8.466692e-001
3.112677e+003,8.370553e-001
3.116534e+003,8.380343e-001
3.120391e+003,8.526009e-001
3.124248e+003,8.651168e-001
3.128105e+003,8.759679e-001
3.131962e+003,8.807264e-001
3.135819e+003,8.848563e-001
3.139676e+003,8.862808e-001
3.143533e+003,8.930182e-001
3.147390e+003,9.129835e-001
3.151248e+003,9.212351e-001
3.155105e+003,9.184386e-001
3.158962e+003,9.174412e-001
3.162819e+003,9.279484e-001
3.166676e+003,9.398389e-001
3.170533e+003,9.423099e-001
3.174390e+003,9.423907e-001
3.178247e+003,9.550840e-001
3.182104e+003,9.646812e-001
3.185961e+003,9.741185e-001
3.189819e+003,9.674999e-001
3.193676e+003,9.578970e-001
3.197533e+003,9.665230e-001
3.201390e+003,9.817073e-001
3.205247e+003,9.929737e-001
3.209104e+003,9.951769e-001
3.212961e+003,1.002771e+000
3.216818e+003,1.007573e+000
3.220675e+003,1.004316e+000
3.224532e+003,1.009688e+000
3.228389e+003,1.020138e+000
3.232247e+003,1.032999e+000
3.236104e+003,1.028749e+000
3.239961e+003,1.035404e+000
3.243818e+003,1.064145e+000
3.247675e+003,1.063683e+000
3.251532e+003,1.040013e+000
3.255389e+003,1.042938e+000
3.259246e+003,1.066364e+000
3.263103e+003,1.075622e+000
3.266960e+003,1.065972e+000
3.270818e+003,1.067477e+000
3.274675e+003,1.085109e+000
3.278532e+003,1.101918e+000
3.282389e+003,1.108512e+000
3.286246e+003,1.098424e+000
3.290103e+003,1.097121e+000
3.293960e+003,1.115132e+000
3.297817e+003,1.133229e+000
3.301674e+003,1.121882e+000
3.305531e+003,1.117881e+000
3.309388e+003,1.136076e+000
3.313246e+003,1.145428e+000
3.317103e+003,1.150563e+000
3.320960e+003,1.161469e+000
3.324817e+003,1.166065e+000
3.328674e+003,1.154827e+000
3.332531e+003,1.147854e+000
3.336388e+003,1.173362e+000
3.340245e+003,1.201357e+000
3.344102e+003,1.213580e+000
3.347959e+003,1.212392e+000
3.351817e+003,1.210070e+000
3.355674e+003,1.217374e+000
3.359531e+003,1.214143e+000
3.363388e+003,1.222135e+000
3.367245e+003,1.222387e+000
3.371102e+003,1.232438e+000
3.374959e+003,1.237101e+000
3.378816e+003,1.222120e+000
3.382673e+003,1.232196e+000
3.386530e+003,1.244141e+000
3.390387e+003,1.243482e+000
3.394245e+003,1.252981e+000
3.398102e+003,1.265806e+000
3.401959e+003,1.266911e+000
3.405816e+003,1.267505e+000
3.409673e+003,1.284979e+000
3.413530e+003,1.301497e+000
3.417387e+003,1.315230e+000
3.421244e+003,1.297660e+000
3.425101e+003,1.276079e+000
3.428958e+003,1.282368e+000
3.432815e+003,1.301552e+000
3.436673e+003,1.313026e+000
3.440530e+003,1.308325e+000
3.444387e+003,1.291956e+000
3.448244e+003,1.298566e+000
3.452101e+003,1.313999e+000
3.455958e+003,1.313155e+000
3.459815e+003,1.329172e+000
3.463672e+003,1.320732e+000
3.467529e+003,1.309187e+000
3.471386e+003,1.309761e+000
3.475244e+003,1.322725e+000
3.479101e+003,1.344889e+000
3.482958e+003,1.346165e+000
3.486815e+003,1.332699e+000
3.490672e+003,1.330487e+000
3.494529e+003,1.333419e+000
3.498386e+003,1.332329e+000
3.502243e+003,1.326251e+000
3.506100e+003,1.317549e+000
3.509958e+003,1.323638e+000
3.513814e+003,1.338196e+000
3.517672e+003,1.351117e+000
3.521529e+003,1.361497e+000
3.525386e+003,1.362532e+000
3.529243e+003,1.367242e+000
3.533100e+003,1.372606e+000
3.536957e+003,1.366110e+000
3.540814e+003,1.386718e+000
3.544671e+003,1.362651e+000
3.548528e+003,1.339505e+000
3.552385e+003,1.339274e+000
3.556243e+003,1.316914e+000
3.560100e+003,1.310881e+000
3.563957e+003,1.311591e+000
3.567814e+003,1.312163e+000
3.571671e+003,1.311038e+000
3.575528e+003,1.280763e+000
3.579385e+003,1.254902e+000
3.583242e+003,1.250371e+000
3.587099e+003,1.228328e+000
3.590957e+003,1.233026e+000
3.594813e+003,1.217189e+000
3.598671e+003,1.174313e+000
3.602528e+003,1.139603e+000
3.606385e+003,1.098289e+000
3.610242e+003,1.050150e+000
3.614099e+003,1.012234e+000
3.617956e+003,9.821268e-001
3.621813e+003,9.417190e-001
3.625670e+003,8.956772e-001
3.629527e+003,8.475896e-001
3.633385e+003,7.870252e-001
3.637242e+003,7.336826e-001
3.641099e+003,6.989076e-001
3.644956e+003,6.572092e-001
3.648813e+003,6.059221e-001
3.652670e+003,5.610591e-001
3.656527e+003,5.218890e-001
3.660384e+003,4.848527e-001
3.664241e+003,4.563259e-001
3.668098e+003,4.293439e-001
3.671956e+003,4.004882e-001
3.675813e+003,3.767687e-001
3.679670e+003,3.577742e-001
3.683527e+003,3.388823e-001
3.687384e+003,3.210244e-001
3.691241e+003,3.048808e-001
3.695098e+003,2.928589e-001
3.698955e+003,2.857197e-001
3.702812e+003,2.785207e-001
3.706669e+003,2.692978e-001
3.710526e+003,2.597522e-001
3.714384e+003,2.587857e-001
3.718241e+003,2.580738e-001
3.722098e+003,2.543943e-001
3.725955e+003,2.517582e-001
3.729812e+003,2.481276e-001
3.733669e+003,2.453639e-001
3.737526e+003,2.446440e-001
3.741383e+003,2.405601e-001
3.745240e+003,2.399705e-001
3.749097e+003,2.388221e-001
3.752955e+003,2.388485e-001
3.756812e+003,2.365294e-001
3.760669e+003,2.346393e-001
3.764526e+003,2.365509e-001
3.768383e+003,2.355495e-001
3.772240e+003,2.343326e-001
3.776097e+003,2.331897e-001
3.779954e+003,2.318579e-001
3.783811e+003,2.279584e-001
3.787668e+003,2.263216e-001
3.791525e+003,2.278242e-001
3.795383e+003,2.289558e-001
3.799240e+003,2.305059e-001
3.803097e+003,2.325679e-001
3.806954e+003,2.295046e-001
3.810811e+003,2.260848e-001
3.814668e+003,2.274906e-001
3.818525e+003,2.276175e-001
3.822382e+003,2.287728e-001
3.826239e+003,2.311903e-001
3.830096e+003,2.310546e-001
3.833954e+003,2.297550e-001
3.837811e+003,2.295441e-001
3.841668e+003,2.303039e-001
3.845525e+003,2.321273e-001
3.849382e+003,2.318642e-001
3.853239e+003,2.331627e-001
3.857096e+003,2.301910e-001
3.860953e+003,2.272035e-001
3.864810e+003,2.290092e-001
3.868667e+003,2.299281e-001
3.872524e+003,2.271044e-001
3.876382e+003,2.249992e-001
3.880239e+003,2.252368e-001
3.884096e+003,2.243612e-001
3.887953e+003,2.254304e-001
3.891810e+003,2.267156e-001
3.895667e+003,2.246564e-001
3.899524e+003,2.239633e-001
3.903381e+003,2.250347e-001
3.907238e+003,2.259373e-001
3.911095e+003,2.279630e-001
3.914953e+003,2.285528e-001
3.918810e+003,2.302578e-001
3.922667e+003,2.336784e-001
3.926524e+003,2.335019e-001
3.930381e+003,2.329770e-001
3.934238e+003,2.335926e-001
3.938095e+003,2.345389e-001
3.941952e+003,2.311857e-001
3.945809e+003,2.302843e-001
3.949667e+003,2.328650e-001
3.953523e+003,2.330726e-001
3.957381e+003,2.329474e-001
3.961238e+003,2.288478e-001
3.965095e+003,2.270007e-001
3.968952e+003,2.303770e-001
3.972809e+003,2.314097e-001
3.976666e+003,2.287978e-001
3.980523e+003,2.288953e-001
3.984380e+003,2.312079e-001
3.988237e+003,2.290050e-001
3.992094e+003,2.265485e-001
3.995952e+003,2.270164e-001
3.999809e+003,2.271186e-001
4.003666e+003,2.305146e-001
4.007523e+003,2.339084e-001
4.011380e+003,2.328171e-001
4.015237e+003,2.327257e-001
4.019094e+003,2.341664e-001
4.022951e+003,2.328189e-001
4.026808e+003,2.335107e-001
4.030666e+003,2.357210e-001
4.034522e+003,2.349036e-001
4.038380e+003,2.329357e-001
4.042237e+003,2.333997e-001
4.046094e+003,2.340191e-001
4.049951e+003,2.287951e-001
4.053808e+003,2.252746e-001
4.057665e+003,2.257497e-001
4.061522e+003,2.288658e-001
4.065379e+003,2.313985e-001
4.069236e+003,2.305495e-001
4.073094e+003,2.282316e-001
4.076951e+003,2.248760e-001
4.080808e+003,2.233880e-001
4.084665e+003,2.246031e-001
4.088522e+003,2.262937e-001
4.092379e+003,2.256897e-001
4.096236e+003,2.242141e-001
4.100093e+003,2.257631e-001
4.103950e+003,2.304234e-001
4.107808e+003,2.312955e-001
4.111665e+003,2.285665e-001
4.115521e+003,2.272429e-001
4.119379e+003,2.284002e-001
4.123236e+003,2.255302e-001
4.127093e+003,2.249484e-001
4.130950e+003,2.332832e-001
4.134807e+003,2.348739e-001
4.138664e+003,2.319353e-001
4.142521e+003,2.303642e-001
4.146378e+003,2.262931e-001
4.150235e+003,2.258093e-001
4.154093e+003,2.247042e-001
4.157950e+003,2.249707e-001
4.161807e+003,2.263399e-001
4.165664e+003,2.262831e-001
4.169521e+003,2.257466e-001
4.173378e+003,2.251651e-001
4.177235e+003,2.242866e-001
4.181092e+003,2.266526e-001
4.184949e+003,2.273610e-001
4.188807e+003,2.266658e-001
4.192664e+003,2.276193e-001
4.196521e+003,2.255299e-001
4.200378e+003,2.264850e-001
4.204235e+003,2.244463e-001
4.208092e+003,2.241230e-001
4.211949e+003,2.246666e-001
4.215806e+003,2.243361e-001
4.219663e+003,2.262961e-001
4.223521e+003,2.254819e-001
4.227377e+003,2.261573e-001
4.231234e+003,2.298813e-001
4.235092e+003,2.309625e-001
4.238949e+003,2.294881e-001
4.242806e+003,2.276772e-001
4.246663e+003,2.249376e-001
4.250520e+003,2.218755e-001
4.254377e+003,2.231230e-001
4.258234e+003,2.248702e-001
4.262091e+003,2.255149e-001
4.265948e+003,2.262014e-001
4.269806e+003,2.252451e-001
4.273663e+003,2.252589e-001
4.277520e+003,2.295575e-001
4.281377e+003,2.301577e-001
4.285234e+003,2.275241e-001
4.289091e+003,2.219951e-001
4.292948e+003,2.218782e-001
4.296805e+003,2.243887e-001
4.300662e+003,2.233307e-001
4.304520e+003,2.229296e-001
4.308376e+003,2.244836e-001
4.312233e+003,2.278824e-001
4.316091e+003,2.289772e-001
4.319948e+003,2.299596e-001
4.323805e+003,2.292218e-001
4.327662e+003,2.242976e-001
4.331519e+003,2.211283e-001
4.335376e+003,2.217009e-001
4.339233e+003,2.259715e-001
4.343090e+003,2.301294e-001
4.346947e+003,2.319623e-001
4.350805e+003,2.283715e-001
4.354662e+003,2.245526e-001
4.358519e+003,2.244480e-001
4.362376e+003,2.263841e-001
4.366233e+003,2.262633e-001
4.370090e+003,2.252469e-001
4.373947e+003,2.266470e-001
4.377804e+003,2.266403e-001
4.381661e+003,2.258079e-001
4.385519e+003,2.253018e-001
4.389375e+003,2.236050e-001
4.393232e+003,2.228835e-001
4.397090e+003,2.240110e-001
4.400947e+003,2.233376e-001
4.404804e+003,2.225760e-001
4.408661e+003,2.286391e-001
4.412518e+003,2.348190e-001
4.416375e+003,2.325307e-001
4.420232e+003,2.300752e-001
4.424089e+003,2.250084e-001
4.427946e+003,2.280335e-001
4.431804e+003,2.344944e-001
4.435661e+003,2.338011e-001
4.439518e+003,2.329442e-001
4.443375e+003,2.286826e-001
4.447232e+003,2.233089e-001
4.451089e+003,2.235878e-001
4.454946e+003,2.223256e-001
4.458803e+003,2.245861e-001
4.462660e+003,2.256187e-001
4.466518e+003,2.236305e-001
4.470375e+003,2.237401e-001
4.474231e+003,2.225198e-001
4.478089e+003,2.256396e-001
4.481946e+003,2.289637e-001
4.485803e+003,2.241898e-001
4.489660e+003,2.229714e-001
4.493517e+003,2.278919e-001
4.497375e+003,2.318059e-001
4.501231e+003,2.307307e-001
4.505088e+003,2.266190e-001
4.508946e+003,2.297320e-001
4.512803e+003,2.316099e-001
4.516660e+003,2.274383e-001
4.520517e+003,2.264293e-001
4.524374e+003,2.231686e-001
4.528231e+003,2.226889e-001
4.532088e+003,2.295220e-001
4.535945e+003,2.331687e-001
4.539802e+003,2.330894e-001
4.543660e+003,2.295520e-001
4.547517e+003,2.253412e-001
4.551374e+003,2.249895e-001
4.555231e+003,2.279139e-001
4.559088e+003,2.241324e-001
4.562945e+003,2.226789e-001
4.566802e+003,2.272057e-001
4.570659e+003,2.256329e-001
4.574516e+003,2.194270e-001
4.578374e+003,2.158568e-001
4.582230e+003,2.220968e-001
4.586087e+003,2.232769e-001
4.589945e+003,2.215116e-001
4.593802e+003,2.207194e-001
4.597659e+003,2.202190e-001
4.601516e+003,2.157783e-001
4.605373e+003,2.190617e-001
4.609230e+003,2.216662e-001
4.613087e+003,2.205570e-001
4.616944e+003,2.240909e-001
4.620801e+003,2.250834e-001
4.624659e+003,2.237582e-001
4.628516e+003,2.197714e-001
4.632373e+003,2.181583e-001
4.636230e+003,2.216178e-001
4.640087e+003,2.224051e-001
4.643944e+003,2.199582e-001
4.647801e+003,2.180945e-001
4.651658e+003,2.193350e-001
4.655515e+003,2.194653e-001
4.659373e+003,2.174569e-001
4.663229e+003,2.136296e-001
4.667086e+003,2.099406e-001
4.670944e+003,2.107523e-001
4.674801e+003,2.141793e-001
4.678658e+003,2.149068e-001
4.682515e+003,2.148104e-001
4.686372e+003,2.150674e-001
4.690229e+003,2.157379e-001
4.694086e+003,2.141738e-001
4.697943e+003,2.097758e-001
4.701800e+003,2.099663e-001
4.705658e+003,2.139365e-001
4.709515e+003,2.184948e-001
4.713372e+003,2.209980e-001
4.717229e+003,2.217359e-001
4.721086e+003,2.209613e-001
4.724943e+003,2.168741e-001
4.728800e+003,2.108709e-001
4.732657e+003,2.167803e-001
4.736514e+003,2.221218e-001
4.740372e+003,2.210688e-001
4.744229e+003,2.170395e-001
4.748085e+003,2.161047e-001
4.751943e+003,2.172125e-001
4.755800e+003,2.143899e-001
4.759657e+003,2.101820e-001
4.763514e+003,2.092295e-001
4.767371e+003,2.128453e-001
4.771228e+003,2.184298e-001
4.775085e+003,2.182053e-001
4.778942e+003,2.172290e-001
4.782799e+003,2.116925e-001
4.786657e+003,2.085324e-001
4.790514e+003,2.120579e-001
4.794371e+003,2.098094e-001
4.798228e+003,2.107654e-001
4.802085e+003,2.147110e-001
4.805942e+003,2.157137e-001
4.809799e+003,2.151412e-001
4.813656e+003,2.142436e-001
4.817513e+003,2.136613e-001
4.821371e+003,2.161789e-001
4.825228e+003,2.125009e-001
4.829084e+003,2.106187e-001
4.832942e+003,2.159715e-001
4.836799e+003,2.136890e-001
4.840656e+003,2.091723e-001
4.844513e+003,2.118470e-001
4.848370e+003,2.056803e-001
4.852227e+003,2.028968e-001
4.856084e+003,2.093519e-001
4.859941e+003,2.091371e-001
4.863798e+003,2.061854e-001
4.867656e+003,2.083159e-001
4.871513e+003,2.094436e-001
4.875370e+003,2.043842e-001
4.879227e+003,2.060342e-001
4.883084e+003,2.154093e-001
4.886941e+003,2.136897e-001
4.890798e+003,2.081617e-001
4.894655e+003,2.074365e-001
4.898512e+003,2.088236e-001
4.902370e+003,2.089728e-001
4.906227e+003,2.066177e-001
4.910083e+003,2.073728e-001
4.913941e+003,2.104160e-001
4.917798e+003,2.098700e-001
4.921655e+003,2.069384e-001
4.925512e+003,2.044719e-001
4.929369e+003,2.042601e-001
4.933226e+003,2.037771e-001
4.937083e+003,2.024118e-001
4.940940e+003,2.068119e-001
4.944797e+003,2.128318e-001
4.948655e+003,2.126762e-001
4.952512e+003,2.068636e-001
4.956369e+003,2.063701e-001
4.960226e+003,2.085469e-001
4.964083e+003,2.049097e-001
4.967940e+003,1.998100e-001
4.971797e+003,1.993700e-001
4.975654e+003,2.030932e-001
4.979511e+003,2.110728e-001
4.983369e+003,2.125279e-001
4.987226e+003,2.065010e-001
4.991083e+003,2.030701e-001
4.994940e+003,2.025796e-001
4.998797e+003,2.032144e-001
5.002654e+003,2.061150e-001
5.006511e+003,2.054712e-001
5.010368e+003,2.055299e-001
5.014225e+003,2.048220e-001
5.018083e+003,2.006418e-001
5.021939e+003,1.996398e-001
5.025796e+003,2.058743e-001
5.029654e+003,2.088027e-001
5.033511e+003,2.073856e-001
5.037368e+003,2.075393e-001
5.041225e+003,2.049082e-001
5.045082e+003,2.004848e-001
5.048939e+003,2.015553e-001
5.052796e+003,2.052917e-001
5.056653e+003,2.064638e-001
5.060510e+003,2.044337e-001
5.064368e+003,1.990201e-001
5.068225e+003,1.956238e-001
5.072082e+003,1.984901e-001
5.075939e+003,1.975496e-001
5.079796e+003,2.030974e-001
5.083653e+003,2.027196e-001
5.087510e+003,1.985716e-001
5.091367e+003,1.995043e-001
5.095224e+003,1.972266e-001
5.099082e+003,1.981972e-001
5.102938e+003,2.051733e-001
5.106795e+003,1.988579e-001
5.110653e+003,1.945491e-001
5.114510e+003,1.981807e-001
5.118367e+003,2.010664e-001
5.122224e+003,2.007079e-001
5.126081e+003,1.995215e-001
5.129938e+003,2.033281e-001
5.133795e+003,2.007053e-001
5.137652e+003,1.964315e-001
5.141509e+003,1.982165e-001
5.145367e+003,1.993280e-001
5.149224e+003,1.973254e-001
5.153081e+003,2.016695e-001
5.156938e+003,2.061595e-001
5.160795e+003,2.062639e-001
5.164652e+003,2.080650e-001
5.168509e+003,2.086275e-001
5.172366e+003,2.034076e-001
5.176223e+003,2.008742e-001
5.180081e+003,1.977719e-001
5.183938e+003,1.994292e-001
5.187794e+003,2.010726e-001
5.191652e+003,1.937496e-001
5.195509e+003,1.940840e-001
5.199366e+003,1.999758e-001
5.203223e+003,2.009390e-001
5.207080e+003,2.071022e-001
5.210937e+003,2.038937e-001
5.214794e+003,1.922335e-001
5.218651e+003,1.944411e-001
5.222508e+003,1.964135e-001
5.226366e+003,1.947129e-001
5.230223e+003,1.989788e-001
5.234080e+003,1.987709e-001
5.237937e+003,1.959644e-001
5.241794e+003,1.923403e-001
5.245651e+003,1.892723e-001
5.249508e+003,1.901268e-001
5.253365e+003,1.910515e-001
5.257222e+003,1.893351e-001
5.261080e+003,1.900091e-001
5.264937e+003,1.898002e-001
5.268793e+003,1.893505e-001
5.272651e+003,1.894698e-001
5.276508e+003,1.908064e-001
5.280365e+003,1.888668e-001
5.284222e+003,1.887537e-001
5.288079e+003,1.947480e-001
5.291936e+003,1.964102e-001
5.295793e+003,1.924846e-001
5.299650e+003,1.904487e-001
5.303507e+003,1.920587e-001
5.307365e+003,1.910700e-001
5.311222e+003,1.888031e-001
5.315079e+003,1.908744e-001
5.318936e+003,1.915421e-001
5.322793e+003,1.856953e-001
5.326650e+003,1.833487e-001
5.330507e+003,1.812647e-001
5.334364e+003,1.781534e-001
5.338221e+003,1.800596e-001
5.342079e+003,1.822348e-001
5.345936e+003,1.838831e-001
5.349792e+003,1.822902e-001
5.353650e+003,1.779716e-001
5.357507e+003,1.809630e-001
5.361364e+003,1.841616e-001
5.365221e+003,1.851200e-001
5.369078e+003,1.872099e-001
5.372935e+003,1.892741e-001
5.376792e+003,1.843595e-001
5.380649e+003,1.819559e-001
5.384506e+003,1.826721e-001
5.388364e+003,1.828376e-001
5.392221e+003,1.816842e-001
5.396078e+003,1.827627e-001
5.399935e+003,1.834816e-001
5.403792e+003,1.795462e-001
5.407649e+003,1.823471e-001
5.411506e+003,1.803141e-001
5.415363e+003,1.757232e-001
5.419220e+003,1.775515e-001
5.423078e+003,1.783634e-001
5.426935e+003,1.831605e-001
5.430792e+003,1.843365e-001
5.434649e+003,1.798533e-001
5.438506e+003,1.788121e-001
5.442363e+003,1.794787e-001
5.446220e+003,1.799974e-001
5.450077e+003,1.804756e-001
5.453934e+003,1.796540e-001
5.457792e+003,1.806005e-001
5.461648e+003,1.813582e-001
5.465505e+003,1.766120e-001
5.469363e+003,1.750796e-001
5.473220e+003,1.757551e-001
5.477077e+003,1.756009e-001
5.480934e+003,1.729315e-001
5.484791e+003,1.762272e-001
5.488648e+003,1.790754e-001
5.492505e+003,1.751542e-001
5.496362e+003,1.752498e-001
5.500219e+003,1.749960e-001
5.504077e+003,1.760433e-001
5.507934e+003,1.768900e-001
5.511791e+003,1.727178e-001
5.515648e+003,1.721631e-001
5.519505e+003,1.742547e-001
5.523362e+003,1.804020e-001
5.527219e+003,1.784519e-001
5.531076e+003,1.716509e-001
5.534933e+003,1.750936e-001
5.538791e+003,1.773651e-001
5.542647e+003,1.799300e-001
5.546504e+003,1.798895e-001
5.550362e+003,1.775752e-001
5.554219e+003,1.763346e-001
5.558076e+003,1.775385e-001
5.561933e+003,1.794791e-001
5.565790e+003,1.786503e-001
5.569647e+003,1.764508e-001
5.573504e+003,1.779822e-001
5.577361e+003,1.784873e-001
5.581218e+003,1.747335e-001
5.585076e+003,1.772088e-001
5.588933e+003,1.787874e-001
5.592790e+003,1.721086e-001
5.596647e+003,1.727749e-001
5.600504e+003,1.746867e-001
5.604361e+003,1.728752e-001
5.608218e+003,1.711350e-001
5.612075e+003,1.743702e-001
5.615932e+003,1.788539e-001
5.619790e+003,1.745315e-001
5.623646e+003,1.768112e-001
5.627503e+003,1.801292e-001
5.631361e+003,1.809200e-001
5.635218e+003,1.761424e-001
5.639075e+003,1.758298e-001
5.642932e+003,1.845775e-001
5.646789e+003,1.827693e-001
5.650646e+003,1.741963e-001
5.654503e+003,1.711733e-001
5.658360e+003,1.718148e-001
5.662217e+003,1.760018e-001
5.666075e+003,1.737411e-001
5.669932e+003,1.698099e-001
5.673789e+003,1.695420e-001
5.677646e+003,1.710437e-001
5.681503e+003,1.786645e-001
5.685360e+003,1.800678e-001
5.689217e+003,1.746188e-001
5.693074e+003,1.726875e-001
5.696931e+003,1.718328e-001
5.700789e+003,1.781274e-001
5.704646e+003,1.801607e-001
5.708502e+003,1.714593e-001
5.712360e+003,1.696092e-001
5.716217e+003,1.723879e-001
5.720074e+003,1.710454e-001
5.723931e+003,1.715780e-001
5.727788e+003,1.738058e-001
5.731645e+003,1.700708e-001
5.735502e+003,1.671048e-001
5.739359e+003,1.709180e-001
5.743216e+003,1.724346e-001
5.747074e+003,1.695812e-001
5.750931e+003,1.702362e-001
5.754788e+003,1.704847e-001
5.758645e+003,1.715343e-001
5.762502e+003,1.704912e-001
5.766359e+003,1.682365e-001
5.770216e+003,1.712522e-001
5.774073e+003,1.736552e-001
5.777930e+003,1.732424e-001
5.781788e+003,1.712549e-001
5.785645e+003,1.707991e-001
5.789501e+003,1.720445e-001
5.793359e+003,1.721323e-001
5.797216e+003,1.760430e-001
5.801073e+003,1.836340e-001
5.804930e+003,1.851842e-001
5.808787e+003,1.853618e-001
5.812644e+003,1.736682e-001
5.816501e+003,1.628232e-001
5.820358e+003,1.601613e-001
5.824215e+003,1.604836e-001
5.828073e+003,1.678923e-001
5.831930e+003,1.764134e-001
5.835787e+003,1.749716e-001
5.839644e+003,1.743944e-001
5.843501e+003,1.737620e-001
5.847358e+003,1.755540e-001
5.851215e+003,1.802423e-001
5.855072e+003,1.804477e-001
5.858929e+003,1.741756e-001
5.862787e+003,1.720891e-001
5.866644e+003,1.732727e-001
5.870500e+003,1.679012e-001
5.874358e+003,1.659881e-001
5.878215e+003,1.677612e-001
5.882072e+003,1.647793e-001
5.885929e+003,1.636761e-001
5.889786e+003,1.722407e-001
5.893643e+003,1.756807e-001
5.897500e+003,1.663309e-001
5.901357e+003,1.647358e-001
5.905214e+003,1.706187e-001
5.909072e+003,1.753166e-001
5.912929e+003,1.726781e-001
5.916786e+003,1.715931e-001
5.920643e+003,1.753512e-001
5.924500e+003,1.781175e-001
5.928357e+003,1.753320e-001
5.932214e+003,1.717995e-001
5.936071e+003,1.730908e-001
5.939928e+003,1.725541e-001
5.943786e+003,1.746661e-001
5.947643e+003,1.676084e-001
5.951500e+003,1.613082e-001
5.955357e+003,1.667625e-001
5.959214e+003,1.675145e-001
5.963071e+003,1.599105e-001
5.966928e+003,1.596095e-001
5.970785e+003,1.749025e-001
5.974642e+003,1.760915e-001
5.978500e+003,1.694739e-001
5.982356e+003,1.615640e-001
5.986213e+003,1.592075e-001
5.990071e+003,1.616563e-001
5.993928e+003,1.664379e-001
5.997785e+003,1.750170e-001
6.001642e+003,1.722746e-001
6.005499e+003,1.694187e-001
6.009356e+003,1.754817e-001
6.013213e+003,1.679998e-001
6.017070e+003,1.649800e-001
6.020927e+003,1.723485e-001
6.024785e+003,1.764055e-001
6.028642e+003,1.783204e-001
6.032499e+003,1.806810e-001
6.036356e+003,1.779435e-001
6.040213e+003,1.736290e-001
6.044070e+003,1.745928e-001
6.047927e+003,1.773747e-001
6.051784e+003,1.798589e-001
6.055641e+003,1.743477e-001
6.059499e+003,1.722064e-001
6.063355e+003,1.753731e-001
6.067212e+003,1.693973e-001
6.071070e+003,1.596597e-001
6.074927e+003,1.699121e-001
6.078784e+003,1.818482e-001
6.082641e+003,1.842151e-001
6.086498e+003,1.811130e-001
6.090355e+003,1.800691e-001
6.094212e+003,1.720297e-001
6.098069e+003,1.711558e-001
6.101926e+003,1.692611e-001
6.105784e+003,1.685437e-001
6.109641e+003,1.711822e-001
6.113498e+003,1.671408e-001
6.117355e+003,1.687976e-001
6.121212e+003,1.765659e-001
6.125069e+003,1.807877e-001
6.128926e+003,1.785854e-001
6.132783e+003,1.780819e-001
6.136640e+003,1.809675e-001
6.140498e+003,1.785491e-001
6.144354e+003,1.723899e-001
6.148211e+003,1.703193e-001
6.152069e+003,1.668111e-001
6.155926e+003,1.685892e-001
6.159783e+003,1.815647e-001
6.163640e+003,1.780577e-001
6.167497e+003,1.744985e-001
6.171354e+003,1.858457e-001
6.175211e+003,1.846232e-001
6.179068e+003,1.747847e-001
6.182925e+003,1.757139e-001
6.186783e+003,1.791209e-001
6.190640e+003,1.803712e-001
6.194497e+003,1.806575e-001
6.198354e+003,1.747759e-001
6.202211e+003,1.771421e-001
6.206068e+003,1.826714e-001
6.209925e+003,1.808658e-001
6.213782e+003,1.836118e-001
6.217639e+003,1.798699e-001
6.221497e+003,1.723175e-001
6.225354e+003,1.727280e-001
6.229210e+003,1.779323e-001
6.233068e+003,1.842677e-001
6.236925e+003,1.853523e-001
6.240782e+003,1.863055e-001
6.244639e+003,1.834211e-001
6.248496e+003,1.755045e-001
6.252353e+003,1.790254e-001
6.256210e+003,1.796586e-001
6.260067e+003,1.863863e-001
6.263924e+003,1.904098e-001
6.267782e+003,1.861586e-001
6.271639e+003,1.849113e-001
6.275496e+003,1.889986e-001
6.279353e+003,1.880572e-001
6.283210e+003,1.857146e-001
6.287067e+003,1.855637e-001
6.290924e+003,1.852131e-001
6.294781e+003,1.841362e-001
6.298638e+003,1.924253e-001
6.302496e+003,1.985521e-001
6.306353e+003,1.952818e-001
6.310209e+003,1.864488e-001
6.314067e+003,1.854119e-001
6.317924e+003,1.889609e-001
6.321781e+003,1.846073e-001
6.325638e+003,1.854429e-001
6.329495e+003,1.808028e-001
6.333352e+003,1.903212e-001
6.337209e+003,1.957153e-001
6.341066e+003,1.953606e-001
6.344923e+003,2.022249e-001
6.348780e+003,2.072554e-001
6.352638e+003,2.060513e-001
6.356495e+003,1.983613e-001
6.360352e+003,1.915148e-001
6.364209e+003,1.825287e-001
6.368066e+003,1.743842e-001
6.371923e+003,1.726993e-001
6.375780e+003,1.780117e-001
6.379637e+003,1.764614e-001
6.383494e+003,1.735944e-001
6.387352e+003,1.818841e-001
6.391208e+003,1.821097e-001
6.395065e+003,1.789115e-001
6.398923e+003,1.888034e-001
6.402780e+003,1.975700e-001
6.406637e+003,1.968673e-001
6.410494e+003,1.907262e-001
6.414351e+003,1.930765e-001
6.418208e+003,1.962339e-001
6.422065e+003,1.928951e-001
6.425922e+003,1.907770e-001
6.429779e+003,1.911065e-001
6.433637e+003,1.911637e-001
6.437494e+003,1.835379e-001
6.441351e+003,1.832717e-001
6.445208e+003,1.886594e-001
6.449065e+003,1.807931e-001
6.452922e+003,1.910703e-001
6.456779e+003,2.075834e-001
6.460636e+003,2.003711e-001
6.464493e+003,1.929303e-001
6.468351e+003,1.955082e-001
6.472208e+003,1.858991e-001
6.476064e+003,1.852861e-001
6.479922e+003,1.961323e-001
6.483779e+003,1.977145e-001
6.487636e+003,1.976179e-001
6.491493e+003,1.953063e-001
6.495350e+003,1.884189e-001
6.499207e+003,1.849242e-001
6.503064e+003,1.923697e-001
6.506921e+003,1.933149e-001
6.510778e+003,1.998870e-001
6.514636e+003,2.067423e-001
6.518493e+003,2.022932e-001
6.522350e+003,1.939869e-001
6.526207e+003,2.017990e-001
6.530064e+003,2.109814e-001
6.533921e+003,2.144120e-001
6.537778e+003,2.048873e-001
6.541635e+003,2.014264e-001
6.545492e+003,2.025358e-001
6.549350e+003,2.015736e-001
6.553207e+003,2.086458e-001
6.557063e+003,2.195184e-001
6.560921e+003,2.235138e-001
6.564778e+003,2.109183e-001
6.568635e+003,1.966459e-001
6.572492e+003,1.994135e-001
6.576349e+003,2.084582e-001
6.580206e+003,1.988088e-001
6.584063e+003,1.922689e-001
6.587920e+003,1.920915e-001
6.591777e+003,1.947433e-001
6.595635e+003,1.800790e-001
6.599492e+003,1.782698e-001
6.603349e+003,1.929004e-001
6.607206e+003,1.907032e-001
6.611063e+003,1.938256e-001
6.614920e+003,2.039181e-001
6.618777e+003,2.155042e-001
6.622634e+003,2.188988e-001
6.626491e+003,2.243910e-001
6.630349e+003,2.120703e-001
6.634206e+003,1.944618e-001
6.638063e+003,1.942845e-001
6.641920e+003,2.021284e-001
6.645777e+003,1.985291e-001
6.649634e+003,1.906679e-001
6.653491e+003,1.930476e-001
6.657348e+003,2.062441e-001
6.661205e+003,2.003884e-001
6.665063e+003,1.970064e-001
6.668919e+003,2.069360e-001
6.672776e+003,2.008203e-001
6.676634e+003,1.950929e-001
6.680491e+003,2.025551e-001
6.684348e+003,2.123697e-001
6.688205e+003,2.100693e-001
6.692062e+003,2.126183e-001
6.695919e+003,2.152693e-001
6.699776e+003,2.294661e-001
6.703633e+003,2.265065e-001
6.707490e+003,2.096226e-001
6.711348e+003,2.152673e-001
6.715205e+003,2.196563e-001
6.719062e+003,2.058785e-001
6.722919e+003,2.022164e-001
6.726776e+003,2.087461e-001
6.730633e+003,2.192035e-001
6.734490e+003,2.308485e-001
6.738347e+003,2.318716e-001
6.742204e+003,2.327533e-001
6.746062e+003,2.291704e-001
6.749918e+003,2.247777e-001
6.753775e+003,2.101735e-001
6.757633e+003,2.048501e-001
6.761490e+003,2.105088e-001
6.765347e+003,2.016591e-001
6.769204e+003,1.824973e-001
6.773061e+003,1.943637e-001
6.776918e+003,2.089115e-001
6.780775e+003,2.113260e-001
6.784632e+003,2.255153e-001
6.788489e+003,2.341228e-001
6.792347e+003,2.147714e-001
6.796204e+003,1.915710e-001
6.800061e+003,1.863204e-001
6.803918e+003,1.945061e-001
6.807775e+003,1.989199e-001
6.811632e+003,2.041165e-001
6.815489e+003,2.086603e-001
6.819346e+003,2.221543e-001
6.823203e+003,2.503571e-001
6.827061e+003,2.529985e-001
6.830917e+003,2.402713e-001
6.834774e+003,2.387579e-001
6.838632e+003,2.336158e-001
6.842489e+003,2.303104e-001
6.846346e+003,2.384168e-001
6.850203e+003,2.519242e-001
6.854060e+003,2.563034e-001
6.857917e+003,2.485603e-001
6.861774e+003,2.334606e-001
6.865631e+003,2.181409e-001
6.869488e+003,2.261345e-001
6.873346e+003,2.318712e-001
6.877203e+003,2.394909e-001
6.881060e+003,2.244036e-001
6.884917e+003,2.081069e-001
6.888774e+003,2.116077e-001
6.892631e+003,2.086436e-001
6.896488e+003,2.232667e-001
6.900345e+003,2.546173e-001
6.904202e+003,2.445225e-001
6.908060e+003,2.369056e-001
6.911917e+003,2.211042e-001
6.915773e+003,2.132475e-001
6.919631e+003,2.200454e-001
6.923488e+003,2.126987e-001
6.927345e+003,2.136364e-001
6.931202e+003,2.339251e-001
6.935059e+003,2.645883e-001
6.938916e+003,2.613287e-001
6.942773e+003,2.353868e-001
6.946630e+003,2.274661e-001
6.950487e+003,2.436474e-001
6.954345e+003,2.637532e-001
6.958202e+003,2.525374e-001
6.962059e+003,2.378792e-001
6.965916e+003,2.330441e-001
6.969773e+003,2.253045e-001
6.973630e+003,2.201937e-001
6.977487e+003,2.102891e-001
6.981344e+003,2.186286e-001
6.985201e+003,2.241126e-001
6.989059e+003,2.264362e-001
6.992916e+003,2.275900e-001
6.996772e+003,2.346713e-001
7.000630e+003,2.337480e-001
7.004487e+003,2.254968e-001
7.008344e+003,2.359842e-001
7.012201e+003,2.316616e-001
7.016058e+003,2.230415e-001
7.019915e+003,2.570361e-001
7.023772e+003,2.755301e-001
7.027629e+003,2.558125e-001
7.031486e+003,2.315779e-001
7.035344e+003,2.271451e-001
7.039201e+003,2.262539e-001
7.043058e+003,2.241220e-001
7.046915e+003,2.439541e-001
7.050772e+003,2.500677e-001
7.054629e+003,2.342121e-001
7.058486e+003,2.226470e-001
7.062343e+003,2.203277e-001
7.066200e+003,2.168676e-001
7.070058e+003,2.151624e-001
7.073915e+003,2.351807e-001
7.077771e+003,2.340119e-001
7.081629e+003,2.105631e-001
7.085486e+003,2.049331e-001
7.089343e+003,2.054738e-001
7.093200e+003,2.078457e-001
7.097057e+003,2.130182e-001
7.100914e+003,2.121237e-001
7.104771e+003,2.210860e-001
7.108628e+003,2.355244e-001
7.112485e+003,2.191056e-001
7.116343e+003,2.207964e-001
7.120200e+003,2.321962e-001
7.124057e+003,2.325773e-001
7.127914e+003,2.401996e-001
7.131771e+003,2.394258e-001
7.135628e+003,2.482254e-001
7.139485e+003,2.582799e-001
7.143342e+003,2.551894e-001
7.147199e+003,2.614150e-001
7.151057e+003,2.366546e-001
7.154914e+003,2.150954e-001
7.158771e+003,2.175364e-001
7.162628e+003,2.179598e-001
7.166485e+003,2.213231e-001
7.170342e+003,2.138993e-001
7.174199e+003,2.318624e-001
7.178056e+003,2.636067e-001
7.181913e+003,2.501794e-001
7.185771e+003,2.319867e-001
7.189627e+003,2.208030e-001
7.193484e+003,2.180025e-001
7.197342e+003,2.185638e-001
7.201199e+003,2.199445e-001
7.205056e+003,2.180202e-001
7.208913e+003,2.260755e-001
7.212770e+003,2.253889e-001
7.216627e+003,2.026425e-001
7.220484e+003,2.162205e-001
7.224341e+003,2.181783e-001
7.228198e+003,2.144540e-001
7.232056e+003,2.118426e-001
7.235913e+003,2.172309e-001
7.239770e+003,2.489969e-001
7.243627e+003,2.578828e-001
7.247484e+003,2.252185e-001
7.251341e+003,2.200661e-001
7.255198e+003,2.391251e-001
7.259055e+003,2.578112e-001
7.262912e+003,2.433330e-001
7.266770e+003,2.192421e-001
7.270626e+003,1.996018e-001
7.274483e+003,2.203755e-001
7.278341e+003,2.558791e-001
7.282198e+003,2.574584e-001
7.286055e+003,2.376354e-001
7.289912e+003,2.452385e-001
7.293769e+003,2.457668e-001
7.297626e+003,2.213600e-001
7.301483e+003,2.041875e-001
7.305340e+003,1.872274e-001
7.309197e+003,1.977152e-001
7.313055e+003,2.470881e-001
7.316912e+003,2.747720e-001
7.320769e+003,2.612065e-001
7.324626e+003,2.363536e-001
7.328483e+003,2.296692e-001
7.332340e+003,2.359163e-001
7.336197e+003,2.493294e-001
7.340054e+003,2.610796e-001
7.343911e+003,2.583362e-001
7.347769e+003,2.394229e-001
7.351625e+003,2.197502e-001
7.355482e+003,1.960378e-001
7.359340e+003,1.803561e-001
7.363197e+003,2.238009e-001
7.367054e+003,2.740528e-001
7.370911e+003,2.461955e-001
7.374768e+003,2.297527e-001
7.378625e+003,2.367967e-001
7.382482e+003,2.240188e-001
7.386339e+003,2.263627e-001
7.390196e+003,2.268064e-001
7.394054e+003,2.188745e-001
7.397911e+003,2.232603e-001
7.401768e+003,2.115042e-001
7.405625e+003,2.063103e-001
7.409482e+003,2.091572e-001
7.413339e+003,2.388706e-001
7.417196e+003,2.354491e-001
7.421053e+003,1.918309e-001
7.424910e+003,1.911358e-001
7.428768e+003,2.035428e-001
7.432625e+003,2.168830e-001
7.436481e+003,2.382343e-001
7.440339e+003,2.455549e-001
7.444196e+003,2.133236e-001
7.448053e+003,1.819926e-001
7.451910e+003,1.845717e-001
7.455767e+003,2.154422e-001
7.459624e+003,2.416273e-001
7.463481e+003,2.264006e-001
7.467338e+003,1.921799e-001
7.471195e+003,2.005015e-001
7.475053e+003,2.087447e-001
7.478910e+003,2.001510e-001
7.482767e+003,1.958597e-001
7.486624e+003,1.991176e-001
7.490481e+003,2.185422e-001
7.494338e+003,2.263143e-001
7.498195e+003,1.593022e-001
7.502052e+003,1.564851e-001
7.505909e+003,2.013271e-001
7.509767e+003,2.010283e-001
7.513624e+003,2.346495e-001
7.517480e+003,2.266280e-001
7.521338e+003,2.056688e-001
7.525195e+003,2.219146e-001
7.529052e+003,2.200603e-001
7.532909e+003,2.087724e-001
7.536766e+003,1.921627e-001
7.540623e+003,1.895149e-001
7.544480e+003,2.019315e-001
7.548337e+003,2.028451e-001
7.552194e+003,2.478849e-001
7.556052e+003,2.621006e-001
7.559909e+003,2.524491e-001
7.563766e+003,2.312706e-001
7.567623e+003,2.055922e-001
7.571480e+003,1.978907e-001
7.575337e+003,1.810586e-001
7.579194e+003,1.684598e-001
7.583051e+003,1.870240e-001
7.586908e+003,1.899936e-001
7.590766e+003,1.956427e-001
7.594623e+003,2.140621e-001
7.598479e+003,2.517647e-001
7.602337e+003,2.415238e-001
7.606194e+003,2.084065e-001
7.610051e+003,2.263001e-001
7.613908e+003,2.562153e-001
7.617765e+003,2.512893e-001
7.621622e+003,2.205836e-001
7.625479e+003,2.139865e-001
7.629336e+003,1.910952e-001
7.633193e+003,1.868653e-001
7.637051e+003,2.029493e-001
7.640908e+003,2.132076e-001
7.644765e+003,2.268637e-001
7.648622e+003,2.266460e-001
7.652479e+003,2.214578e-001
7.656336e+003,2.353742e-001
7.660193e+003,2.006671e-001
7.664050e+003,1.867266e-001
7.667907e+003,1.721145e-001
7.671765e+003,1.707522e-001
7.675622e+003,1.542608e-001
7.679479e+003,1.541676e-001
7.683336e+003,1.747855e-001
7.687193e+003,1.768463e-001
7.691050e+003,1.316171e-001
7.694907e+003,1.593012e-001
7.698764e+003,2.303685e-001
7.702621e+003,2.370460e-001
7.706479e+003,2.672213e-001
7.710335e+003,2.894183e-001
7.714192e+003,2.162544e-001
7.718050e+003,1.836063e-001
7.721907e+003,1.761154e-001
7.725764e+003,2.375498e-001
7.729621e+003,2.377928e-001
7.733478e+003,1.886339e-001
7.737335e+003,1.910546e-001
7.741192e+003,1.736662e-001
7.745049e+003,2.151247e-001
7.748906e+003,2.184606e-001
7.752764e+003,1.802151e-001
7.756621e+003,1.877427e-001
7.760478e+003,2.190716e-001
7.764335e+003,2.471567e-001
7.768192e+003,2.429089e-001
7.772049e+003,2.696046e-001
7.775906e+003,2.713628e-001
7.779763e+003,2.615693e-001
7.783620e+003,2.184495e-001
7.787478e+003,1.974080e-001
7.791334e+003,2.123186e-001
7.795191e+003,1.926202e-001
7.799049e+003,1.590137e-001
7.802906e+003,1.828732e-001
7.806763e+003,1.776301e-001
7.810620e+003,1.920185e-001
7.814477e+003,2.347006e-001
7.818334e+003,2.270605e-001
7.822191e+003,2.487849e-001
7.826048e+003,1.877248e-001
7.829905e+003,2.051519e-001
7.833763e+003,2.857239e-001
7.837620e+003,2.960635e-001
7.841477e+003,1.982121e-001
7.845334e+003,1.537456e-001
7.849191e+003,1.717267e-001
7.853048e+003,2.160268e-001
7.856905e+003,2.696106e-001
7.860762e+003,2.486301e-001
7.864619e+003,1.705023e-001
7.868477e+003,1.453482e-001
7.872333e+003,2.046290e-001
7.876190e+003,2.364962e-001
7.880048e+003,2.428458e-001
7.883905e+003,2.116364e-001
7.887762e+003,1.832988e-001
7.891619e+003,1.771360e-001
7.895476e+003,1.350548e-001
7.899333e+003,1.563466e-001
7.903190e+003,1.839735e-001
7.907047e+003,2.096920e-001
7.910904e+003,2.587515e-001
7.914762e+003,2.389893e-001
7.918619e+003,1.353281e-001
7.922476e+003,7.695632e-002
7.926333e+003,8.726089e-002
7.930190e+003,1.724313e-001
7.934047e+003,2.064196e-001
7.937904e+003,1.670955e-001
7.941761e+003,1.520516e-001
7.945618e+003,1.972700e-001
7.949476e+003,2.217228e-001
7.953333e+003,1.658088e-001
7.957189e+003,1.333701e-001
7.961047e+003,1.718219e-001
7.964904e+003,2.030473e-001
7.968761e+003,2.160750e-001
7.972618e+003,2.209126e-001
7.976475e+003,3.139248e-001
7.980332e+003,2.592482e-001
7.984189e+003,1.243682e-001
7.988046e+003,1.211473e-001
7.991903e+003,1.092514e-001
7.995761e+003,1.243569e-001
7.999618e+003,1.956677e-001
