4.011380e+002,4.118322e-001
4.049951e+002,6.000000e+000
4.088522e+002,-3.429691e-001
4.127093e+002,-9.969198e-002
4.165664e+002,5.007062e-001
4.204235e+002,6.000000e+000
4.242806e+002,1.806016e-001
4.281377e+002,6.000000e+000
4.319948e+002,9.856892e-002
4.358519e+002,6.000000e+000
4.397090e+002,6.000000e+000
4.435661e+002,6.000000e+000
4.474232e+002,6.000000e+000
4.512803e+002,6.000000e+000
4.551374e+002,6.000000e+000
4.589945e+002,6.000000e+000
4.628516e+002,1.207480e-001
4.667087e+002,-7.419556e-002
4.705658e+002,6.000000e+000
4.744229e+002,4.209965e-001
4.782800e+002,4.213921e-001
4.821371e+002,3.602489e-001
4.859941e+002,-1.414957e-002
4.898513e+002,6.000000e+000
4.937083e+002,-5.006716e-001
4.975654e+002,-2.119290e-001
5.014225e+002,6.000000e+000
5.052796e+002,6.000000e+000
5.091367e+002,-1.118899e-001
5.129938e+002,-4.958381e-001
5.168509e+002,6.000000e+000
5.207080e+002,6.000000e+000
5.245651e+002,6.000000e+000
5.284222e+002,6.000000e+000
5.322793e+002,1.326413e-001
5.361364e+002,6.000000e+000
5.399935e+002,-1.499640e-002
5.438506e+002,3.706689e-001
5.477077e+002,2.387987e-001
5.515648e+002,1.310770e-002
5.554219e+002,4.526722e-001
5.592790e+002,3.851105e-001
5.631361e+002,6.000000e+000
5.669932e+002,6.000000e+000
5.708503e+002,6.000000e+000
5.747074e+002,6.000000e+000
5.785645e+002,6.000000e+000
5.824216e+002,-3.596145e-002
5.862787e+002,6.000000e+000
5.901357e+002,6.000000e+000
5.939929e+002,2.612351e-002
5.978499e+002,6.000000e+000
6.017070e+002,7.987717e-002
6.055641e+002,-4.760204e-001
6.094212e+002,-4.730467e-001
6.132783e+002,-3.765273e-001
6.171354e+002,1.096545e-001
6.209925e+002,9.435870e-002
6.248496e+002,-3.579800e-001
6.287067e+002,1.549206e-001
6.325638e+002,6.000000e+000
6.364209e+002,-1.139482e-001
6.402780e+002,-3.815689e-001
6.441351e+002,3.794810e-001
6.479922e+002,6.000000e+000
6.518493e+002,6.000000e+000
6.557064e+002,1.163643e+000
6.595635e+002,-4.609155e-001
6.634205e+002,6.000000e+000
6.672777e+002,1.120028e-001
6.711348e+002,6.000000e+000
6.749918e+002,5.984200e-001
6.788490e+002,6.000000e+000
6.827061e+002,6.000000e+000
6.865631e+002,-5.755934e-001
6.904203e+002,-2.736409e-001
6.942773e+002,6.000000e+000
6.981344e+002,6.000000e+000
7.019916e+002,-7.166034e-001
7.058486e+002,8.593043e-003
7.097057e+002,2.854685e-001
7.135629e+002,8.493668e-001
7.174199e+002,6.000000e+000
7.212770e+002,6.000000e+000
7.251342e+002,6.000000e+000
7.289912e+002,6.000000e+000
7.328483e+002,-5.327845e-001
7.367054e+002,-7.107611e-001
7.405625e+002,6.000000e+000
7.444196e+002,6.000000e+000
7.482767e+002,6.000000e+000
7.521338e+002,6.000000e+000
7.559908e+002,6.000000e+000
7.598480e+002,1.252490e+000
7.637051e+002,6.000000e+000
7.675621e+002,6.000000e+000
7.714193e+002,-3.119737e-001
7.752764e+002,6.000000e+000
7.791334e+002,7.788959e-001
7.829905e+002,6.000000e+000
7.868477e+002,-7.060996e-001
7.907047e+002,6.000000e+000
7.945618e+002,6.000000e+000
7.984189e+002,6.000000e+000
8.022760e+002,6.000000e+000
8.061331e+002,1.078675e-001
8.099902e+002,3.224773e-001
8.138473e+002,9.958227e-001
8.177044e+002,6.000000e+000
8.215615e+002,9.578705e-001
8.254186e+002,6.000000e+000
8.292757e+002,6.000000e+000
8.331328e+002,6.000000e+000
8.369899e+002,6.000000e+000
8.408470e+002,2.047292e+000
8.447041e+002,1.397846e+000
8.485612e+002,2.307978e+000
8.524183e+002,2.005557e+000
8.562754e+002,1.660559e+000
8.601324e+002,6.000000e+000
8.639896e+002,6.000000e+000
8.678467e+002,2.550778e+000
8.717037e+002,1.101141e+000
8.755609e+002,1.331430e+000
8.794180e+002,2.018116e+000
8.832750e+002,6.000000e+000
8.871321e+002,2.399100e+000
8.909893e+002,1.821952e+000
8.948463e+002,1.920536e+000
8.987034e+002,6.000000e+000
9.025605e+002,6.000000e+000
9.064176e+002,2.782094e+000
9.102747e+002,6.000000e+000
9.141318e+002,6.000000e+000
9.179889e+002,3.035499e+000
9.218461e+002,2.212104e+000
9.257031e+002,6.000000e+000
9.295602e+002,6.000000e+000
9.334174e+002,6.000000e+000
9.372744e+002,6.000000e+000
9.411315e+002,6.000000e+000
9.449886e+002,6.000000e+000
9.488457e+002,2.111341e+000
9.527028e+002,1.755743e+000
9.565599e+002,1.929297e+000
9.604170e+002,2.222142e+000
9.642740e+002,2.008938e+000
9.681312e+002,2.300696e+000
9.719883e+002,6.000000e+000
9.758453e+002,6.000000e+000
9.797025e+002,6.000000e+000
9.835596e+002,6.000000e+000
9.874166e+002,3.037275e+000
9.912738e+002,2.879846e+000
9.951309e+002,6.000000e+000
9.989879e+002,6.000000e+000
1.002845e+003,6.000000e+000
1.006702e+003,6.000000e+000
1.010559e+003,6.000000e+000
1.014416e+003,6.000000e+000
1.018273e+003,2.243813e+000
1.022130e+003,2.074036e+000
1.025988e+003,2.239947e+000
1.029845e+003,1.994993e+000
1.033702e+003,1.871740e+000
1.037559e+003,1.976237e+000
1.041416e+003,1.829394e+000
1.045273e+003,1.852121e+000
1.049130e+003,1.949886e+000
1.052987e+003,1.877314e+000
1.056844e+003,1.911003e+000
1.060702e+003,1.896128e+000
1.064559e+003,1.894328e+000
1.068416e+003,1.828765e+000
1.072273e+003,1.831586e+000
1.076130e+003,1.781521e+000
1.079987e+003,1.683382e+000
1.083844e+003,1.619627e+000
1.087701e+003,1.638660e+000
1.091558e+003,1.709176e+000
1.095415e+003,1.776016e+000
1.099272e+003,1.613949e+000
1.103130e+003,1.519724e+000
1.106987e+003,1.545225e+000
1.110844e+003,1.530421e+000
1.114701e+003,1.543636e+000
1.118558e+003,1.516994e+000
1.122415e+003,1.544117e+000
1.126272e+003,1.604591e+000
1.130129e+003,1.484748e+000
1.133986e+003,1.412280e+000
1.137843e+003,1.447744e+000
1.141701e+003,1.469249e+000
1.145558e+003,1.456251e+000
1.149415e+003,1.457934e+000
1.153272e+003,1.464016e+000
1.157129e+003,1.427238e+000
1.160986e+003,1.417956e+000
1.164843e+003,1.419347e+000
1.168700e+003,1.419445e+000
1.172557e+003,1.395402e+000
1.176414e+003,1.402158e+000
1.180271e+003,1.400458e+000
1.184129e+003,1.370421e+000
1.187986e+003,1.380838e+000
1.191843e+003,1.423403e+000
1.195700e+003,1.434901e+000
1.199557e+003,1.392271e+000
1.203414e+003,1.336433e+000
1.207271e+003,1.353466e+000
1.211128e+003,1.352355e+000
1.214985e+003,1.306713e+000
1.218842e+003,1.272886e+000
1.222699e+003,1.217245e+000
1.226557e+003,1.134666e+000
1.230414e+003,1.062892e+000
1.234271e+003,1.010483e+000
1.238128e+003,9.651482e-001
1.241985e+003,9.101257e-001
1.245842e+003,8.476447e-001
1.249699e+003,8.112271e-001
1.253556e+003,7.845149e-001
1.257413e+003,7.510653e-001
1.261271e+003,7.212293e-001
1.265128e+003,6.971638e-001
1.268985e+003,6.791137e-001
1.272842e+003,6.640386e-001
1.276699e+003,6.491221e-001
1.280556e+003,6.332937e-001
1.284413e+003,6.190940e-001
1.288270e+003,6.058778e-001
1.292127e+003,5.897952e-001
1.295984e+003,5.797338e-001
1.299841e+003,5.695073e-001
1.303698e+003,5.588294e-001
1.307556e+003,5.490753e-001
1.311413e+003,5.400392e-001
1.315270e+003,5.338898e-001
1.319127e+003,5.299510e-001
1.322984e+003,5.201302e-001
1.326841e+003,5.103754e-001
1.330698e+003,5.064964e-001
1.334555e+003,4.998091e-001
1.338412e+003,4.940512e-001
1.342270e+003,4.890490e-001
1.346127e+003,4.919307e-001
1.349984e+003,4.944583e-001
1.353841e+003,4.951312e-001
1.357698e+003,4.980569e-001
1.361555e+003,5.006683e-001
1.365412e+003,5.039498e-001
1.369269e+003,5.145317e-001
1.373126e+003,5.195869e-001
1.376983e+003,5.241174e-001
1.380840e+003,5.394056e-001
1.384698e+003,5.554622e-001
1.388555e+003,5.665648e-001
1.392412e+003,5.808118e-001
1.396269e+003,5.993453e-001
1.400126e+003,6.207778e-001
1.403983e+003,6.383175e-001
1.407840e+003,6.573710e-001
1.411697e+003,6.735495e-001
1.415554e+003,6.785666e-001
1.419411e+003,6.917518e-001
1.423269e+003,7.104384e-001
1.427126e+003,7.180143e-001
1.430983e+003,7.195564e-001
1.434840e+003,7.160368e-001
1.438697e+003,7.077168e-001
1.442554e+003,6.984476e-001
1.446411e+003,6.898737e-001
1.450268e+003,6.837016e-001
1.454125e+003,6.758652e-001
1.457982e+003,6.645381e-001
1.461839e+003,6.545814e-001
1.465697e+003,6.487947e-001
1.469554e+003,6.522366e-001
1.473411e+003,6.514660e-001
1.477268e+003,6.555033e-001
1.481125e+003,6.710188e-001
1.484982e+003,6.822797e-001
1.488839e+003,6.907807e-001
1.492696e+003,7.017763e-001
1.496553e+003,7.145076e-001
1.500411e+003,7.210265e-001
1.504268e+003,7.190577e-001
1.508125e+003,7.189503e-001
1.511982e+003,7.191474e-001
1.515839e+003,7.150742e-001
1.519696e+003,7.038272e-001
1.523553e+003,6.959766e-001
1.527410e+003,6.917518e-001
1.531267e+003,6.860057e-001
1.535124e+003,6.703841e-001
1.538981e+003,6.487476e-001
1.542839e+003,6.275108e-001
1.546696e+003,6.119745e-001
1.550553e+003,5.960483e-001
1.554410e+003,5.817528e-001
1.558267e+003,5.690501e-001
1.562124e+003,5.557140e-001
1.565981e+003,5.423276e-001
1.569838e+003,5.328975e-001
1.573695e+003,5.261796e-001
1.577552e+003,5.239379e-001
1.581410e+003,5.236949e-001
1.585267e+003,5.292959e-001
1.589124e+003,5.379287e-001
1.592981e+003,5.407273e-001
1.596838e+003,5.487781e-001
1.600695e+003,5.695728e-001
1.604552e+003,5.913721e-001
1.608409e+003,6.125457e-001
1.612266e+003,6.392354e-001
1.616123e+003,6.657104e-001
1.619980e+003,6.934309e-001
1.623838e+003,7.169617e-001
1.627695e+003,7.416902e-001
1.631552e+003,7.625626e-001
1.635409e+003,7.714653e-001
1.639266e+003,7.690583e-001
1.643123e+003,7.550910e-001
1.646980e+003,7.387806e-001
1.650837e+003,7.308875e-001
1.654694e+003,7.116373e-001
1.658551e+003,6.866702e-001
1.662409e+003,6.608037e-001
1.666266e+003,6.379948e-001
1.670123e+003,6.163301e-001
1.673980e+003,5.915770e-001
1.677837e+003,5.635731e-001
1.681694e+003,5.391770e-001
1.685551e+003,5.202974e-001
1.689408e+003,5.070948e-001
1.693265e+003,4.953367e-001
1.697122e+003,4.800880e-001
1.700979e+003,4.616304e-001
1.704837e+003,4.460654e-001
1.708694e+003,4.382357e-001
1.712551e+003,4.335226e-001
1.716408e+003,4.272849e-001
1.720265e+003,4.217191e-001
1.724122e+003,4.174145e-001
1.727979e+003,4.136342e-001
1.731836e+003,4.125560e-001
1.735693e+003,4.146301e-001
1.739550e+003,4.144481e-001
1.743408e+003,4.101753e-001
1.747265e+003,4.065632e-001
1.751122e+003,4.070383e-001
1.754979e+003,4.094594e-001
1.758836e+003,4.093514e-001
1.762693e+003,4.106247e-001
1.766550e+003,4.091847e-001
1.770407e+003,4.052791e-001
1.774264e+003,4.013578e-001
1.778121e+003,3.986013e-001
1.781979e+003,3.949447e-001
1.785836e+003,3.895552e-001
1.789693e+003,3.871155e-001
1.793550e+003,3.854336e-001
1.797407e+003,3.816128e-001
1.801264e+003,3.798043e-001
1.805121e+003,3.811164e-001
1.808978e+003,3.833513e-001
1.812835e+003,3.817667e-001
1.816692e+003,3.784618e-001
1.820549e+003,3.793528e-001
1.824407e+003,3.795351e-001
1.828264e+003,3.810422e-001
1.832121e+003,3.803550e-001
1.835978e+003,3.745061e-001
1.839835e+003,3.683845e-001
1.843692e+003,3.636322e-001
1.847549e+003,3.605179e-001
1.851406e+003,3.571325e-001
1.855263e+003,3.565026e-001
1.859120e+003,3.551364e-001
1.862978e+003,3.536639e-001
1.866835e+003,3.523988e-001
1.870692e+003,3.501999e-001
1.874549e+003,3.495881e-001
1.878406e+003,3.536488e-001
1.882263e+003,3.543940e-001
1.886120e+003,3.546604e-001
1.889977e+003,3.579754e-001
1.893834e+003,3.569479e-001
1.897691e+003,3.533998e-001
1.901548e+003,3.505099e-001
1.905406e+003,3.467903e-001
1.909263e+003,3.449987e-001
1.913120e+003,3.438059e-001
1.916977e+003,3.405961e-001
1.920834e+003,3.383690e-001
1.924691e+003,3.357868e-001
1.928548e+003,3.328843e-001
1.932405e+003,3.302334e-001
1.936262e+003,3.276535e-001
1.940119e+003,3.267268e-001
1.943977e+003,3.273499e-001
1.947834e+003,3.266803e-001
1.951691e+003,3.239351e-001
1.955548e+003,3.226785e-001
1.959405e+003,3.241437e-001
1.963262e+003,3.252411e-001
1.967119e+003,3.236210e-001
1.970976e+003,3.219341e-001
1.974833e+003,3.227056e-001
1.978690e+003,3.213491e-001
1.982547e+003,3.175621e-001
1.986405e+003,3.145777e-001
1.990262e+003,3.121380e-001
1.994119e+003,3.095807e-001
1.997976e+003,3.070444e-001
2.001833e+003,3.051864e-001
2.005690e+003,3.034550e-001
2.009547e+003,3.008713e-001
2.013404e+003,2.992790e-001
2.017261e+003,2.979044e-001
2.021118e+003,2.974790e-001
2.024976e+003,2.988382e-001
2.028833e+003,2.994975e-001
2.032690e+003,2.987877e-001
2.036547e+003,2.998529e-001
2.040404e+003,3.009408e-001
2.044261e+003,2.986057e-001
2.048118e+003,2.965810e-001
2.051975e+003,2.954113e-001
2.055832e+003,2.927852e-001
2.059689e+003,2.911287e-001
2.063546e+003,2.901413e-001
2.067404e+003,2.874258e-001
2.071261e+003,2.847564e-001
2.075118e+003,2.821735e-001
2.078975e+003,2.810536e-001
2.082832e+003,2.818312e-001
2.086689e+003,2.804375e-001
2.090546e+003,2.789666e-001
2.094403e+003,2.788928e-001
2.098260e+003,2.800690e-001
2.102117e+003,2.802708e-001
2.105975e+003,2.813276e-001
2.109832e+003,2.849205e-001
2.113689e+003,2.870230e-001
2.117546e+003,2.865665e-001
2.121403e+003,2.870074e-001
2.125260e+003,2.847588e-001
2.129117e+003,2.839340e-001
2.132974e+003,2.836736e-001
2.136831e+003,2.820222e-001
2.140688e+003,2.814189e-001
2.144545e+003,2.800778e-001
2.148403e+003,2.776559e-001
2.152260e+003,2.763546e-001
2.156117e+003,2.769376e-001
2.159974e+003,2.779375e-001
2.163831e+003,2.782038e-001
2.167688e+003,2.776067e-001
2.171545e+003,2.799321e-001
2.175402e+003,2.804738e-001
2.179259e+003,2.796794e-001
2.183116e+003,2.797674e-001
2.186974e+003,2.810796e-001
2.190831e+003,2.836128e-001
2.194688e+003,2.862771e-001
2.198545e+003,2.867893e-001
2.202402e+003,2.853005e-001
2.206259e+003,2.826048e-001
2.210116e+003,2.822853e-001
2.213973e+003,2.830910e-001
2.217830e+003,2.809879e-001
2.221688e+003,2.799313e-001
2.225544e+003,2.796610e-001
2.229402e+003,2.775750e-001
2.233259e+003,2.777456e-001
2.237116e+003,2.798882e-001
2.240973e+003,2.803069e-001
2.244830e+003,2.802949e-001
2.248687e+003,2.804395e-001
2.252544e+003,2.811504e-001
2.256401e+003,2.829962e-001
2.260258e+003,2.852898e-001
2.264115e+003,2.867108e-001
2.267973e+003,2.863843e-001
2.271830e+003,2.870390e-001
2.275687e+003,2.922842e-001
2.279544e+003,2.934654e-001
2.283401e+003,2.907956e-001
2.287258e+003,2.873378e-001
2.291115e+003,2.855917e-001
2.294972e+003,2.865599e-001
2.298829e+003,2.892667e-001
2.302687e+003,2.921863e-001
2.306543e+003,2.914022e-001
2.310401e+003,2.911234e-001
2.314258e+003,2.908599e-001
2.318115e+003,2.895585e-001
2.321972e+003,2.905831e-001
2.325829e+003,2.940780e-001
2.329686e+003,2.933563e-001
2.333543e+003,2.922406e-001
2.337400e+003,2.923891e-001
2.341257e+003,2.942955e-001
2.345115e+003,2.960097e-001
2.348972e+003,2.972086e-001
2.352829e+003,2.957306e-001
2.356686e+003,2.930052e-001
2.360543e+003,2.945724e-001
2.364400e+003,2.957156e-001
2.368257e+003,2.962146e-001
2.372114e+003,2.928681e-001
2.375971e+003,2.908635e-001
2.379828e+003,2.893940e-001
2.383686e+003,2.892353e-001
2.387542e+003,2.891565e-001
2.391400e+003,2.882193e-001
2.395257e+003,2.884186e-001
2.399114e+003,2.863648e-001
2.402971e+003,2.859330e-001
2.406828e+003,2.863001e-001
2.410685e+003,2.870385e-001
2.414542e+003,2.872215e-001
2.418399e+003,2.860366e-001
2.422256e+003,2.854263e-001
2.426114e+003,2.848935e-001
2.429971e+003,2.840744e-001
2.433828e+003,2.833563e-001
2.437685e+003,2.842830e-001
2.441542e+003,2.837322e-001
2.445399e+003,2.811949e-001
2.449256e+003,2.795739e-001
2.453113e+003,2.786838e-001
2.456970e+003,2.775966e-001
2.460827e+003,2.756945e-001
2.464684e+003,2.741173e-001
2.468542e+003,2.735748e-001
2.472399e+003,2.744018e-001
2.476256e+003,2.762397e-001
2.480113e+003,2.762595e-001
2.483970e+003,2.743489e-001
2.487827e+003,2.742155e-001
2.491684e+003,2.738105e-001
2.495541e+003,2.748627e-001
2.499398e+003,2.763752e-001
2.503255e+003,2.767124e-001
2.507113e+003,2.757928e-001
2.510969e+003,2.751661e-001
2.514827e+003,2.740440e-001
2.518684e+003,2.742302e-001
2.522541e+003,2.758057e-001
2.526398e+003,2.776428e-001
2.530255e+003,2.783527e-001
2.534112e+003,2.793137e-001
2.537969e+003,2.799746e-001
2.541826e+003,2.793979e-001
2.545683e+003,2.796587e-001
2.549541e+003,2.811091e-001
2.553398e+003,2.818614e-001
2.557255e+003,2.845276e-001
2.561112e+003,2.883590e-001
2.564969e+003,2.898400e-001
2.568826e+003,2.907609e-001
2.572683e+003,2.906654e-001
2.576540e+003,2.912948e-001
2.580397e+003,2.923903e-001
2.584254e+003,2.942271e-001
2.588112e+003,2.989094e-001
2.591969e+003,3.015344e-001
2.595826e+003,3.026971e-001
2.599683e+003,3.038562e-001
2.603540e+003,3.060300e-001
2.607397e+003,3.086487e-001
2.611254e+003,3.091362e-001
2.615111e+003,3.124244e-001
2.618968e+003,3.150421e-001
2.622825e+003,3.160296e-001
2.626682e+003,3.184699e-001
2.630540e+003,3.199421e-001
2.634397e+003,3.208393e-001
2.638254e+003,3.215234e-001
2.642111e+003,3.229996e-001
2.645968e+003,3.268411e-001
2.649825e+003,3.306668e-001
2.653682e+003,3.334540e-001
2.657539e+003,3.378643e-001
2.661396e+003,3.396043e-001
2.665253e+003,3.392655e-001
2.669111e+003,3.449140e-001
2.672968e+003,3.519785e-001
2.676825e+003,3.553508e-001
2.680682e+003,3.567867e-001
2.684539e+003,3.595177e-001
2.688396e+003,3.604866e-001
2.692253e+003,3.613901e-001
2.696110e+003,3.667497e-001
2.699967e+003,3.724747e-001
2.703824e+003,3.727062e-001
2.707681e+003,3.748476e-001
2.711539e+003,3.802209e-001
2.715396e+003,3.838544e-001
2.719253e+003,3.882108e-001
2.723110e+003,3.922614e-001
2.726967e+003,3.963372e-001
2.730824e+003,3.995990e-001
2.734681e+003,4.029195e-001
2.738538e+003,4.089302e-001
2.742395e+003,4.129341e-001
2.746252e+003,4.151369e-001
2.750110e+003,4.199128e-001
2.753967e+003,4.211967e-001
2.757824e+003,4.227151e-001
2.761681e+003,4.290349e-001
2.765538e+003,4.380983e-001
2.769395e+003,4.427187e-001
2.773252e+003,4.453391e-001
2.777109e+003,4.460502e-001
2.780966e+003,4.467325e-001
2.784823e+003,4.522517e-001
2.788680e+003,4.582257e-001
2.792538e+003,4.631153e-001
2.796395e+003,4.710074e-001
2.800252e+003,4.732580e-001
2.804109e+003,4.741302e-001
2.807966e+003,4.785356e-001
2.811823e+003,4.854716e-001
2.815680e+003,4.928761e-001
2.819537e+003,4.975436e-001
2.823394e+003,5.010114e-001
2.827251e+003,5.048953e-001
2.831109e+003,5.061466e-001
2.834966e+003,5.085734e-001
2.838823e+003,5.177115e-001
2.842680e+003,5.237905e-001
2.846537e+003,5.308631e-001
2.850394e+003,5.355569e-001
2.854251e+003,5.390629e-001
2.858108e+003,5.413956e-001
2.861965e+003,5.466644e-001
2.865823e+003,5.539976e-001
2.869679e+003,5.572046e-001
2.873537e+003,5.603260e-001
2.877394e+003,5.641769e-001
2.881251e+003,5.721613e-001
2.885108e+003,5.801809e-001
2.888965e+003,5.849252e-001
2.892822e+003,5.923949e-001
2.896679e+003,5.957742e-001
2.900536e+003,5.984354e-001
2.904393e+003,6.055187e-001
2.908250e+003,6.109011e-001
2.912108e+003,6.157485e-001
2.915965e+003,6.198170e-001
2.919822e+003,6.220732e-001
2.923679e+003,6.263640e-001
2.927536e+003,6.312620e-001
2.931393e+003,6.417125e-001
2.935250e+003,6.479314e-001
2.939107e+003,6.545897e-001
2.942964e+003,6.583019e-001
2.946822e+003,6.652882e-001
2.950678e+003,6.693718e-001
2.954536e+003,6.736795e-001
2.958393e+003,6.820118e-001
2.962250e+003,6.898581e-001
2.966107e+003,6.907935e-001
2.969964e+003,6.976261e-001
2.973821e+003,7.077952e-001
2.977678e+003,7.150259e-001
2.981535e+003,7.180835e-001
2.985392e+003,7.214181e-001
2.989250e+003,7.242499e-001
2.993107e+003,7.304875e-001
2.996964e+003,7.388311e-001
3.000821e+003,7.446654e-001
3.004678e+003,7.550498e-001
3.008535e+003,7.584425e-001
3.012392e+003,7.594900e-001
3.016249e+003,7.684199e-001
3.020106e+003,7.778526e-001
3.023963e+003,7.853458e-001
3.027821e+003,7.940160e-001
3.031677e+003,8.003608e-001
3.035535e+003,8.036860e-001
3.039392e+003,8.138273e-001
3.043249e+003,8.238060e-001
3.047106e+003,8.273382e-001
3.050963e+003,8.293109e-001
3.054820e+003,8.369843e-001
3.058677e+003,8.409433e-001
3.062534e+003,8.515313e-001
3.066391e+003,8.624424e-001
3.070249e+003,8.639827e-001
3.074106e+003,8.744771e-001
3.077963e+003,8.829957e-001
3.081820e+003,8.886433e-001
3.085677e+003,8.957990e-001
3.089534e+003,9.016843e-001
3.093391e+003,9.098285e-001
3.097248e+003,9.107056e-001
3.101105e+003,9.200097e-001
3.104962e+003,9.360090e-001
3.108820e+003,9.397615e-001
3.112677e+003,9.333118e-001
3.116534e+003,9.389625e-001
3.120391e+003,9.486218e-001
3.124248e+003,9.576467e-001
3.128105e+003,9.649234e-001
3.131962e+003,9.681364e-001
3.135819e+003,9.868988e-001
3.139676e+003,1.002153e+000
3.143533e+003,1.003902e+000
3.147390e+003,1.004731e+000
3.151248e+003,9.985545e-001
3.155105e+003,9.996377e-001
3.158962e+003,1.014767e+000
3.162819e+003,1.018489e+000
3.166676e+003,1.027909e+000
3.170533e+003,1.039839e+000
3.174390e+003,1.058349e+000
3.178247e+003,1.069759e+000
3.182104e+003,1.070297e+000
3.185961e+003,1.071347e+000
3.189819e+003,1.071768e+000
3.193676e+003,1.076062e+000
3.197533e+003,1.079137e+000
3.201390e+003,1.086226e+000
3.205247e+003,1.099402e+000
3.209104e+003,1.111239e+000
3.212961e+003,1.109424e+000
3.216818e+003,1.101505e+000
3.220675e+003,1.123604e+000
3.224532e+003,1.142604e+000
3.228389e+003,1.139584e+000
3.232247e+003,1.144623e+000
3.236104e+003,1.159679e+000
3.239961e+003,1.169300e+000
3.243818e+003,1.173019e+000
3.247675e+003,1.171249e+000
3.251532e+003,1.167197e+000
3.255389e+003,1.167944e+000
3.259246e+003,1.177487e+000
3.263103e+003,1.179450e+000
3.266960e+003,1.192228e+000
3.270818e+003,1.191893e+000
3.274675e+003,1.180554e+000
3.278532e+003,1.196931e+000
3.282389e+003,1.211338e+000
3.286246e+003,1.206224e+000
3.290103e+003,1.197324e+000
3.293960e+003,1.203083e+000
3.297817e+003,1.218706e+000
3.301674e+003,1.229565e+000
3.305531e+003,1.225914e+000
3.309388e+003,1.242878e+000
3.313246e+003,1.265775e+000
3.317103e+003,1.264362e+000
3.320960e+003,1.247496e+000
3.324817e+003,1.243347e+000
3.328674e+003,1.248872e+000
3.332531e+003,1.258269e+000
3.336388e+003,1.265681e+000
3.340245e+003,1.279215e+000
3.344102e+003,1.273500e+000
3.347959e+003,1.270012e+000
3.351817e+003,1.288172e+000
3.355674e+003,1.294215e+000
3.359531e+003,1.291957e+000
3.363388e+003,1.284082e+000
3.367245e+003,1.287270e+000
3.371102e+003,1.311575e+000
3.374959e+003,1.318390e+000
3.378816e+003,1.332826e+000
3.382673e+003,1.329628e+000
3.386530e+003,1.317584e+000
3.390387e+003,1.332395e+000
3.394245e+003,1.329773e+000
3.398102e+003,1.342667e+000
3.401959e+003,1.326364e+000
3.405816e+003,1.316475e+000
3.409673e+003,1.342074e+000
3.413530e+003,1.358698e+000
3.417387e+003,1.346506e+000
3.421244e+003,1.338950e+000
3.425101e+003,1.347555e+000
3.428958e+003,1.362261e+000
3.432815e+003,1.366482e+000
3.436673e+003,1.367837e+000
3.440530e+003,1.377446e+000
3.444387e+003,1.374351e+000
3.448244e+003,1.384966e+000
3.452101e+003,1.382678e+000
3.455958e+003,1.357779e+000
3.459815e+003,1.330697e+000
3.463672e+003,1.345587e+000
3.467529e+003,1.346864e+000
3.471386e+003,1.357971e+000
3.475244e+003,1.373565e+000
3.479101e+003,1.379297e+000
3.482958e+003,1.401064e+000
3.486815e+003,1.403656e+000
3.490672e+003,1.397646e+000
3.494529e+003,1.406974e+000
3.498386e+003,1.396782e+000
3.502243e+003,1.389603e+000
3.506100e+003,1.392756e+000
3.509958e+003,1.393837e+000
3.513814e+003,1.382463e+000
3.517672e+003,1.369300e+000
3.521529e+003,1.393597e+000
3.525386e+003,1.424897e+000
3.529243e+003,1.407189e+000
3.533100e+003,1.401180e+000
3.536957e+003,1.398907e+000
3.540814e+003,1.381009e+000
3.544671e+003,1.373197e+000
3.548528e+003,1.354317e+000
3.552385e+003,1.352261e+000
3.556243e+003,1.359956e+000
3.560100e+003,1.367286e+000
3.563957e+003,1.361888e+000
3.567814e+003,1.356215e+000
3.571671e+003,1.356907e+000
3.575528e+003,1.339519e+000
3.579385e+003,1.332616e+000
3.583242e+003,1.312165e+000
3.587099e+003,1.281014e+000
3.590957e+003,1.267680e+000
3.594813e+003,1.268694e+000
3.598671e+003,1.278997e+000
3.602528e+003,1.251752e+000
3.606385e+003,1.195837e+000
3.610242e+003,1.159854e+000
3.614099e+003,1.135623e+000
3.617956e+003,1.094567e+000
3.621813e+003,1.037328e+000
3.625670e+003,9.871769e-001
3.629527e+003,9.417199e-001
3.633385e+003,8.847584e-001
3.637242e+003,8.192328e-001
3.641099e+003,7.631984e-001
3.644956e+003,7.155812e-001
3.648813e+003,6.641096e-001
3.652670e+003,6.088131e-001
3.656527e+003,5.569137e-001
3.660384e+003,5.130411e-001
3.664241e+003,4.728717e-001
3.668098e+003,4.381816e-001
3.671956e+003,4.063044e-001
3.675813e+003,3.789865e-001
3.679670e+003,3.517576e-001
3.683527e+003,3.300610e-001
3.687384e+003,3.125166e-001
3.691241e+003,2.950607e-001
3.695098e+003,2.775319e-001
3.698955e+003,2.640263e-001
3.702812e+003,2.520720e-001
3.706669e+003,2.411824e-001
3.710526e+003,2.345890e-001
3.714384e+003,2.283501e-001
3.718241e+003,2.220434e-001
3.722098e+003,2.172770e-001
3.725955e+003,2.125797e-001
3.729812e+003,2.105218e-001
3.733669e+003,2.087110e-001
3.737526e+003,2.079530e-001
3.741383e+003,2.062214e-001
3.745240e+003,2.031350e-001
3.749097e+003,1.997067e-001
3.752955e+003,1.976833e-001
3.756812e+003,1.975420e-001
3.760669e+003,1.947911e-001
3.764526e+003,1.908452e-001
3.768383e+003,1.919856e-001
3.772240e+003,1.907523e-001
3.776097e+003,1.882636e-001
3.779954e+003,1.845181e-001
3.783811e+003,1.833938e-001
3.787668e+003,1.860767e-001
3.791525e+003,1.868966e-001
3.795383e+003,1.881939e-001
3.799240e+003,1.889162e-001
3.803097e+003,1.893023e-001
3.806954e+003,1.884103e-001
3.810811e+003,1.871853e-001
3.814668e+003,1.887693e-001
3.818525e+003,1.873957e-001
3.822382e+003,1.854427e-001
3.826239e+003,1.846403e-001
3.830096e+003,1.841044e-001
3.833954e+003,1.866388e-001
3.837811e+003,1.860455e-001
3.841668e+003,1.808448e-001
3.845525e+003,1.787456e-001
3.849382e+003,1.783234e-001
3.853239e+003,1.767183e-001
3.857096e+003,1.762188e-001
3.860953e+003,1.792102e-001
3.864810e+003,1.804308e-001
3.868667e+003,1.805934e-001
3.872524e+003,1.848781e-001
3.876382e+003,1.846202e-001
3.880239e+003,1.818797e-001
3.884096e+003,1.829131e-001
3.887953e+003,1.835703e-001
3.891810e+003,1.832126e-001
3.895667e+003,1.835511e-001
3.899524e+003,1.835468e-001
3.903381e+003,1.833316e-001
3.907238e+003,1.829066e-001
3.911095e+003,1.841282e-001
3.914953e+003,1.830158e-001
3.918810e+003,1.803232e-001
3.922667e+003,1.771595e-001
3.926524e+003,1.768969e-001
3.930381e+003,1.764407e-001
3.934238e+003,1.763398e-001
3.938095e+003,1.775651e-001
3.941952e+003,1.785010e-001
3.945809e+003,1.769355e-001
3.949667e+003,1.760604e-001
3.953523e+003,1.780897e-001
3.957381e+003,1.789498e-001
3.961238e+003,1.786831e-001
3.965095e+003,1.812634e-001
3.968952e+003,1.837518e-001
3.972809e+003,1.809492e-001
3.976666e+003,1.801890e-001
3.980523e+003,1.839818e-001
3.984380e+003,1.825938e-001
3.988237e+003,1.787953e-001
3.992094e+003,1.803382e-001
3.995952e+003,1.800864e-001
3.999809e+003,1.773797e-001
4.003666e+003,1.761486e-001
4.007523e+003,1.756264e-001
4.011380e+003,1.776612e-001
4.015237e+003,1.778619e-001
4.019094e+003,1.754297e-001
4.022951e+003,1.709930e-001
4.026808e+003,1.706635e-001
4.030666e+003,1.733003e-001
4.034522e+003,1.772613e-001
4.038380e+003,1.788461e-001
4.042237e+003,1.776295e-001
4.046094e+003,1.762480e-001
4.049951e+003,1.759982e-001
4.053808e+003,1.765786e-001
4.057665e+003,1.764121e-001
4.061522e+003,1.777983e-001
4.065379e+003,1.777699e-001
4.069236e+003,1.729524e-001
4.073094e+003,1.713672e-001
4.076951e+003,1.714668e-001
4.080808e+003,1.695962e-001
4.084665e+003,1.692878e-001
4.088522e+003,1.679122e-001
4.092379e+003,1.685285e-001
4.096236e+003,1.703267e-001
4.100093e+003,1.719526e-001
4.103950e+003,1.713533e-001
4.107808e+003,1.670223e-001
4.111665e+003,1.667525e-001
4.115521e+003,1.701263e-001
4.119379e+003,1.681654e-001
4.123236e+003,1.673694e-001
4.127093e+003,1.687830e-001
4.130950e+003,1.692110e-001
4.134807e+003,1.702080e-001
4.138664e+003,1.683813e-001
4.142521e+003,1.651060e-001
4.146378e+003,1.639971e-001
4.150235e+003,1.625352e-001
4.154093e+003,1.623269e-001
4.157950e+003,1.627420e-001
4.161807e+003,1.625599e-001
4.165664e+003,1.617878e-001
4.169521e+003,1.597807e-001
4.173378e+003,1.592789e-001
4.177235e+003,1.607000e-001
4.181092e+003,1.581910e-001
4.184949e+003,1.588262e-001
4.188807e+003,1.641328e-001
4.192664e+003,1.646608e-001
4.196521e+003,1.630651e-001
4.200378e+003,1.629661e-001
4.204235e+003,1.625406e-001
4.208092e+003,1.626344e-001
4.211949e+003,1.638171e-001
4.215806e+003,1.626727e-001
4.219663e+003,1.601275e-001
4.223521e+003,1.579856e-001
4.227377e+003,1.579158e-001
4.231234e+003,1.572357e-001
4.235092e+003,1.534722e-001
4.238949e+003,1.502140e-001
4.242806e+003,1.517776e-001
4.246663e+003,1.527336e-001
4.250520e+003,1.530496e-001
4.254377e+003,1.527053e-001
4.258234e+003,1.517629e-001
4.262091e+003,1.526667e-001
4.265948e+003,1.558257e-001
4.269806e+003,1.599133e-001
4.273663e+003,1.598557e-001
4.277520e+003,1.554094e-001
4.281377e+003,1.564040e-001
4.285234e+003,1.602756e-001
4.289091e+003,1.597887e-001
4.292948e+003,1.588923e-001
4.296805e+003,1.578345e-001
4.300662e+003,1.576471e-001
4.304520e+003,1.570521e-001
4.308376e+003,1.566808e-001
4.312233e+003,1.560503e-001
4.316091e+003,1.532128e-001
4.319948e+003,1.534058e-001
4.323805e+003,1.549794e-001
4.327662e+003,1.545531e-001
4.331519e+003,1.564282e-001
4.335376e+003,1.544645e-001
4.339233e+003,1.522028e-001
4.343090e+003,1.524630e-001
4.346947e+003,1.548318e-001
4.350805e+003,1.548143e-001
4.354662e+003,1.510671e-001
4.358519e+003,1.514543e-001
4.362376e+003,1.564353e-001
4.366233e+003,1.602935e-001
4.370090e+003,1.614687e-001
4.373947e+003,1.606979e-001
4.377804e+003,1.581715e-001
4.381661e+003,1.576616e-001
4.385519e+003,1.552802e-001
4.389375e+003,1.528181e-001
4.393232e+003,1.512706e-001
4.397090e+003,1.509624e-001
4.400947e+003,1.539916e-001
4.404804e+003,1.558945e-001
4.408661e+003,1.538144e-001
4.412518e+003,1.535671e-001
4.416375e+003,1.561630e-001
4.420232e+003,1.589110e-001
4.424089e+003,1.568072e-001
4.427946e+003,1.552808e-001
4.431804e+003,1.555075e-001
4.435661e+003,1.539047e-001
4.439518e+003,1.537364e-001
4.443375e+003,1.522902e-001
4.447232e+003,1.521937e-001
4.451089e+003,1.534623e-001
4.454946e+003,1.528423e-001
4.458803e+003,1.526118e-001
4.462660e+003,1.534277e-001
4.466518e+003,1.524231e-001
4.470375e+003,1.524586e-001
4.474231e+003,1.532659e-001
4.478089e+003,1.515729e-001
4.481946e+003,1.509472e-001
4.485803e+003,1.503173e-001
4.489660e+003,1.501338e-001
4.493517e+003,1.502384e-001
4.497375e+003,1.464153e-001
4.501231e+003,1.457277e-001
4.505088e+003,1.484296e-001
4.508946e+003,1.490927e-001
4.512803e+003,1.519988e-001
4.516660e+003,1.553909e-001
4.520517e+003,1.550969e-001
4.524374e+003,1.532934e-001
4.528231e+003,1.543024e-001
4.532088e+003,1.548803e-001
4.535945e+003,1.530335e-001
4.539802e+003,1.492314e-001
4.543660e+003,1.444219e-001
4.547517e+003,1.428389e-001
4.551374e+003,1.436683e-001
4.555231e+003,1.437357e-001
4.559088e+003,1.440062e-001
4.562945e+003,1.431289e-001
4.566802e+003,1.383423e-001
4.570659e+003,1.357829e-001
4.574516e+003,1.385327e-001
4.578374e+003,1.422219e-001
4.582230e+003,1.433373e-001
4.586087e+003,1.408246e-001
4.589945e+003,1.372845e-001
4.593802e+003,1.406612e-001
4.597659e+003,1.442748e-001
4.601516e+003,1.436297e-001
4.605373e+003,1.438618e-001
4.609230e+003,1.415137e-001
4.613087e+003,1.407670e-001
4.616944e+003,1.379716e-001
4.620801e+003,1.368240e-001
4.624659e+003,1.379074e-001
4.628516e+003,1.400614e-001
4.632373e+003,1.370106e-001
4.636230e+003,1.348601e-001
4.640087e+003,1.367830e-001
4.643944e+003,1.358003e-001
4.647801e+003,1.317079e-001
4.651658e+003,1.296455e-001
4.655515e+003,1.316548e-001
4.659373e+003,1.315257e-001
4.663229e+003,1.309413e-001
4.667086e+003,1.324505e-001
4.670944e+003,1.395437e-001
4.674801e+003,1.432383e-001
4.678658e+003,1.411746e-001
4.682515e+003,1.408967e-001
4.686372e+003,1.388194e-001
4.690229e+003,1.397364e-001
4.694086e+003,1.376658e-001
4.697943e+003,1.316334e-001
4.701800e+003,1.336425e-001
4.705658e+003,1.365589e-001
4.709515e+003,1.345250e-001
4.713372e+003,1.336781e-001
4.717229e+003,1.363713e-001
4.721086e+003,1.342891e-001
4.724943e+003,1.310004e-001
4.728800e+003,1.324058e-001
4.732657e+003,1.293708e-001
4.736514e+003,1.300886e-001
4.740372e+003,1.339282e-001
4.744229e+003,1.376496e-001
4.748085e+003,1.411130e-001
4.751943e+003,1.401178e-001
4.755800e+003,1.383092e-001
4.759657e+003,1.373680e-001
4.763514e+003,1.396593e-001
4.767371e+003,1.390232e-001
4.771228e+003,1.334479e-001
4.775085e+003,1.316209e-001
4.778942e+003,1.303552e-001
4.782799e+003,1.311105e-001
4.786657e+003,1.320583e-001
4.790514e+003,1.321716e-001
4.794371e+003,1.306261e-001
4.798228e+003,1.280024e-001
4.802085e+003,1.263614e-001
4.805942e+003,1.289505e-001
4.809799e+003,1.337245e-001
4.813656e+003,1.336614e-001
4.817513e+003,1.302679e-001
4.821371e+003,1.303972e-001
4.825228e+003,1.321909e-001
4.829084e+003,1.306317e-001
4.832942e+003,1.305220e-001
4.836799e+003,1.323127e-001
4.840656e+003,1.299326e-001
4.844513e+003,1.279708e-001
4.848370e+003,1.279259e-001
4.852227e+003,1.272495e-001
4.856084e+003,1.273828e-001
4.859941e+003,1.288805e-001
4.863798e+003,1.291304e-001
4.867656e+003,1.288227e-001
4.871513e+003,1.329403e-001
4.875370e+003,1.330486e-001
4.879227e+003,1.353933e-001
4.883084e+003,1.399907e-001
4.886941e+003,1.370881e-001
4.890798e+003,1.332589e-001
4.894655e+003,1.309632e-001
4.898512e+003,1.277099e-001
4.902370e+003,1.272044e-001
4.906227e+003,1.296547e-001
4.910083e+003,1.307451e-001
4.913941e+003,1.330748e-001
4.917798e+003,1.339038e-001
4.921655e+003,1.293724e-001
4.925512e+003,1.304253e-001
4.929369e+003,1.318526e-001
4.933226e+003,1.311182e-001
4.937083e+003,1.359715e-001
4.940940e+003,1.377117e-001
4.944797e+003,1.340714e-001
4.948655e+003,1.311727e-001
4.952512e+003,1.310708e-001
4.956369e+003,1.304958e-001
4.960226e+003,1.330902e-001
4.964083e+003,1.347662e-001
4.967940e+003,1.378553e-001
4.971797e+003,1.385823e-001
4.975654e+003,1.348909e-001
4.979511e+003,1.336793e-001
4.983369e+003,1.326019e-001
4.987226e+003,1.301058e-001
4.991083e+003,1.302877e-001
4.994940e+003,1.323655e-001
4.998797e+003,1.321333e-001
5.002654e+003,1.314664e-001
5.006511e+003,1.314714e-001
5.010368e+003,1.337249e-001
5.014225e+003,1.341323e-001
5.018083e+003,1.336000e-001
5.021939e+003,1.355087e-001
5.025796e+003,1.354722e-001
5.029654e+003,1.317196e-001
5.033511e+003,1.289589e-001
5.037368e+003,1.323373e-001
5.041225e+003,1.374568e-001
5.045082e+003,1.400041e-001
5.048939e+003,1.366878e-001
5.052796e+003,1.336912e-001
5.056653e+003,1.365265e-001
5.060510e+003,1.327150e-001
5.064368e+003,1.291523e-001
5.068225e+003,1.262760e-001
5.072082e+003,1.256057e-001
5.075939e+003,1.265374e-001
5.079796e+003,1.317729e-001
5.083653e+003,1.344809e-001
5.087510e+003,1.347087e-001
5.091367e+003,1.359391e-001
5.095224e+003,1.315095e-001
5.099082e+003,1.264772e-001
5.102938e+003,1.285736e-001
5.106795e+003,1.355338e-001
5.110653e+003,1.375727e-001
5.114510e+003,1.376240e-001
5.118367e+003,1.338239e-001
5.122224e+003,1.306563e-001
5.126081e+003,1.323151e-001
5.129938e+003,1.335487e-001
5.133795e+003,1.364109e-001
5.137652e+003,1.332425e-001
5.141509e+003,1.272758e-001
5.145367e+003,1.286411e-001
5.149224e+003,1.365807e-001
5.153081e+003,1.360974e-001
5.156938e+003,1.374287e-001
5.160795e+003,1.358236e-001
5.164652e+003,1.305824e-001
5.168509e+003,1.356357e-001
5.172366e+003,1.373072e-001
5.176223e+003,1.384049e-001
5.180081e+003,1.402170e-001
5.183938e+003,1.403193e-001
5.187794e+003,1.414081e-001
5.191652e+003,1.434960e-001
5.195509e+003,1.387887e-001
5.199366e+003,1.368883e-001
5.203223e+003,1.394001e-001
5.207080e+003,1.412394e-001
5.210937e+003,1.392312e-001
5.214794e+003,1.378688e-001
5.218651e+003,1.376212e-001
5.222508e+003,1.380871e-001
5.226366e+003,1.340024e-001
5.230223e+003,1.305673e-001
5.234080e+003,1.348104e-001
5.237937e+003,1.382235e-001
5.241794e+003,1.383667e-001
5.245651e+003,1.372814e-001
5.249508e+003,1.379584e-001
5.253365e+003,1.400665e-001
5.257222e+003,1.388965e-001
5.261080e+003,1.361190e-001
5.264937e+003,1.373897e-001
5.268793e+003,1.370012e-001
5.272651e+003,1.319888e-001
5.276508e+003,1.290714e-001
5.280365e+003,1.316913e-001
5.284222e+003,1.356327e-001
5.288079e+003,1.313753e-001
5.291936e+003,1.225266e-001
5.295793e+003,1.226777e-001
5.299650e+003,1.268733e-001
5.303507e+003,1.269596e-001
5.307365e+003,1.268067e-001
5.311222e+003,1.290829e-001
5.315079e+003,1.309815e-001
5.318936e+003,1.284894e-001
5.322793e+003,1.311754e-001
5.326650e+003,1.327609e-001
5.330507e+003,1.307325e-001
5.334364e+003,1.300453e-001
5.338221e+003,1.280396e-001
5.342079e+003,1.330954e-001
5.345936e+003,1.401977e-001
5.349792e+003,1.374837e-001
5.353650e+003,1.314276e-001
5.357507e+003,1.302897e-001
5.361364e+003,1.323466e-001
5.365221e+003,1.365155e-001
5.369078e+003,1.345745e-001
5.372935e+003,1.275335e-001
5.376792e+003,1.277293e-001
5.380649e+003,1.315459e-001
5.384506e+003,1.342361e-001
5.388364e+003,1.275383e-001
5.392221e+003,1.292009e-001
5.396078e+003,1.399292e-001
5.399935e+003,1.429636e-001
5.403792e+003,1.400674e-001
5.407649e+003,1.359404e-001
5.411506e+003,1.351217e-001
5.415363e+003,1.353027e-001
5.419220e+003,1.338366e-001
5.423078e+003,1.309947e-001
5.426935e+003,1.307419e-001
5.430792e+003,1.326576e-001
5.434649e+003,1.298257e-001
5.438506e+003,1.302970e-001
5.442363e+003,1.374747e-001
5.446220e+003,1.367844e-001
5.450077e+003,1.348781e-001
5.453934e+003,1.361090e-001
5.457792e+003,1.343271e-001
5.461648e+003,1.317012e-001
5.465505e+003,1.325752e-001
5.469363e+003,1.329757e-001
5.473220e+003,1.334119e-001
5.477077e+003,1.364409e-001
5.480934e+003,1.332505e-001
5.484791e+003,1.275702e-001
5.488648e+003,1.294534e-001
5.492505e+003,1.311831e-001
5.496362e+003,1.394459e-001
5.500219e+003,1.435481e-001
5.504077e+003,1.388985e-001
5.507934e+003,1.373803e-001
5.511791e+003,1.433425e-001
5.515648e+003,1.462688e-001
5.519505e+003,1.411375e-001
5.523362e+003,1.394604e-001
5.527219e+003,1.427853e-001
5.531076e+003,1.366875e-001
5.534933e+003,1.355630e-001
5.538791e+003,1.393849e-001
5.542647e+003,1.337219e-001
5.546504e+003,1.287407e-001
5.550362e+003,1.306379e-001
5.554219e+003,1.298240e-001
5.558076e+003,1.288036e-001
5.561933e+003,1.318989e-001
5.565790e+003,1.386029e-001
5.569647e+003,1.423500e-001
5.573504e+003,1.417617e-001
5.577361e+003,1.364412e-001
5.581218e+003,1.376148e-001
5.585076e+003,1.422873e-001
5.588933e+003,1.445006e-001
5.592790e+003,1.453616e-001
5.596647e+003,1.427753e-001
5.600504e+003,1.377315e-001
5.604361e+003,1.395244e-001
5.608218e+003,1.415682e-001
5.612075e+003,1.407724e-001
5.615932e+003,1.384119e-001
5.619790e+003,1.363205e-001
5.623646e+003,1.335073e-001
5.627503e+003,1.363915e-001
5.631361e+003,1.410499e-001
5.635218e+003,1.431003e-001
5.639075e+003,1.403059e-001
5.642932e+003,1.367445e-001
5.646789e+003,1.378844e-001
5.650646e+003,1.392284e-001
5.654503e+003,1.397074e-001
5.658360e+003,1.448663e-001
5.662217e+003,1.430634e-001
5.666075e+003,1.356614e-001
5.669932e+003,1.317532e-001
5.673789e+003,1.364684e-001
5.677646e+003,1.393487e-001
5.681503e+003,1.409645e-001
5.685360e+003,1.460994e-001
5.689217e+003,1.450674e-001
5.693074e+003,1.386015e-001
5.696931e+003,1.377641e-001
5.700789e+003,1.490414e-001
5.704646e+003,1.509369e-001
5.708502e+003,1.419689e-001
5.712360e+003,1.413901e-001
5.716217e+003,1.455632e-001
5.720074e+003,1.443069e-001
5.723931e+003,1.451223e-001
5.727788e+003,1.537478e-001
5.731645e+003,1.545432e-001
5.735502e+003,1.513378e-001
5.739359e+003,1.485018e-001
5.743216e+003,1.407053e-001
5.747074e+003,1.400995e-001
5.750931e+003,1.471563e-001
5.754788e+003,1.532855e-001
5.758645e+003,1.500532e-001
5.762502e+003,1.500841e-001
5.766359e+003,1.527535e-001
5.770216e+003,1.502570e-001
5.774073e+003,1.444134e-001
5.777930e+003,1.426255e-001
5.781788e+003,1.472563e-001
5.785645e+003,1.482534e-001
5.789501e+003,1.496065e-001
5.793359e+003,1.515366e-001
5.797216e+003,1.507749e-001
5.801073e+003,1.467946e-001
5.804930e+003,1.418278e-001
5.808787e+003,1.380101e-001
5.812644e+003,1.460939e-001
5.816501e+003,1.556581e-001
5.820358e+003,1.547738e-001
5.824215e+003,1.524739e-001
5.828073e+003,1.491246e-001
5.831930e+003,1.410503e-001
5.835787e+003,1.506068e-001
5.839644e+003,1.518598e-001
5.843501e+003,1.477380e-001
5.847358e+003,1.457812e-001
5.851215e+003,1.463333e-001
5.855072e+003,1.484312e-001
5.858929e+003,1.491667e-001
5.862787e+003,1.444922e-001
5.866644e+003,1.443468e-001
5.870500e+003,1.494291e-001
5.874358e+003,1.475768e-001
5.878215e+003,1.505856e-001
5.882072e+003,1.542610e-001
5.885929e+003,1.564325e-001
5.889786e+003,1.553248e-001
5.893643e+003,1.490280e-001
5.897500e+003,1.456589e-001
5.901357e+003,1.488118e-001
5.905214e+003,1.540559e-001
5.909072e+003,1.561280e-001
5.912929e+003,1.558235e-001
5.916786e+003,1.593756e-001
5.920643e+003,1.547162e-001
5.924500e+003,1.568123e-001
5.928357e+003,1.653267e-001
5.932214e+003,1.604284e-001
5.936071e+003,1.538831e-001
5.939928e+003,1.472296e-001
5.943786e+003,1.464307e-001
5.947643e+003,1.575251e-001
5.951500e+003,1.554786e-001
5.955357e+003,1.489377e-001
5.959214e+003,1.523824e-001
5.963071e+003,1.579139e-001
5.966928e+003,1.589968e-001
5.970785e+003,1.640382e-001
5.974642e+003,1.644614e-001
5.978500e+003,1.584067e-001
5.982356e+003,1.562085e-001
5.986213e+003,1.520400e-001
5.990071e+003,1.473615e-001
5.993928e+003,1.578265e-001
5.997785e+003,1.617470e-001
6.001642e+003,1.600490e-001
6.005499e+003,1.553833e-001
6.009356e+003,1.556889e-001
6.013213e+003,1.602358e-001
6.017070e+003,1.640185e-001
6.020927e+003,1.576928e-001
6.024785e+003,1.516279e-001
6.028642e+003,1.546906e-001
6.032499e+003,1.596591e-001
6.036356e+003,1.576662e-001
6.040213e+003,1.526106e-001
6.044070e+003,1.548775e-001
6.047927e+003,1.542883e-001
6.051784e+003,1.523733e-001
6.055641e+003,1.645184e-001
6.059499e+003,1.697191e-001
6.063355e+003,1.617734e-001
6.067212e+003,1.586966e-001
6.071070e+003,1.672816e-001
6.074927e+003,1.701317e-001
6.078784e+003,1.672829e-001
6.082641e+003,1.678399e-001
6.086498e+003,1.664500e-001
6.090355e+003,1.600634e-001
6.094212e+003,1.558195e-001
6.098069e+003,1.570254e-001
6.101926e+003,1.604955e-001
6.105784e+003,1.558308e-001
6.109641e+003,1.508701e-001
6.113498e+003,1.525363e-001
6.117355e+003,1.572068e-001
6.121212e+003,1.594346e-001
6.125069e+003,1.571526e-001
6.128926e+003,1.554638e-001
6.132783e+003,1.579002e-001
6.136640e+003,1.634563e-001
6.140498e+003,1.652268e-001
6.144354e+003,1.592846e-001
6.148211e+003,1.585808e-001
6.152069e+003,1.683663e-001
6.155926e+003,1.742701e-001
6.159783e+003,1.728640e-001
6.163640e+003,1.614614e-001
6.167497e+003,1.586263e-001
6.171354e+003,1.627446e-001
6.175211e+003,1.531793e-001
6.179068e+003,1.539247e-001
6.182925e+003,1.627966e-001
6.186783e+003,1.743307e-001
6.190640e+003,1.779906e-001
6.194497e+003,1.722691e-001
6.198354e+003,1.662578e-001
6.202211e+003,1.693839e-001
6.206068e+003,1.706576e-001
6.209925e+003,1.645415e-001
6.213782e+003,1.652485e-001
6.217639e+003,1.637066e-001
6.221497e+003,1.628003e-001
6.225354e+003,1.622134e-001
6.229210e+003,1.571483e-001
6.233068e+003,1.639903e-001
6.236925e+003,1.704466e-001
6.240782e+003,1.692452e-001
6.244639e+003,1.644385e-001
6.248496e+003,1.615992e-001
6.252353e+003,1.692247e-001
6.256210e+003,1.695787e-001
6.260067e+003,1.587588e-001
6.263924e+003,1.621323e-001
6.267782e+003,1.745085e-001
6.271639e+003,1.714142e-001
6.275496e+003,1.678828e-001
6.279353e+003,1.622312e-001
6.283210e+003,1.574811e-001
6.287067e+003,1.630824e-001
6.290924e+003,1.621307e-001
6.294781e+003,1.594346e-001
6.298638e+003,1.619784e-001
6.302496e+003,1.741354e-001
6.306353e+003,1.755224e-001
6.310209e+003,1.697199e-001
6.314067e+003,1.742148e-001
6.317924e+003,1.792460e-001
6.321781e+003,1.736441e-001
6.325638e+003,1.656170e-001
6.329495e+003,1.667230e-001
6.333352e+003,1.735731e-001
6.337209e+003,1.728216e-001
6.341066e+003,1.727123e-001
6.344923e+003,1.677277e-001
6.348780e+003,1.627663e-001
6.352638e+003,1.647404e-001
6.356495e+003,1.776213e-001
6.360352e+003,1.757333e-001
6.364209e+003,1.603830e-001
6.368066e+003,1.639033e-001
6.371923e+003,1.748494e-001
6.375780e+003,1.714740e-001
6.379637e+003,1.714911e-001
6.383494e+003,1.784397e-001
6.387352e+003,1.790875e-001
6.391208e+003,1.689443e-001
6.395065e+003,1.673171e-001
6.398923e+003,1.676793e-001
6.402780e+003,1.691264e-001
6.406637e+003,1.830554e-001
6.410494e+003,1.811542e-001
6.414351e+003,1.666681e-001
6.418208e+003,1.595817e-001
6.422065e+003,1.594338e-001
6.425922e+003,1.686220e-001
6.429779e+003,1.724983e-001
6.433637e+003,1.722258e-001
6.437494e+003,1.773201e-001
6.441351e+003,1.727713e-001
6.445208e+003,1.645883e-001
6.449065e+003,1.659085e-001
6.452922e+003,1.665899e-001
6.456779e+003,1.743667e-001
6.460636e+003,1.808049e-001
6.464493e+003,1.799223e-001
6.468351e+003,1.775068e-001
6.472208e+003,1.766615e-001
6.476064e+003,1.759869e-001
6.479922e+003,1.736712e-001
6.483779e+003,1.683437e-001
6.487636e+003,1.696282e-001
6.491493e+003,1.709914e-001
6.495350e+003,1.652447e-001
6.499207e+003,1.684413e-001
6.503064e+003,1.865664e-001
6.506921e+003,1.859558e-001
6.510778e+003,1.725891e-001
6.514636e+003,1.698222e-001
6.518493e+003,1.619877e-001
6.522350e+003,1.535475e-001
6.526207e+003,1.567557e-001
6.530064e+003,1.616058e-001
6.533921e+003,1.762202e-001
6.537778e+003,1.797744e-001
6.541635e+003,1.810392e-001
6.545492e+003,1.833782e-001
6.549350e+003,1.815116e-001
6.553207e+003,1.836053e-001
6.557063e+003,1.765946e-001
6.560921e+003,1.659404e-001
6.564778e+003,1.616082e-001
6.568635e+003,1.608177e-001
6.572492e+003,1.717325e-001
6.576349e+003,1.704359e-001
6.580206e+003,1.716117e-001
6.584063e+003,1.771801e-001
6.587920e+003,1.784732e-001
6.591777e+003,1.798700e-001
6.595635e+003,1.765936e-001
6.599492e+003,1.737906e-001
6.603349e+003,1.809606e-001
6.607206e+003,1.775034e-001
6.611063e+003,1.711944e-001
6.614920e+003,1.850182e-001
6.618777e+003,1.860221e-001
6.622634e+003,1.876482e-001
6.626491e+003,1.908887e-001
6.630349e+003,1.740565e-001
6.634206e+003,1.639293e-001
6.638063e+003,1.640979e-001
6.641920e+003,1.759828e-001
6.645777e+003,1.787222e-001
6.649634e+003,1.687479e-001
6.653491e+003,1.838783e-001
6.657348e+003,1.936501e-001
6.661205e+003,1.925565e-001
6.665063e+003,1.783169e-001
6.668919e+003,1.797242e-001
6.672776e+003,1.882363e-001
6.676634e+003,1.821271e-001
6.680491e+003,1.738933e-001
6.684348e+003,1.709792e-001
6.688205e+003,1.819378e-001
6.692062e+003,1.904461e-001
6.695919e+003,1.790589e-001
6.699776e+003,1.704113e-001
6.703633e+003,1.784564e-001
6.707490e+003,1.837786e-001
6.711348e+003,1.749335e-001
6.715205e+003,1.720733e-001
6.719062e+003,1.739410e-001
6.722919e+003,1.782041e-001
6.726776e+003,1.807958e-001
6.730633e+003,1.763044e-001
6.734490e+003,1.789430e-001
6.738347e+003,1.889520e-001
6.742204e+003,1.796296e-001
6.746062e+003,1.631514e-001
6.749918e+003,1.601100e-001
6.753775e+003,1.707162e-001
6.757633e+003,1.753040e-001
6.761490e+003,1.778982e-001
6.765347e+003,1.714372e-001
6.769204e+003,1.620733e-001
6.773061e+003,1.650819e-001
6.776918e+003,1.746066e-001
6.780775e+003,1.729670e-001
6.784632e+003,1.656933e-001
6.788489e+003,1.775969e-001
6.792347e+003,1.896277e-001
6.796204e+003,1.973450e-001
6.800061e+003,2.013965e-001
6.803918e+003,1.912272e-001
6.807775e+003,1.678888e-001
6.811632e+003,1.664970e-001
6.815489e+003,1.810039e-001
6.819346e+003,1.899035e-001
6.823203e+003,1.796228e-001
6.827061e+003,1.797194e-001
6.830917e+003,1.853874e-001
6.834774e+003,1.651632e-001
6.838632e+003,1.564204e-001
6.842489e+003,1.718929e-001
6.846346e+003,1.837481e-001
6.850203e+003,1.767983e-001
6.854060e+003,1.720041e-001
6.857917e+003,1.703518e-001
6.861774e+003,1.664878e-001
6.865631e+003,1.704021e-001
6.869488e+003,1.814357e-001
6.873346e+003,1.863700e-001
6.877203e+003,1.838899e-001
6.881060e+003,1.748914e-001
6.884917e+003,1.696628e-001
6.888774e+003,1.535428e-001
6.892631e+003,1.517581e-001
6.896488e+003,1.582956e-001
6.900345e+003,1.637405e-001
6.904202e+003,1.678861e-001
6.908060e+003,1.730113e-001
6.911917e+003,1.710560e-001
6.915773e+003,1.750399e-001
6.919631e+003,1.754828e-001
6.923488e+003,1.656360e-001
6.927345e+003,1.628478e-001
6.931202e+003,1.663243e-001
6.935059e+003,1.717926e-001
6.938916e+003,1.753640e-001
6.942773e+003,1.697021e-001
6.946630e+003,1.761656e-001
6.950487e+003,1.878364e-001
6.954345e+003,1.802803e-001
6.958202e+003,1.777728e-001
6.962059e+003,1.886446e-001
6.965916e+003,1.876792e-001
6.969773e+003,1.892437e-001
6.973630e+003,1.920037e-001
6.977487e+003,1.852643e-001
6.981344e+003,1.755386e-001
6.985201e+003,1.727416e-001
6.989059e+003,1.777592e-001
6.992916e+003,1.903111e-001
6.996772e+003,1.805789e-001
7.000630e+003,1.655832e-001
7.004487e+003,1.554297e-001
7.008344e+003,1.610231e-001
7.012201e+003,1.785675e-001
7.016058e+003,1.795710e-001
7.019915e+003,1.549104e-001
7.023772e+003,1.498910e-001
7.027629e+003,1.652619e-001
7.031486e+003,1.703088e-001
7.035344e+003,1.701040e-001
7.039201e+003,1.673786e-001
7.043058e+003,1.733465e-001
7.046915e+003,1.758349e-001
7.050772e+003,1.806579e-001
7.054629e+003,1.678659e-001
7.058486e+003,1.594793e-001
7.062343e+003,1.615943e-001
7.066200e+003,1.619267e-001
7.070058e+003,1.769680e-001
7.073915e+003,1.752504e-001
7.077771e+003,1.719558e-001
7.081629e+003,1.792282e-001
7.085486e+003,1.822758e-001
7.089343e+003,1.945539e-001
7.093200e+003,1.830788e-001
7.097057e+003,1.822425e-001
7.100914e+003,1.863320e-001
7.104771e+003,1.675324e-001
7.108628e+003,1.539522e-001
7.112485e+003,1.516382e-001
7.116343e+003,1.607276e-001
7.120200e+003,1.881595e-001
7.124057e+003,2.019531e-001
7.127914e+003,1.704558e-001
7.131771e+003,1.447850e-001
7.135628e+003,1.677485e-001
7.139485e+003,1.812764e-001
7.143342e+003,1.686788e-001
7.147199e+003,1.608035e-001
7.151057e+003,1.576459e-001
7.154914e+003,1.643234e-001
7.158771e+003,1.770269e-001
7.162628e+003,1.744124e-001
7.166485e+003,1.615837e-001
7.170342e+003,1.527424e-001
7.174199e+003,1.526786e-001
7.178056e+003,1.535817e-001
7.181913e+003,1.605546e-001
7.185771e+003,1.548777e-001
7.189627e+003,1.677062e-001
7.193484e+003,1.704637e-001
7.197342e+003,1.554105e-001
7.201199e+003,1.605607e-001
7.205056e+003,1.579966e-001
7.208913e+003,1.720490e-001
7.212770e+003,1.805137e-001
7.216627e+003,1.580725e-001
7.220484e+003,1.535609e-001
7.224341e+003,1.534685e-001
7.228198e+003,1.363819e-001
7.232056e+003,1.326544e-001
7.235913e+003,1.541201e-001
7.239770e+003,1.692339e-001
7.243627e+003,1.770538e-001
7.247484e+003,1.630108e-001
7.251341e+003,1.435550e-001
7.255198e+003,1.425043e-001
7.259055e+003,1.557097e-001
7.262912e+003,1.828368e-001
7.266770e+003,1.954087e-001
7.270626e+003,1.757299e-001
7.274483e+003,1.837073e-001
7.278341e+003,2.029241e-001
7.282198e+003,1.848493e-001
7.286055e+003,1.560184e-001
7.289912e+003,1.565770e-001
7.293769e+003,1.773302e-001
7.297626e+003,1.848477e-001
7.301483e+003,1.705765e-001
7.305340e+003,1.478107e-001
7.309197e+003,1.419783e-001
7.313055e+003,1.612688e-001
7.316912e+003,1.560996e-001
7.320769e+003,1.168759e-001
7.324626e+003,1.072823e-001
7.328483e+003,1.169894e-001
7.332340e+003,1.493960e-001
7.336197e+003,1.848192e-001
7.340054e+003,1.762235e-001
7.343911e+003,1.598124e-001
7.347769e+003,1.742636e-001
7.351625e+003,2.032707e-001
7.355482e+003,2.129424e-001
7.359340e+003,1.970098e-001
7.363197e+003,1.847776e-001
7.367054e+003,1.973609e-001
7.370911e+003,1.837267e-001
7.374768e+003,1.630461e-001
7.378625e+003,1.564295e-001
7.382482e+003,1.461452e-001
7.386339e+003,1.660861e-001
7.390196e+003,1.683262e-001
7.394054e+003,1.397671e-001
7.397911e+003,1.209403e-001
7.401768e+003,1.468002e-001
7.405625e+003,1.736507e-001
7.409482e+003,1.741689e-001
7.413339e+003,1.673214e-001
7.417196e+003,1.590463e-001
7.421053e+003,1.349412e-001
7.424910e+003,1.246459e-001
7.428768e+003,1.238787e-001
7.432625e+003,1.385817e-001
7.436481e+003,1.476331e-001
7.440339e+003,1.268893e-001
7.444196e+003,1.321975e-001
7.448053e+003,1.474973e-001
7.451910e+003,1.504258e-001
7.455767e+003,1.478962e-001
7.459624e+003,1.305082e-001
7.463481e+003,1.433771e-001
7.467338e+003,1.806379e-001
7.471195e+003,1.706580e-001
7.475053e+003,1.642735e-001
7.478910e+003,1.500157e-001
7.482767e+003,1.475625e-001
7.486624e+003,1.592323e-001
7.490481e+003,1.752026e-001
7.494338e+003,1.692333e-001
7.498195e+003,1.695092e-001
7.502052e+003,1.563024e-001
7.505909e+003,1.186766e-001
7.509767e+003,1.187219e-001
7.513624e+003,1.552225e-001
7.517480e+003,1.731955e-001
7.521338e+003,1.700796e-001
7.525195e+003,1.723053e-001
7.529052e+003,1.496374e-001
7.532909e+003,1.504290e-001
7.536766e+003,1.856416e-001
7.540623e+003,2.436317e-001
7.544480e+003,2.502813e-001
7.548337e+003,2.239148e-001
7.552194e+003,1.998918e-001
7.556052e+003,1.780638e-001
7.559909e+003,1.473387e-001
7.563766e+003,1.326433e-001
7.567623e+003,1.413596e-001
7.571480e+003,1.239143e-001
7.575337e+003,1.150644e-001
7.579194e+003,1.294457e-001
7.583051e+003,1.209427e-001
7.586908e+003,1.593585e-001
7.590766e+003,1.507296e-001
7.594623e+003,1.155878e-001
7.598479e+003,1.509847e-001
7.602337e+003,1.535954e-001
7.606194e+003,1.486477e-001
7.610051e+003,1.542533e-001
7.613908e+003,1.702598e-001
7.617765e+003,1.797318e-001
7.621622e+003,1.806412e-001
7.625479e+003,1.526736e-001
7.629336e+003,1.691066e-001
7.633193e+003,1.826463e-001
7.637051e+003,1.452957e-001
7.640908e+003,1.375846e-001
7.644765e+003,1.466014e-001
7.648622e+003,1.827508e-001
7.652479e+003,2.010335e-001
7.656336e+003,1.454580e-001
7.660193e+003,1.138893e-001
7.664050e+003,1.500794e-001
7.667907e+003,1.536283e-001
7.671765e+003,1.466247e-001
7.675622e+003,1.836006e-001
7.679479e+003,2.265581e-001
7.683336e+003,2.136516e-001
7.687193e+003,1.672727e-001
7.691050e+003,1.560282e-001
7.694907e+003,1.859655e-001
7.698764e+003,1.924962e-001
7.702621e+003,1.507419e-001
7.706479e+003,1.419891e-001
7.710335e+003,1.683806e-001
7.714192e+003,1.339529e-001
7.718050e+003,1.664985e-001
7.721907e+003,2.267885e-001
7.725764e+003,2.034528e-001
7.729621e+003,1.495375e-001
7.733478e+003,1.146698e-001
7.737335e+003,1.306855e-001
7.741192e+003,1.793416e-001
7.745049e+003,1.736701e-001
7.748906e+003,1.707268e-001
7.752764e+003,1.784635e-001
7.756621e+003,1.368745e-001
7.760478e+003,1.369985e-001
7.764335e+003,1.479557e-001
7.768192e+003,1.374750e-001
7.772049e+003,1.401154e-001
7.775906e+003,1.465622e-001
7.779763e+003,1.500278e-001
7.783620e+003,1.521159e-001
7.787478e+003,1.481908e-001
7.791334e+003,1.565579e-001
7.795191e+003,1.985684e-001
7.799049e+003,1.487322e-001
7.802906e+003,1.583651e-001
7.806763e+003,2.047010e-001
7.810620e+003,1.858124e-001
7.814477e+003,1.722521e-001
7.818334e+003,1.558868e-001
7.822191e+003,2.020025e-001
7.826048e+003,2.346330e-001
7.829905e+003,1.546884e-001
7.833763e+003,1.566325e-001
7.837620e+003,2.107496e-001
7.841477e+003,1.794832e-001
7.845334e+003,1.027753e-001
7.849191e+003,1.501207e-001
7.853048e+003,1.990089e-001
7.856905e+003,1.624172e-001
7.860762e+003,1.017754e-001
7.864619e+003,1.233578e-001
7.868477e+003,1.795882e-001
7.872333e+003,1.778519e-001
7.876190e+003,1.569546e-001
7.880048e+003,1.963669e-001
7.883905e+003,2.042618e-001
7.887762e+003,1.757720e-001
7.891619e+003,1.553804e-001
7.895476e+003,1.818809e-001
7.899333e+003,1.822543e-001
7.903190e+003,1.738322e-001
7.907047e+003,1.935914e-001
7.910904e+003,1.852029e-001
7.914762e+003,1.710290e-001
7.918619e+003,1.788943e-001
7.922476e+003,1.785538e-001
7.926333e+003,1.398852e-001
7.930190e+003,1.310462e-001
7.934047e+003,1.163051e-001
7.937904e+003,1.482887e-001
7.941761e+003,1.235403e-001
7.945618e+003,1.493025e-001
7.949476e+003,1.598000e-001
7.953333e+003,1.097163e-001
7.957189e+003,9.960116e-002
7.961047e+003,1.328433e-001
7.964904e+003,2.055598e-001
7.968761e+003,2.019787e-001
7.972618e+003,2.262222e-001
7.976475e+003,2.533084e-001
7.980332e+003,2.597797e-001
7.984189e+003,1.872328e-001
7.988046e+003,1.427360e-001
7.991903e+003,1.967301e-001
7.995761e+003,2.620929e-001
7.999618e+003,3.086158e-001
