4.011380e+002,3.546624e-001
4.049951e+002,6.000000e+000
4.088522e+002,4.528820e-002
4.127093e+002,6.000000e+000
4.165664e+002,6.000000e+000
4.204235e+002,6.000000e+000
4.242806e+002,6.000000e+000
4.281377e+002,6.000000e+000
4.319948e+002,6.000000e+000
4.358519e+002,6.000000e+000
4.397090e+002,6.000000e+000
4.435661e+002,6.000000e+000
4.474232e+002,6.000000e+000
4.512803e+002,6.000000e+000
4.551374e+002,6.000000e+000
4.589945e+002,9.897382e-002
4.628516e+002,1.320681e-001
4.667087e+002,1.568497e-001
4.705658e+002,5.638443e-001
4.744229e+002,6.000000e+000
4.782800e+002,-5.172615e-001
4.821371e+002,-7.048526e-001
4.859941e+002,6.000000e+000
4.898513e+002,6.000000e+000
4.937083e+002,-1.699876e-001
4.975654e+002,2.358846e-001
5.014225e+002,-6.224055e-001
5.052796e+002,-1.187042e-001
5.091367e+002,-4.641965e-001
5.129938e+002,-4.016968e-001
5.168509e+002,6.000000e+000
5.207080e+002,6.000000e+000
5.245651e+002,6.000000e+000
5.284222e+002,6.000000e+000
5.322793e+002,6.000000e+000
5.361364e+002,6.000000e+000
5.399935e+002,6.000000e+000
5.438506e+002,2.560004e-001
5.477077e+002,-2.548624e-001
5.515648e+002,-1.234277e+000
5.554219e+002,6.000000e+000
5.592790e+002,3.031735e-001
5.631361e+002,-1.416893e-001
5.669932e+002,6.000000e+000
5.708503e+002,6.000000e+000
5.747074e+002,6.000000e+000
5.785645e+002,2.479580e-001
5.824216e+002,6.000000e+000
5.862787e+002,6.000000e+000
5.901357e+002,6.000000e+000
5.939929e+002,6.000000e+000
5.978499e+002,6.000000e+000
6.017070e+002,6.000000e+000
6.055641e+002,6.000000e+000
6.094212e+002,6.000000e+000
6.132783e+002,6.000000e+000
6.171354e+002,6.000000e+000
6.209925e+002,-5.747862e-001
6.248496e+002,-6.441331e-001
6.287067e+002,1.725786e-001
6.325638e+002,5.638289e-001
6.364209e+002,6.000000e+000
6.402780e+002,-4.467905e-001
6.441351e+002,6.000000e+000
6.479922e+002,2.096550e-001
6.518493e+002,6.000000e+000
6.557064e+002,6.000000e+000
6.595635e+002,6.000000e+000
6.634205e+002,6.000000e+000
6.672777e+002,8.854606e-001
6.711348e+002,2.985283e-001
6.749918e+002,-8.685119e-002
6.788490e+002,-4.147275e-001
6.827061e+002,-5.804926e-002
6.865631e+002,1.054357e+000
6.904203e+002,5.726127e-001
6.942773e+002,4.517558e-001
6.981344e+002,2.933630e-001
7.019916e+002,5.898176e-002
7.058486e+002,6.000000e+000
7.097057e+002,3.265026e-001
7.135629e+002,6.000000e+000
7.174199e+002,-1.478174e-001
7.212770e+002,6.000000e+000
7.251342e+002,2.312011e-002
7.289912e+002,6.000000e+000
7.328483e+002,6.000000e+000
7.367054e+002,6.000000e+000
7.405625e+002,6.000000e+000
7.444196e+002,-3.667220e-001
7.482767e+002,-1.644519e-001
7.521338e+002,6.000000e+000
7.559908e+002,-4.992154e-001
7.598480e+002,7.436084e-002
7.637051e+002,6.000000e+000
7.675621e+002,6.000000e+000
7.714193e+002,6.000000e+000
7.752764e+002,-9.512311e-001
7.791334e+002,6.000000e+000
7.829905e+002,7.565992e-001
7.868477e+002,5.389757e-001
7.907047e+002,-4.672627e-001
7.945618e+002,-3.963878e-001
7.984189e+002,4.151675e-001
8.022760e+002,2.349577e-001
8.061331e+002,1.978173e-001
8.099902e+002,6.856331e-001
8.138473e+002,6.000000e+000
8.177044e+002,8.761239e-001
8.215615e+002,7.082412e-001
8.254186e+002,2.129286e+000
8.292757e+002,8.873868e-001
8.331328e+002,1.114266e+000
8.369899e+002,6.000000e+000
8.408470e+002,2.239727e+000
8.447041e+002,8.805717e-001
8.485612e+002,9.146721e-001
8.524183e+002,1.100648e+000
8.562754e+002,1.415245e+000
8.601324e+002,1.559733e+000
8.639896e+002,1.371920e+000
8.678467e+002,1.332611e+000
8.717037e+002,1.838639e+000
8.755609e+002,1.745174e+000
8.794180e+002,1.373660e+000
8.832750e+002,1.676159e+000
8.871321e+002,2.398021e+000
8.909893e+002,1.605109e+000
8.948463e+002,1.316836e+000
8.987034e+002,1.524205e+000
9.025605e+002,1.603454e+000
9.064176e+002,2.722933e+000
9.102747e+002,6.000000e+000
9.141318e+002,6.000000e+000
9.179889e+002,2.252522e+000
9.218461e+002,2.211596e+000
9.257031e+002,2.368991e+000
9.295602e+002,1.545604e+000
9.334174e+002,1.577095e+000
9.372744e+002,2.476710e+000
9.411315e+002,6.000000e+000
9.449886e+002,6.000000e+000
9.488457e+002,6.000000e+000
9.527028e+002,6.000000e+000
9.565599e+002,6.000000e+000
9.604170e+002,3.916799e+000
9.642740e+002,6.000000e+000
9.681312e+002,6.000000e+000
9.719883e+002,2.048142e+000
9.758453e+002,2.300992e+000
9.797025e+002,6.000000e+000
9.835596e+002,6.000000e+000
9.874166e+002,2.232550e+000
9.912738e+002,1.904656e+000
9.951309e+002,2.267070e+000
9.989879e+002,2.109040e+000
1.002845e+003,2.109782e+000
1.006702e+003,1.992533e+000
1.010559e+003,1.917646e+000
1.014416e+003,2.108147e+000
1.018273e+003,2.176593e+000
1.022130e+003,2.016943e+000
1.025988e+003,1.999802e+000
1.029845e+003,2.150982e+000
1.033702e+003,2.103197e+000
1.037559e+003,2.187590e+000
1.041416e+003,2.034949e+000
1.045273e+003,1.993234e+000
1.049130e+003,1.923840e+000
1.052987e+003,1.995473e+000
1.056844e+003,2.156369e+000
1.060702e+003,1.936874e+000
1.064559e+003,1.885619e+000
1.068416e+003,1.939851e+000
1.072273e+003,1.821594e+000
1.076130e+003,1.769158e+000
1.079987e+003,1.816802e+000
1.083844e+003,1.726168e+000
1.087701e+003,1.708309e+000
1.091558e+003,1.766450e+000
1.095415e+003,1.727897e+000
1.099272e+003,1.698039e+000
1.103130e+003,1.740862e+000
1.106987e+003,1.785210e+000
1.110844e+003,1.872856e+000
1.114701e+003,1.862053e+000
1.118558e+003,1.895614e+000
1.122415e+003,1.872438e+000
1.126272e+003,1.756551e+000
1.130129e+003,1.708903e+000
1.133986e+003,1.692457e+000
1.137843e+003,1.700914e+000
1.141701e+003,1.667307e+000
1.145558e+003,1.630195e+000
1.149415e+003,1.672139e+000
1.153272e+003,1.661595e+000
1.157129e+003,1.583717e+000
1.160986e+003,1.601173e+000
1.164843e+003,1.627922e+000
1.168700e+003,1.612714e+000
1.172557e+003,1.657082e+000
1.176414e+003,1.706400e+000
1.180271e+003,1.621560e+000
1.184129e+003,1.603402e+000
1.187986e+003,1.607039e+000
1.191843e+003,1.591936e+000
1.195700e+003,1.603884e+000
1.199557e+003,1.593956e+000
1.203414e+003,1.566924e+000
1.207271e+003,1.540862e+000
1.211128e+003,1.539112e+000
1.214985e+003,1.553167e+000
1.218842e+003,1.493860e+000
1.222699e+003,1.411278e+000
1.226557e+003,1.342114e+000
1.230414e+003,1.248795e+000
1.234271e+003,1.158455e+000
1.238128e+003,1.101586e+000
1.241985e+003,1.044643e+000
1.245842e+003,9.955274e-001
1.249699e+003,9.490721e-001
1.253556e+003,9.045382e-001
1.257413e+003,8.702812e-001
1.261271e+003,8.338112e-001
1.265128e+003,7.952252e-001
1.268985e+003,7.591424e-001
1.272842e+003,7.352158e-001
1.276699e+003,7.221285e-001
1.280556e+003,7.080906e-001
1.284413e+003,6.889240e-001
1.288270e+003,6.658311e-001
1.292127e+003,6.446828e-001
1.295984e+003,6.302005e-001
1.299841e+003,6.205683e-001
1.303698e+003,6.050422e-001
1.307556e+003,5.888942e-001
1.311413e+003,5.778140e-001
1.315270e+003,5.692725e-001
1.319127e+003,5.645144e-001
1.322984e+003,5.589479e-001
1.326841e+003,5.502107e-001
1.330698e+003,5.449493e-001
1.334555e+003,5.396258e-001
1.338412e+003,5.356334e-001
1.342270e+003,5.332431e-001
1.346127e+003,5.290452e-001
1.349984e+003,5.300667e-001
1.353841e+003,5.297104e-001
1.357698e+003,5.295410e-001
1.361555e+003,5.343776e-001
1.365412e+003,5.416779e-001
1.369269e+003,5.499948e-001
1.373126e+003,5.607757e-001
1.376983e+003,5.696597e-001
1.380840e+003,5.779119e-001
1.384698e+003,5.891486e-001
1.388555e+003,6.032534e-001
1.392412e+003,6.232738e-001
1.396269e+003,6.437311e-001
1.400126e+003,6.571820e-001
1.403983e+003,6.731066e-001
1.407840e+003,6.969598e-001
1.411697e+003,7.157160e-001
1.415554e+003,7.317722e-001
1.419411e+003,7.481800e-001
1.423269e+003,7.545597e-001
1.427126e+003,7.601116e-001
1.430983e+003,7.665052e-001
1.434840e+003,7.672070e-001
1.438697e+003,7.626457e-001
1.442554e+003,7.617456e-001
1.446411e+003,7.591147e-001
1.450268e+003,7.491766e-001
1.454125e+003,7.374002e-001
1.457982e+003,7.263620e-001
1.461839e+003,7.117155e-001
1.465697e+003,6.965618e-001
1.469554e+003,6.934739e-001
1.473411e+003,6.975163e-001
1.477268e+003,7.077143e-001
1.481125e+003,7.169183e-001
1.484982e+003,7.227620e-001
1.488839e+003,7.348464e-001
1.492696e+003,7.466179e-001
1.496553e+003,7.604194e-001
1.500411e+003,7.721789e-001
1.504268e+003,7.806686e-001
1.508125e+003,7.873630e-001
1.511982e+003,7.846854e-001
1.515839e+003,7.810867e-001
1.519696e+003,7.789647e-001
1.523553e+003,7.729157e-001
1.527410e+003,7.563452e-001
1.531267e+003,7.411424e-001
1.535124e+003,7.249467e-001
1.538981e+003,7.080099e-001
1.542839e+003,6.880462e-001
1.546696e+003,6.723013e-001
1.550553e+003,6.607992e-001
1.554410e+003,6.450380e-001
1.558267e+003,6.328531e-001
1.562124e+003,6.214015e-001
1.565981e+003,6.090567e-001
1.569838e+003,5.966827e-001
1.573695e+003,5.910450e-001
1.577552e+003,5.862885e-001
1.581410e+003,5.823798e-001
1.585267e+003,5.789919e-001
1.589124e+003,5.802735e-001
1.592981e+003,5.892517e-001
1.596838e+003,5.995129e-001
1.600695e+003,6.119910e-001
1.604552e+003,6.287776e-001
1.608409e+003,6.554307e-001
1.612266e+003,6.885233e-001
1.616123e+003,7.237753e-001
1.619980e+003,7.557541e-001
1.623838e+003,7.798810e-001
1.627695e+003,8.040273e-001
1.631552e+003,8.224446e-001
1.635409e+003,8.291637e-001
1.639266e+003,8.259546e-001
1.643123e+003,8.166758e-001
1.646980e+003,8.054960e-001
1.650837e+003,7.862834e-001
1.654694e+003,7.600794e-001
1.658551e+003,7.366473e-001
1.662409e+003,7.143333e-001
1.666266e+003,6.859706e-001
1.670123e+003,6.558842e-001
1.673980e+003,6.264125e-001
1.677837e+003,6.026128e-001
1.681694e+003,5.801462e-001
1.685551e+003,5.580995e-001
1.689408e+003,5.430952e-001
1.693265e+003,5.281441e-001
1.697122e+003,5.111544e-001
1.700979e+003,4.965425e-001
1.704837e+003,4.899569e-001
1.708694e+003,4.869426e-001
1.712551e+003,4.795770e-001
1.716408e+003,4.742973e-001
1.720265e+003,4.703047e-001
1.724122e+003,4.667863e-001
1.727979e+003,4.607330e-001
1.731836e+003,4.551242e-001
1.735693e+003,4.509138e-001
1.739550e+003,4.486715e-001
1.743408e+003,4.473578e-001
1.747265e+003,4.449469e-001
1.751122e+003,4.432643e-001
1.754979e+003,4.438912e-001
1.758836e+003,4.450734e-001
1.762693e+003,4.432170e-001
1.766550e+003,4.434628e-001
1.770407e+003,4.458739e-001
1.774264e+003,4.466794e-001
1.778121e+003,4.432252e-001
1.781979e+003,4.392550e-001
1.785836e+003,4.386344e-001
1.789693e+003,4.352906e-001
1.793550e+003,4.290462e-001
1.797407e+003,4.247468e-001
1.801264e+003,4.225275e-001
1.805121e+003,4.191120e-001
1.808978e+003,4.184066e-001
1.812835e+003,4.195256e-001
1.816692e+003,4.170556e-001
1.820549e+003,4.147245e-001
1.824407e+003,4.123614e-001
1.828264e+003,4.110036e-001
1.832121e+003,4.104545e-001
1.835978e+003,4.102984e-001
1.839835e+003,4.093153e-001
1.843692e+003,4.060737e-001
1.847549e+003,4.026795e-001
1.851406e+003,4.009836e-001
1.855263e+003,4.003051e-001
1.859120e+003,3.988858e-001
1.862978e+003,3.947057e-001
1.866835e+003,3.920810e-001
1.870692e+003,3.907734e-001
1.874549e+003,3.884624e-001
1.878406e+003,3.858169e-001
1.882263e+003,3.844917e-001
1.886120e+003,3.839365e-001
1.889977e+003,3.822728e-001
1.893834e+003,3.841541e-001
1.897691e+003,3.850046e-001
1.901548e+003,3.821681e-001
1.905406e+003,3.799495e-001
1.909263e+003,3.788285e-001
1.913120e+003,3.762887e-001
1.916977e+003,3.744473e-001
1.920834e+003,3.748323e-001
1.924691e+003,3.752351e-001
1.928548e+003,3.748363e-001
1.932405e+003,3.719516e-001
1.936262e+003,3.701466e-001
1.940119e+003,3.701167e-001
1.943977e+003,3.681141e-001
1.947834e+003,3.648631e-001
1.951691e+003,3.629425e-001
1.955548e+003,3.614132e-001
1.959405e+003,3.602298e-001
1.963262e+003,3.621697e-001
1.967119e+003,3.615874e-001
1.970976e+003,3.570890e-001
1.974833e+003,3.549317e-001
1.978690e+003,3.540699e-001
1.982547e+003,3.531151e-001
1.986405e+003,3.527548e-001
1.990262e+003,3.509110e-001
1.994119e+003,3.495778e-001
1.997976e+003,3.496643e-001
2.001833e+003,3.481677e-001
2.005690e+003,3.459891e-001
2.009547e+003,3.451679e-001
2.013404e+003,3.434829e-001
2.017261e+003,3.425898e-001
2.021118e+003,3.434102e-001
2.024976e+003,3.417502e-001
2.028833e+003,3.406797e-001
2.032690e+003,3.395242e-001
2.036547e+003,3.374552e-001
2.040404e+003,3.371317e-001
2.044261e+003,3.364035e-001
2.048118e+003,3.335498e-001
2.051975e+003,3.312919e-001
2.055832e+003,3.292332e-001
2.059689e+003,3.275261e-001
2.063546e+003,3.238727e-001
2.067404e+003,3.230450e-001
2.071261e+003,3.256174e-001
2.075118e+003,3.252705e-001
2.078975e+003,3.251955e-001
2.082832e+003,3.250512e-001
2.086689e+003,3.242013e-001
2.090546e+003,3.235827e-001
2.094403e+003,3.235321e-001
2.098260e+003,3.219870e-001
2.102117e+003,3.214059e-001
2.105975e+003,3.226994e-001
2.109832e+003,3.248268e-001
2.113689e+003,3.250507e-001
2.117546e+003,3.242813e-001
2.121403e+003,3.224961e-001
2.125260e+003,3.230460e-001
2.129117e+003,3.234656e-001
2.132974e+003,3.227445e-001
2.136831e+003,3.219044e-001
2.140688e+003,3.206108e-001
2.144545e+003,3.208812e-001
2.148403e+003,3.207948e-001
2.152260e+003,3.197588e-001
2.156117e+003,3.192318e-001
2.159974e+003,3.195561e-001
2.163831e+003,3.216570e-001
2.167688e+003,3.253912e-001
2.171545e+003,3.263367e-001
2.175402e+003,3.251860e-001
2.179259e+003,3.239922e-001
2.183116e+003,3.252916e-001
2.186974e+003,3.266763e-001
2.190831e+003,3.262245e-001
2.194688e+003,3.253779e-001
2.198545e+003,3.250473e-001
2.202402e+003,3.269720e-001
2.206259e+003,3.282453e-001
2.210116e+003,3.284502e-001
2.213973e+003,3.288800e-001
2.217830e+003,3.293179e-001
2.221688e+003,3.305104e-001
2.225544e+003,3.311389e-001
2.229402e+003,3.315493e-001
2.233259e+003,3.333645e-001
2.237116e+003,3.370206e-001
2.240973e+003,3.377860e-001
2.244830e+003,3.361286e-001
2.248687e+003,3.358327e-001
2.252544e+003,3.376144e-001
2.256401e+003,3.390562e-001
2.260258e+003,3.408057e-001
2.264115e+003,3.414410e-001
2.267973e+003,3.393440e-001
2.271830e+003,3.375890e-001
2.275687e+003,3.371905e-001
2.279544e+003,3.407312e-001
2.283401e+003,3.420484e-001
2.287258e+003,3.418399e-001
2.291115e+003,3.450175e-001
2.294972e+003,3.460459e-001
2.298829e+003,3.470172e-001
2.302687e+003,3.493479e-001
2.306543e+003,3.503755e-001
2.310401e+003,3.494397e-001
2.314258e+003,3.487683e-001
2.318115e+003,3.503966e-001
2.321972e+003,3.540413e-001
2.325829e+003,3.532710e-001
2.329686e+003,3.509653e-001
2.333543e+003,3.513779e-001
2.337400e+003,3.524888e-001
2.341257e+003,3.527100e-001
2.345115e+003,3.510588e-001
2.348972e+003,3.507386e-001
2.352829e+003,3.488397e-001
2.356686e+003,3.489250e-001
2.360543e+003,3.557915e-001
2.364400e+003,3.572621e-001
2.368257e+003,3.533135e-001
2.372114e+003,3.526781e-001
2.375971e+003,3.545470e-001
2.379828e+003,3.554005e-001
2.383686e+003,3.547232e-001
2.387542e+003,3.565466e-001
2.391400e+003,3.569039e-001
2.395257e+003,3.561255e-001
2.399114e+003,3.548791e-001
2.402971e+003,3.542783e-001
2.406828e+003,3.531720e-001
2.410685e+003,3.502563e-001
2.414542e+003,3.478611e-001
2.418399e+003,3.465237e-001
2.422256e+003,3.476884e-001
2.426114e+003,3.474952e-001
2.429971e+003,3.456796e-001
2.433828e+003,3.468208e-001
2.437685e+003,3.492368e-001
2.441542e+003,3.487595e-001
2.445399e+003,3.466873e-001
2.449256e+003,3.467630e-001
2.453113e+003,3.484741e-001
2.456970e+003,3.485762e-001
2.460827e+003,3.482898e-001
2.464684e+003,3.474565e-001
2.468542e+003,3.447473e-001
2.472399e+003,3.425885e-001
2.476256e+003,3.440325e-001
2.480113e+003,3.460593e-001
2.483970e+003,3.450264e-001
2.487827e+003,3.436138e-001
2.491684e+003,3.427325e-001
2.495541e+003,3.416068e-001
2.499398e+003,3.431863e-001
2.503255e+003,3.449800e-001
2.507113e+003,3.462469e-001
2.510969e+003,3.474097e-001
2.514827e+003,3.484046e-001
2.518684e+003,3.477587e-001
2.522541e+003,3.481803e-001
2.526398e+003,3.491696e-001
2.530255e+003,3.509182e-001
2.534112e+003,3.505397e-001
2.537969e+003,3.499253e-001
2.541826e+003,3.518646e-001
2.545683e+003,3.510970e-001
2.549541e+003,3.505456e-001
2.553398e+003,3.531467e-001
2.557255e+003,3.560586e-001
2.561112e+003,3.577697e-001
2.564969e+003,3.584066e-001
2.568826e+003,3.600240e-001
2.572683e+003,3.626561e-001
2.576540e+003,3.649669e-001
2.580397e+003,3.682520e-001
2.584254e+003,3.705209e-001
2.588112e+003,3.721097e-001
2.591969e+003,3.737726e-001
2.595826e+003,3.743039e-001
2.599683e+003,3.781413e-001
2.603540e+003,3.821624e-001
2.607397e+003,3.832788e-001
2.611254e+003,3.845336e-001
2.615111e+003,3.850173e-001
2.618968e+003,3.878212e-001
2.622825e+003,3.907892e-001
2.626682e+003,3.941471e-001
2.630540e+003,3.995130e-001
2.634397e+003,4.019152e-001
2.638254e+003,4.021215e-001
2.642111e+003,4.049839e-001
2.645968e+003,4.080665e-001
2.649825e+003,4.124309e-001
2.653682e+003,4.170707e-001
2.657539e+003,4.202891e-001
2.661396e+003,4.222896e-001
2.665253e+003,4.267937e-001
2.669111e+003,4.328589e-001
2.672968e+003,4.363062e-001
2.676825e+003,4.377806e-001
2.680682e+003,4.423262e-001
2.684539e+003,4.451389e-001
2.688396e+003,4.469236e-001
2.692253e+003,4.499330e-001
2.696110e+003,4.520600e-001
2.699967e+003,4.541058e-001
2.703824e+003,4.588447e-001
2.707681e+003,4.659361e-001
2.711539e+003,4.705252e-001
2.715396e+003,4.742700e-001
2.719253e+003,4.782441e-001
2.723110e+003,4.835032e-001
2.726967e+003,4.883985e-001
2.730824e+003,4.916009e-001
2.734681e+003,4.969731e-001
2.738538e+003,5.017168e-001
2.742395e+003,5.012670e-001
2.746252e+003,5.048786e-001
2.750110e+003,5.093538e-001
2.753967e+003,5.117516e-001
2.757824e+003,5.117288e-001
2.761681e+003,5.173159e-001
2.765538e+003,5.259740e-001
2.769395e+003,5.310479e-001
2.773252e+003,5.368329e-001
2.777109e+003,5.437126e-001
2.780966e+003,5.496804e-001
2.784823e+003,5.562593e-001
2.788680e+003,5.606807e-001
2.792538e+003,5.651639e-001
2.796395e+003,5.687763e-001
2.800252e+003,5.719965e-001
2.804109e+003,5.767716e-001
2.807966e+003,5.785990e-001
2.811823e+003,5.827276e-001
2.815680e+003,5.887801e-001
2.819537e+003,5.962870e-001
2.823394e+003,6.002837e-001
2.827251e+003,6.034332e-001
2.831109e+003,6.107399e-001
2.834966e+003,6.146652e-001
2.838823e+003,6.220120e-001
2.842680e+003,6.319265e-001
2.846537e+003,6.396059e-001
2.850394e+003,6.450920e-001
2.854251e+003,6.504859e-001
2.858108e+003,6.568220e-001
2.861965e+003,6.620706e-001
2.865823e+003,6.669896e-001
2.869679e+003,6.673802e-001
2.873537e+003,6.708761e-001
2.877394e+003,6.815138e-001
2.881251e+003,6.895987e-001
2.885108e+003,6.966839e-001
2.888965e+003,7.030364e-001
2.892822e+003,7.085158e-001
2.896679e+003,7.096605e-001
2.900536e+003,7.148004e-001
2.904393e+003,7.227094e-001
2.908250e+003,7.291204e-001
2.912108e+003,7.405334e-001
2.915965e+003,7.535087e-001
2.919822e+003,7.563691e-001
2.923679e+003,7.610248e-001
2.927536e+003,7.684355e-001
2.931393e+003,7.706004e-001
2.935250e+003,7.752209e-001
2.939107e+003,7.829658e-001
2.942964e+003,7.865425e-001
2.946822e+003,7.886847e-001
2.950678e+003,7.962047e-001
2.954536e+003,8.062442e-001
2.958393e+003,8.101898e-001
2.962250e+003,8.169820e-001
2.966107e+003,8.270342e-001
2.969964e+003,8.269808e-001
2.973821e+003,8.329871e-001
2.977678e+003,8.425542e-001
2.981535e+003,8.458683e-001
2.985392e+003,8.595372e-001
2.989250e+003,8.662357e-001
2.993107e+003,8.711289e-001
2.996964e+003,8.815346e-001
3.000821e+003,8.862928e-001
3.004678e+003,8.919891e-001
3.008535e+003,9.042020e-001
3.012392e+003,9.093168e-001
3.016249e+003,9.122320e-001
3.020106e+003,9.259341e-001
3.023963e+003,9.314461e-001
3.027821e+003,9.349568e-001
3.031677e+003,9.423265e-001
3.035535e+003,9.475716e-001
3.039392e+003,9.560561e-001
3.043249e+003,9.663625e-001
3.047106e+003,9.701543e-001
3.050963e+003,9.733714e-001
3.054820e+003,9.796724e-001
3.058677e+003,9.950035e-001
3.062534e+003,1.003753e+000
3.066391e+003,1.014469e+000
3.070249e+003,1.027045e+000
3.074106e+003,1.038476e+000
3.077963e+003,1.043641e+000
3.081820e+003,1.045051e+000
3.085677e+003,1.053609e+000
3.089534e+003,1.062093e+000
3.093391e+003,1.064454e+000
3.097248e+003,1.069550e+000
3.101105e+003,1.071785e+000
3.104962e+003,1.081799e+000
3.108820e+003,1.088084e+000
3.112677e+003,1.089933e+000
3.116534e+003,1.095502e+000
3.120391e+003,1.105383e+000
3.124248e+003,1.125296e+000
3.128105e+003,1.136987e+000
3.131962e+003,1.138469e+000
3.135819e+003,1.146664e+000
3.139676e+003,1.153837e+000
3.143533e+003,1.161925e+000
3.147390e+003,1.170464e+000
3.151248e+003,1.173405e+000
3.155105e+003,1.182879e+000
3.158962e+003,1.197002e+000
3.162819e+003,1.193983e+000
3.166676e+003,1.204811e+000
3.170533e+003,1.232573e+000
3.174390e+003,1.245197e+000
3.178247e+003,1.243142e+000
3.182104e+003,1.249721e+000
3.185961e+003,1.250568e+000
3.189819e+003,1.274687e+000
3.193676e+003,1.291400e+000
3.197533e+003,1.269839e+000
3.201390e+003,1.271578e+000
3.205247e+003,1.284564e+000
3.209104e+003,1.316786e+000
3.212961e+003,1.335927e+000
3.216818e+003,1.327956e+000
3.220675e+003,1.325682e+000
3.224532e+003,1.321338e+000
3.228389e+003,1.339889e+000
3.232247e+003,1.354861e+000
3.236104e+003,1.357982e+000
3.239961e+003,1.346000e+000
3.243818e+003,1.331692e+000
3.247675e+003,1.347511e+000
3.251532e+003,1.366438e+000
3.255389e+003,1.383168e+000
3.259246e+003,1.370962e+000
3.263103e+003,1.372554e+000
3.266960e+003,1.391486e+000
3.270818e+003,1.400730e+000
3.274675e+003,1.410299e+000
3.278532e+003,1.408343e+000
3.282389e+003,1.403560e+000
3.286246e+003,1.425897e+000
3.290103e+003,1.421603e+000
3.293960e+003,1.384806e+000
3.297817e+003,1.399767e+000
3.301674e+003,1.431907e+000
3.305531e+003,1.456560e+000
3.309388e+003,1.483171e+000
3.313246e+003,1.475923e+000
3.317103e+003,1.449920e+000
3.320960e+003,1.460523e+000
3.324817e+003,1.489289e+000
3.328674e+003,1.514963e+000
3.332531e+003,1.560600e+000
3.336388e+003,1.545615e+000
3.340245e+003,1.520974e+000
3.344102e+003,1.511505e+000
3.347959e+003,1.511888e+000
3.351817e+003,1.498735e+000
3.355674e+003,1.486893e+000
3.359531e+003,1.483991e+000
3.363388e+003,1.501823e+000
3.367245e+003,1.526007e+000
3.371102e+003,1.526375e+000
3.374959e+003,1.532637e+000
3.378816e+003,1.576472e+000
3.382673e+003,1.603972e+000
3.386530e+003,1.609309e+000
3.390387e+003,1.611763e+000
3.394245e+003,1.581104e+000
3.398102e+003,1.571140e+000
3.401959e+003,1.564514e+000
3.405816e+003,1.557368e+000
3.409673e+003,1.547706e+000
3.413530e+003,1.549899e+000
3.417387e+003,1.561093e+000
3.421244e+003,1.566864e+000
3.425101e+003,1.563623e+000
3.428958e+003,1.602025e+000
3.432815e+003,1.644253e+000
3.436673e+003,1.629947e+000
3.440530e+003,1.595283e+000
3.444387e+003,1.605003e+000
3.448244e+003,1.643774e+000
3.452101e+003,1.656397e+000
3.455958e+003,1.653037e+000
3.459815e+003,1.632268e+000
3.463672e+003,1.642061e+000
3.467529e+003,1.675449e+000
3.471386e+003,1.639878e+000
3.475244e+003,1.632388e+000
3.479101e+003,1.642055e+000
3.482958e+003,1.648564e+000
3.486815e+003,1.644992e+000
3.490672e+003,1.648754e+000
3.494529e+003,1.617492e+000
3.498386e+003,1.627925e+000
3.502243e+003,1.655745e+000
3.506100e+003,1.626541e+000
3.509958e+003,1.630956e+000
3.513814e+003,1.648506e+000
3.517672e+003,1.659742e+000
3.521529e+003,1.669273e+000
3.525386e+003,1.701622e+000
3.529243e+003,1.683775e+000
3.533100e+003,1.640238e+000
3.536957e+003,1.641230e+000
3.540814e+003,1.672754e+000
3.544671e+003,1.683454e+000
3.548528e+003,1.684059e+000
3.552385e+003,1.661210e+000
3.556243e+003,1.642773e+000
3.560100e+003,1.677504e+000
3.563957e+003,1.667957e+000
3.567814e+003,1.615967e+000
3.571671e+003,1.591519e+000
3.575528e+003,1.581038e+000
3.579385e+003,1.562034e+000
3.583242e+003,1.533640e+000
3.587099e+003,1.528551e+000
3.590957e+003,1.507662e+000
3.594813e+003,1.454919e+000
3.598671e+003,1.408028e+000
3.602528e+003,1.413325e+000
3.606385e+003,1.424365e+000
3.610242e+003,1.374860e+000
3.614099e+003,1.314285e+000
3.617956e+003,1.250120e+000
3.621813e+003,1.173041e+000
3.625670e+003,1.114498e+000
3.629527e+003,1.057295e+000
3.633385e+003,9.945408e-001
3.637242e+003,9.363221e-001
3.641099e+003,8.631043e-001
3.644956e+003,7.909311e-001
3.648813e+003,7.285886e-001
3.652670e+003,6.708889e-001
3.656527e+003,6.146892e-001
3.660384e+003,5.613420e-001
3.664241e+003,5.134096e-001
3.668098e+003,4.738702e-001
3.671956e+003,4.338634e-001
3.675813e+003,3.998790e-001
3.679670e+003,3.734573e-001
3.683527e+003,3.486414e-001
3.687384e+003,3.244299e-001
3.691241e+003,3.036022e-001
3.695098e+003,2.873501e-001
3.698955e+003,2.731949e-001
3.702812e+003,2.616756e-001
3.706669e+003,2.531542e-001
3.710526e+003,2.429399e-001
3.714384e+003,2.352362e-001
3.718241e+003,2.298765e-001
3.722098e+003,2.234360e-001
3.725955e+003,2.156878e-001
3.729812e+003,2.127267e-001
3.733669e+003,2.103706e-001
3.737526e+003,2.076693e-001
3.741383e+003,2.035110e-001
3.745240e+003,1.994674e-001
3.749097e+003,1.996945e-001
3.752955e+003,1.990526e-001
3.756812e+003,1.968771e-001
3.760669e+003,1.936833e-001
3.764526e+003,1.902643e-001
3.768383e+003,1.913440e-001
3.772240e+003,1.927506e-001
3.776097e+003,1.906538e-001
3.779954e+003,1.888428e-001
3.783811e+003,1.885846e-001
3.787668e+003,1.895960e-001
3.791525e+003,1.901121e-001
3.795383e+003,1.878565e-001
3.799240e+003,1.856514e-001
3.803097e+003,1.870058e-001
3.806954e+003,1.887907e-001
3.810811e+003,1.861987e-001
3.814668e+003,1.820168e-001
3.818525e+003,1.808265e-001
3.822382e+003,1.818474e-001
3.826239e+003,1.833292e-001
3.830096e+003,1.840900e-001
3.833954e+003,1.829851e-001
3.837811e+003,1.816540e-001
3.841668e+003,1.821754e-001
3.845525e+003,1.824650e-001
3.849382e+003,1.807452e-001
3.853239e+003,1.788256e-001
3.857096e+003,1.804050e-001
3.860953e+003,1.806694e-001
3.864810e+003,1.792316e-001
3.868667e+003,1.777895e-001
3.872524e+003,1.777827e-001
3.876382e+003,1.802244e-001
3.880239e+003,1.822558e-001
3.884096e+003,1.805923e-001
3.887953e+003,1.786098e-001
3.891810e+003,1.763544e-001
3.895667e+003,1.756369e-001
3.899524e+003,1.778565e-001
3.903381e+003,1.768902e-001
3.907238e+003,1.764645e-001
3.911095e+003,1.783314e-001
3.914953e+003,1.776315e-001
3.918810e+003,1.757670e-001
3.922667e+003,1.756904e-001
3.926524e+003,1.775431e-001
3.930381e+003,1.781523e-001
3.934238e+003,1.781553e-001
3.938095e+003,1.777438e-001
3.941952e+003,1.747919e-001
3.945809e+003,1.741858e-001
3.949667e+003,1.747535e-001
3.953523e+003,1.736993e-001
3.957381e+003,1.738669e-001
3.961238e+003,1.763220e-001
3.965095e+003,1.727861e-001
3.968952e+003,1.696175e-001
3.972809e+003,1.714082e-001
3.976666e+003,1.719808e-001
3.980523e+003,1.721356e-001
3.984380e+003,1.728899e-001
3.988237e+003,1.742307e-001
3.992094e+003,1.744813e-001
3.995952e+003,1.732862e-001
3.999809e+003,1.737880e-001
4.003666e+003,1.751245e-001
4.007523e+003,1.755227e-001
4.011380e+003,1.743858e-001
4.015237e+003,1.727067e-001
4.019094e+003,1.691527e-001
4.022951e+003,1.679449e-001
4.026808e+003,1.687155e-001
4.030666e+003,1.699746e-001
4.034522e+003,1.692274e-001
4.038380e+003,1.682188e-001
4.042237e+003,1.668649e-001
4.046094e+003,1.671608e-001
4.049951e+003,1.688830e-001
4.053808e+003,1.694715e-001
4.057665e+003,1.701037e-001
4.061522e+003,1.705212e-001
4.065379e+003,1.696623e-001
4.069236e+003,1.684063e-001
4.073094e+003,1.684861e-001
4.076951e+003,1.697522e-001
4.080808e+003,1.699379e-001
4.084665e+003,1.701355e-001
4.088522e+003,1.696811e-001
4.092379e+003,1.668413e-001
4.096236e+003,1.662616e-001
4.100093e+003,1.666660e-001
4.103950e+003,1.665055e-001
4.107808e+003,1.659059e-001
4.111665e+003,1.639106e-001
4.115521e+003,1.628811e-001
4.119379e+003,1.625385e-001
4.123236e+003,1.620643e-001
4.127093e+003,1.644398e-001
4.130950e+003,1.664641e-001
4.134807e+003,1.655184e-001
4.138664e+003,1.631079e-001
4.142521e+003,1.610992e-001
4.146378e+003,1.620595e-001
4.150235e+003,1.630542e-001
4.154093e+003,1.638130e-001
4.157950e+003,1.617947e-001
4.161807e+003,1.603285e-001
4.165664e+003,1.602681e-001
4.169521e+003,1.594809e-001
4.173378e+003,1.601451e-001
4.177235e+003,1.620803e-001
4.181092e+003,1.622796e-001
4.184949e+003,1.587460e-001
4.188807e+003,1.590917e-001
4.192664e+003,1.584471e-001
4.196521e+003,1.548100e-001
4.200378e+003,1.531739e-001
4.204235e+003,1.557447e-001
4.208092e+003,1.577230e-001
4.211949e+003,1.559508e-001
4.215806e+003,1.561042e-001
4.219663e+003,1.595081e-001
4.223521e+003,1.595993e-001
4.227377e+003,1.564937e-001
4.231234e+003,1.551778e-001
4.235092e+003,1.542145e-001
4.238949e+003,1.531138e-001
4.242806e+003,1.538932e-001
4.246663e+003,1.551616e-001
4.250520e+003,1.537272e-001
4.254377e+003,1.544064e-001
4.258234e+003,1.573882e-001
4.262091e+003,1.598995e-001
4.265948e+003,1.592971e-001
4.269806e+003,1.571671e-001
4.273663e+003,1.578450e-001
4.277520e+003,1.560257e-001
4.281377e+003,1.561456e-001
4.285234e+003,1.584784e-001
4.289091e+003,1.568081e-001
4.292948e+003,1.588610e-001
4.296805e+003,1.613935e-001
4.300662e+003,1.586581e-001
4.304520e+003,1.553510e-001
4.308376e+003,1.515621e-001
4.312233e+003,1.518187e-001
4.316091e+003,1.538070e-001
4.319948e+003,1.541199e-001
4.323805e+003,1.547451e-001
4.327662e+003,1.563966e-001
4.331519e+003,1.559379e-001
4.335376e+003,1.557111e-001
4.339233e+003,1.579094e-001
4.343090e+003,1.583418e-001
4.346947e+003,1.569441e-001
4.350805e+003,1.578318e-001
4.354662e+003,1.596733e-001
4.358519e+003,1.591360e-001
4.362376e+003,1.564759e-001
4.366233e+003,1.565628e-001
4.370090e+003,1.571890e-001
4.373947e+003,1.566560e-001
4.377804e+003,1.582939e-001
4.381661e+003,1.596167e-001
4.385519e+003,1.588701e-001
4.389375e+003,1.570438e-001
4.393232e+003,1.564135e-001
4.397090e+003,1.583681e-001
4.400947e+003,1.609406e-001
4.404804e+003,1.611956e-001
4.408661e+003,1.590685e-001
4.412518e+003,1.604335e-001
4.416375e+003,1.629798e-001
4.420232e+003,1.621039e-001
4.424089e+003,1.642394e-001
4.427946e+003,1.641240e-001
4.431804e+003,1.607485e-001
4.435661e+003,1.600912e-001
4.439518e+003,1.600856e-001
4.443375e+003,1.588004e-001
4.447232e+003,1.581364e-001
4.451089e+003,1.591277e-001
4.454946e+003,1.596956e-001
4.458803e+003,1.572763e-001
4.462660e+003,1.548040e-001
4.466518e+003,1.551336e-001
4.470375e+003,1.595392e-001
4.474231e+003,1.631984e-001
4.478089e+003,1.632537e-001
4.481946e+003,1.621110e-001
4.485803e+003,1.586128e-001
4.489660e+003,1.598823e-001
4.493517e+003,1.623702e-001
4.497375e+003,1.640461e-001
4.501231e+003,1.651236e-001
4.505088e+003,1.639867e-001
4.508946e+003,1.599433e-001
4.512803e+003,1.553151e-001
4.516660e+003,1.536531e-001
4.520517e+003,1.563524e-001
4.524374e+003,1.580694e-001
4.528231e+003,1.597581e-001
4.532088e+003,1.604527e-001
4.535945e+003,1.585439e-001
4.539802e+003,1.571524e-001
4.543660e+003,1.583554e-001
4.547517e+003,1.605664e-001
4.551374e+003,1.610982e-001
4.555231e+003,1.614313e-001
4.559088e+003,1.600813e-001
4.562945e+003,1.584279e-001
4.566802e+003,1.557396e-001
4.570659e+003,1.491466e-001
4.574516e+003,1.469220e-001
4.578374e+003,1.478100e-001
4.582230e+003,1.490671e-001
4.586087e+003,1.520231e-001
4.589945e+003,1.531343e-001
4.593802e+003,1.567058e-001
4.597659e+003,1.595347e-001
4.601516e+003,1.551354e-001
4.605373e+003,1.504784e-001
4.609230e+003,1.512735e-001
4.613087e+003,1.532257e-001
4.616944e+003,1.536327e-001
4.620801e+003,1.520355e-001
4.624659e+003,1.504809e-001
4.628516e+003,1.514922e-001
4.632373e+003,1.542984e-001
4.636230e+003,1.541715e-001
4.640087e+003,1.510604e-001
4.643944e+003,1.507235e-001
4.647801e+003,1.503031e-001
4.651658e+003,1.480703e-001
4.655515e+003,1.466383e-001
4.659373e+003,1.440663e-001
4.663229e+003,1.460391e-001
4.667086e+003,1.478338e-001
4.670944e+003,1.484966e-001
4.674801e+003,1.508386e-001
4.678658e+003,1.506970e-001
4.682515e+003,1.503314e-001
4.686372e+003,1.545271e-001
4.690229e+003,1.566315e-001
4.694086e+003,1.522611e-001
4.697943e+003,1.502825e-001
4.701800e+003,1.524250e-001
4.705658e+003,1.515914e-001
4.709515e+003,1.485388e-001
4.713372e+003,1.492877e-001
4.717229e+003,1.535531e-001
4.721086e+003,1.531628e-001
4.724943e+003,1.510141e-001
4.728800e+003,1.494837e-001
4.732657e+003,1.491121e-001
4.736514e+003,1.504470e-001
4.740372e+003,1.486620e-001
4.744229e+003,1.480417e-001
4.748085e+003,1.486926e-001
4.751943e+003,1.500748e-001
4.755800e+003,1.518491e-001
4.759657e+003,1.524872e-001
4.763514e+003,1.497779e-001
4.767371e+003,1.477752e-001
4.771228e+003,1.477763e-001
4.775085e+003,1.506684e-001
4.778942e+003,1.532489e-001
4.782799e+003,1.539955e-001
4.786657e+003,1.512458e-001
4.790514e+003,1.496040e-001
4.794371e+003,1.527428e-001
4.798228e+003,1.552329e-001
4.802085e+003,1.526782e-001
4.805942e+003,1.494198e-001
4.809799e+003,1.481353e-001
4.813656e+003,1.510436e-001
4.817513e+003,1.550123e-001
4.821371e+003,1.555995e-001
4.825228e+003,1.552282e-001
4.829084e+003,1.539815e-001
4.832942e+003,1.524757e-001
4.836799e+003,1.507314e-001
4.840656e+003,1.528556e-001
4.844513e+003,1.554274e-001
4.848370e+003,1.541646e-001
4.852227e+003,1.499617e-001
4.856084e+003,1.494835e-001
4.859941e+003,1.479412e-001
4.863798e+003,1.470298e-001
4.867656e+003,1.503900e-001
4.871513e+003,1.499435e-001
4.875370e+003,1.499625e-001
4.879227e+003,1.500902e-001
4.883084e+003,1.502655e-001
4.886941e+003,1.535837e-001
4.890798e+003,1.548712e-001
4.894655e+003,1.516170e-001
4.898512e+003,1.509598e-001
4.902370e+003,1.550108e-001
4.906227e+003,1.556561e-001
4.910083e+003,1.522633e-001
4.913941e+003,1.553088e-001
4.917798e+003,1.568127e-001
4.921655e+003,1.521427e-001
4.925512e+003,1.513856e-001
4.929369e+003,1.509342e-001
4.933226e+003,1.525801e-001
4.937083e+003,1.536846e-001
4.940940e+003,1.509903e-001
4.944797e+003,1.509093e-001
4.948655e+003,1.543396e-001
4.952512e+003,1.536733e-001
4.956369e+003,1.550515e-001
4.960226e+003,1.585881e-001
4.964083e+003,1.558333e-001
4.967940e+003,1.537641e-001
4.971797e+003,1.500912e-001
4.975654e+003,1.518210e-001
4.979511e+003,1.555214e-001
4.983369e+003,1.543393e-001
4.987226e+003,1.529683e-001
4.991083e+003,1.519586e-001
4.994940e+003,1.501997e-001
4.998797e+003,1.490232e-001
5.002654e+003,1.541193e-001
5.006511e+003,1.576793e-001
5.010368e+003,1.533033e-001
5.014225e+003,1.524823e-001
5.018083e+003,1.548018e-001
5.021939e+003,1.556653e-001
5.025796e+003,1.565242e-001
5.029654e+003,1.532893e-001
5.033511e+003,1.500951e-001
5.037368e+003,1.513078e-001
5.041225e+003,1.538033e-001
5.045082e+003,1.585463e-001
5.048939e+003,1.606317e-001
5.052796e+003,1.601512e-001
5.056653e+003,1.561650e-001
5.060510e+003,1.534155e-001
5.064368e+003,1.527965e-001
5.068225e+003,1.539478e-001
5.072082e+003,1.535747e-001
5.075939e+003,1.523980e-001
5.079796e+003,1.541478e-001
5.083653e+003,1.601378e-001
5.087510e+003,1.604109e-001
5.091367e+003,1.560932e-001
5.095224e+003,1.527785e-001
5.099082e+003,1.519172e-001
5.102938e+003,1.532273e-001
5.106795e+003,1.560072e-001
5.110653e+003,1.570722e-001
5.114510e+003,1.570508e-001
5.118367e+003,1.564443e-001
5.122224e+003,1.564431e-001
5.126081e+003,1.593941e-001
5.129938e+003,1.620783e-001
5.133795e+003,1.631513e-001
5.137652e+003,1.625619e-001
5.141509e+003,1.598528e-001
5.145367e+003,1.573793e-001
5.149224e+003,1.542571e-001
5.153081e+003,1.528862e-001
5.156938e+003,1.530009e-001
5.160795e+003,1.573946e-001
5.164652e+003,1.597398e-001
5.168509e+003,1.606255e-001
5.172366e+003,1.633113e-001
5.176223e+003,1.633228e-001
5.180081e+003,1.615874e-001
5.183938e+003,1.606065e-001
5.187794e+003,1.603686e-001
5.191652e+003,1.652129e-001
5.195509e+003,1.662390e-001
5.199366e+003,1.639687e-001
5.203223e+003,1.645442e-001
5.207080e+003,1.614164e-001
5.210937e+003,1.592872e-001
5.214794e+003,1.573176e-001
5.218651e+003,1.564971e-001
5.222508e+003,1.536645e-001
5.226366e+003,1.464806e-001
5.230223e+003,1.452649e-001
5.234080e+003,1.456645e-001
5.237937e+003,1.495763e-001
5.241794e+003,1.549381e-001
5.245651e+003,1.527858e-001
5.249508e+003,1.531249e-001
5.253365e+003,1.522135e-001
5.257222e+003,1.509049e-001
5.261080e+003,1.539782e-001
5.264937e+003,1.571663e-001
5.268793e+003,1.592557e-001
5.272651e+003,1.540124e-001
5.276508e+003,1.510133e-001
5.280365e+003,1.509932e-001
5.284222e+003,1.488460e-001
5.288079e+003,1.457452e-001
5.291936e+003,1.478792e-001
5.295793e+003,1.473944e-001
5.299650e+003,1.457236e-001
5.303507e+003,1.488143e-001
5.307365e+003,1.490742e-001
5.311222e+003,1.488697e-001
5.315079e+003,1.474251e-001
5.318936e+003,1.446402e-001
5.322793e+003,1.432898e-001
5.326650e+003,1.454358e-001
5.330507e+003,1.473721e-001
5.334364e+003,1.487080e-001
5.338221e+003,1.435516e-001
5.342079e+003,1.412753e-001
5.345936e+003,1.438443e-001
5.349792e+003,1.465511e-001
5.353650e+003,1.477599e-001
5.357507e+003,1.433366e-001
5.361364e+003,1.414441e-001
5.365221e+003,1.451807e-001
5.369078e+003,1.452383e-001
5.372935e+003,1.408401e-001
5.376792e+003,1.428456e-001
5.380649e+003,1.418059e-001
5.384506e+003,1.403073e-001
5.388364e+003,1.392899e-001
5.392221e+003,1.445876e-001
5.396078e+003,1.465840e-001
5.399935e+003,1.438456e-001
5.403792e+003,1.462842e-001
5.407649e+003,1.465154e-001
5.411506e+003,1.453956e-001
5.415363e+003,1.442966e-001
5.419220e+003,1.426962e-001
5.423078e+003,1.445565e-001
5.426935e+003,1.480529e-001
5.430792e+003,1.510461e-001
5.434649e+003,1.462341e-001
5.438506e+003,1.391893e-001
5.442363e+003,1.364860e-001
5.446220e+003,1.415614e-001
5.450077e+003,1.432403e-001
5.453934e+003,1.394908e-001
5.457792e+003,1.416523e-001
5.461648e+003,1.445883e-001
5.465505e+003,1.460419e-001
5.469363e+003,1.444099e-001
5.473220e+003,1.471462e-001
5.477077e+003,1.475360e-001
5.480934e+003,1.444197e-001
5.484791e+003,1.470232e-001
5.488648e+003,1.468513e-001
5.492505e+003,1.397781e-001
5.496362e+003,1.404270e-001
5.500219e+003,1.409677e-001
5.504077e+003,1.408277e-001
5.507934e+003,1.451001e-001
5.511791e+003,1.491118e-001
5.515648e+003,1.455804e-001
5.519505e+003,1.425095e-001
5.523362e+003,1.448590e-001
5.527219e+003,1.415955e-001
5.531076e+003,1.383611e-001
5.534933e+003,1.401945e-001
5.538791e+003,1.432636e-001
5.542647e+003,1.449728e-001
5.546504e+003,1.467470e-001
5.550362e+003,1.450551e-001
5.554219e+003,1.402545e-001
5.558076e+003,1.391770e-001
5.561933e+003,1.364952e-001
5.565790e+003,1.331361e-001
5.569647e+003,1.364636e-001
5.573504e+003,1.417434e-001
5.577361e+003,1.424968e-001
5.581218e+003,1.395034e-001
5.585076e+003,1.373826e-001
5.588933e+003,1.426021e-001
5.592790e+003,1.433725e-001
5.596647e+003,1.381807e-001
5.600504e+003,1.360237e-001
5.604361e+003,1.375453e-001
5.608218e+003,1.416138e-001
5.612075e+003,1.406313e-001
5.615932e+003,1.341615e-001
5.619790e+003,1.298551e-001
5.623646e+003,1.353453e-001
5.627503e+003,1.389593e-001
5.631361e+003,1.386283e-001
5.635218e+003,1.379366e-001
5.639075e+003,1.361694e-001
5.642932e+003,1.371294e-001
5.646789e+003,1.359029e-001
5.650646e+003,1.363285e-001
5.654503e+003,1.371932e-001
5.658360e+003,1.359019e-001
5.662217e+003,1.361270e-001
5.666075e+003,1.351163e-001
5.669932e+003,1.328581e-001
5.673789e+003,1.366235e-001
5.677646e+003,1.399138e-001
5.681503e+003,1.414533e-001
5.685360e+003,1.388823e-001
5.689217e+003,1.347212e-001
5.693074e+003,1.316249e-001
5.696931e+003,1.298296e-001
5.700789e+003,1.309852e-001
5.704646e+003,1.288324e-001
5.708502e+003,1.284877e-001
5.712360e+003,1.334604e-001
5.716217e+003,1.335564e-001
5.720074e+003,1.325805e-001
5.723931e+003,1.368275e-001
5.727788e+003,1.368494e-001
5.731645e+003,1.348163e-001
5.735502e+003,1.352751e-001
5.739359e+003,1.337999e-001
5.743216e+003,1.312085e-001
5.747074e+003,1.353758e-001
5.750931e+003,1.380438e-001
5.754788e+003,1.314178e-001
5.758645e+003,1.296252e-001
5.762502e+003,1.286686e-001
5.766359e+003,1.304610e-001
5.770216e+003,1.328192e-001
5.774073e+003,1.401638e-001
5.777930e+003,1.387500e-001
5.781788e+003,1.367925e-001
5.785645e+003,1.378141e-001
5.789501e+003,1.352952e-001
5.793359e+003,1.300467e-001
5.797216e+003,1.296855e-001
5.801073e+003,1.356307e-001
5.804930e+003,1.373426e-001
5.808787e+003,1.359295e-001
5.812644e+003,1.338801e-001
5.816501e+003,1.360155e-001
5.820358e+003,1.338931e-001
5.824215e+003,1.326236e-001
5.828073e+003,1.330359e-001
5.831930e+003,1.293310e-001
5.835787e+003,1.273467e-001
5.839644e+003,1.281545e-001
5.843501e+003,1.269034e-001
5.847358e+003,1.256551e-001
5.851215e+003,1.216953e-001
5.855072e+003,1.236505e-001
5.858929e+003,1.293192e-001
5.862787e+003,1.339219e-001
5.866644e+003,1.326498e-001
5.870500e+003,1.306240e-001
5.874358e+003,1.301584e-001
5.878215e+003,1.283231e-001
5.882072e+003,1.308350e-001
5.885929e+003,1.348432e-001
5.889786e+003,1.306503e-001
5.893643e+003,1.296217e-001
5.897500e+003,1.226645e-001
5.901357e+003,1.227267e-001
5.905214e+003,1.281047e-001
5.909072e+003,1.249675e-001
5.912929e+003,1.276455e-001
5.916786e+003,1.326403e-001
5.920643e+003,1.320599e-001
5.924500e+003,1.291175e-001
5.928357e+003,1.271517e-001
5.932214e+003,1.327043e-001
5.936071e+003,1.324708e-001
5.939928e+003,1.242724e-001
5.943786e+003,1.236187e-001
5.947643e+003,1.265469e-001
5.951500e+003,1.287418e-001
5.955357e+003,1.262479e-001
5.959214e+003,1.276972e-001
5.963071e+003,1.298098e-001
5.966928e+003,1.280631e-001
5.970785e+003,1.319609e-001
5.974642e+003,1.321353e-001
5.978500e+003,1.284235e-001
5.982356e+003,1.302867e-001
5.986213e+003,1.303776e-001
5.990071e+003,1.264742e-001
5.993928e+003,1.246049e-001
5.997785e+003,1.294473e-001
6.001642e+003,1.307151e-001
6.005499e+003,1.257446e-001
6.009356e+003,1.186253e-001
6.013213e+003,1.179577e-001
6.017070e+003,1.239140e-001
6.020927e+003,1.236137e-001
6.024785e+003,1.131667e-001
6.028642e+003,1.125592e-001
6.032499e+003,1.244977e-001
6.036356e+003,1.262408e-001
6.040213e+003,1.237991e-001
6.044070e+003,1.213695e-001
6.047927e+003,1.231911e-001
6.051784e+003,1.188827e-001
6.055641e+003,1.169556e-001
6.059499e+003,1.234373e-001
6.063355e+003,1.297229e-001
6.067212e+003,1.302598e-001
6.071070e+003,1.251120e-001
6.074927e+003,1.203610e-001
6.078784e+003,1.194754e-001
6.082641e+003,1.198625e-001
6.086498e+003,1.264643e-001
6.090355e+003,1.332377e-001
6.094212e+003,1.263594e-001
6.098069e+003,1.262156e-001
6.101926e+003,1.285310e-001
6.105784e+003,1.248913e-001
6.109641e+003,1.198823e-001
6.113498e+003,1.173236e-001
6.117355e+003,1.196276e-001
6.121212e+003,1.262136e-001
6.125069e+003,1.279137e-001
6.128926e+003,1.295190e-001
6.132783e+003,1.287230e-001
6.136640e+003,1.250348e-001
6.140498e+003,1.222624e-001
6.144354e+003,1.177303e-001
6.148211e+003,1.189944e-001
6.152069e+003,1.241980e-001
6.155926e+003,1.218721e-001
6.159783e+003,1.158009e-001
6.163640e+003,1.158214e-001
6.167497e+003,1.214625e-001
6.171354e+003,1.241039e-001
6.175211e+003,1.273530e-001
6.179068e+003,1.265710e-001
6.182925e+003,1.239033e-001
6.186783e+003,1.278929e-001
6.190640e+003,1.289986e-001
6.194497e+003,1.211837e-001
6.198354e+003,1.207125e-001
6.202211e+003,1.183736e-001
6.206068e+003,1.188673e-001
6.209925e+003,1.201643e-001
6.213782e+003,1.156255e-001
6.217639e+003,1.180417e-001
6.221497e+003,1.228178e-001
6.225354e+003,1.243157e-001
6.229210e+003,1.242927e-001
6.233068e+003,1.210899e-001
6.236925e+003,1.169177e-001
6.240782e+003,1.162426e-001
6.244639e+003,1.254993e-001
6.248496e+003,1.202291e-001
6.252353e+003,1.119273e-001
6.256210e+003,1.152980e-001
6.260067e+003,1.172037e-001
6.263924e+003,1.187415e-001
6.267782e+003,1.167054e-001
6.271639e+003,1.159257e-001
6.275496e+003,1.112061e-001
6.279353e+003,1.080600e-001
6.283210e+003,1.095756e-001
6.287067e+003,1.153338e-001
6.290924e+003,1.222686e-001
6.294781e+003,1.255121e-001
6.298638e+003,1.238616e-001
6.302496e+003,1.202215e-001
6.306353e+003,1.208222e-001
6.310209e+003,1.288453e-001
6.314067e+003,1.259877e-001
6.317924e+003,1.220021e-001
6.321781e+003,1.208539e-001
6.325638e+003,1.112868e-001
6.329495e+003,1.109727e-001
6.333352e+003,1.166884e-001
6.337209e+003,1.117073e-001
6.341066e+003,1.152641e-001
6.344923e+003,1.209483e-001
6.348780e+003,1.216321e-001
6.352638e+003,1.164703e-001
6.356495e+003,1.219719e-001
6.360352e+003,1.228752e-001
6.364209e+003,1.174693e-001
6.368066e+003,1.211497e-001
6.371923e+003,1.208386e-001
6.375780e+003,1.168367e-001
6.379637e+003,1.158421e-001
6.383494e+003,1.190498e-001
6.387352e+003,1.203354e-001
6.391208e+003,1.155062e-001
6.395065e+003,1.203513e-001
6.398923e+003,1.245458e-001
6.402780e+003,1.133073e-001
6.406637e+003,1.158443e-001
6.410494e+003,1.218639e-001
6.414351e+003,1.211060e-001
6.418208e+003,1.160670e-001
6.422065e+003,1.150200e-001
6.425922e+003,1.156662e-001
6.429779e+003,1.174414e-001
6.433637e+003,1.127602e-001
6.437494e+003,1.134354e-001
6.441351e+003,1.169622e-001
6.445208e+003,1.172740e-001
6.449065e+003,1.168920e-001
6.452922e+003,1.223894e-001
6.456779e+003,1.291936e-001
6.460636e+003,1.287628e-001
6.464493e+003,1.212142e-001
6.468351e+003,1.275970e-001
6.472208e+003,1.296046e-001
6.476064e+003,1.275551e-001
6.479922e+003,1.253505e-001
6.483779e+003,1.148271e-001
6.487636e+003,1.162657e-001
6.491493e+003,1.230502e-001
6.495350e+003,1.189915e-001
6.499207e+003,1.201349e-001
6.503064e+003,1.200339e-001
6.506921e+003,1.170537e-001
6.510778e+003,1.203673e-001
6.514636e+003,1.265245e-001
6.518493e+003,1.345090e-001
6.522350e+003,1.329242e-001
6.526207e+003,1.271287e-001
6.530064e+003,1.244124e-001
6.533921e+003,1.135661e-001
6.537778e+003,1.168779e-001
6.541635e+003,1.292645e-001
6.545492e+003,1.243453e-001
6.549350e+003,1.094671e-001
6.553207e+003,1.124021e-001
6.557063e+003,1.188086e-001
6.560921e+003,1.151977e-001
6.564778e+003,1.176206e-001
6.568635e+003,1.184923e-001
6.572492e+003,1.127951e-001
6.576349e+003,1.063388e-001
6.580206e+003,1.114548e-001
6.584063e+003,1.187981e-001
6.587920e+003,1.245973e-001
6.591777e+003,1.224233e-001
6.595635e+003,1.210463e-001
6.599492e+003,1.096652e-001
6.603349e+003,1.088527e-001
6.607206e+003,1.113286e-001
6.611063e+003,1.038841e-001
6.614920e+003,1.116282e-001
6.618777e+003,1.289800e-001
6.622634e+003,1.266878e-001
6.626491e+003,1.168478e-001
6.630349e+003,1.173894e-001
6.634206e+003,1.100889e-001
6.638063e+003,1.095614e-001
6.641920e+003,1.235634e-001
6.645777e+003,1.281639e-001
6.649634e+003,1.282942e-001
6.653491e+003,1.303486e-001
6.657348e+003,1.304183e-001
6.661205e+003,1.246178e-001
6.665063e+003,1.175054e-001
6.668919e+003,1.147888e-001
6.672776e+003,1.224230e-001
6.676634e+003,1.222536e-001
6.680491e+003,1.160589e-001
6.684348e+003,1.105874e-001
6.688205e+003,1.142509e-001
6.692062e+003,1.263657e-001
6.695919e+003,1.285843e-001
6.699776e+003,1.187607e-001
6.703633e+003,1.136086e-001
6.707490e+003,1.188501e-001
6.711348e+003,1.268459e-001
6.715205e+003,1.330077e-001
6.719062e+003,1.321526e-001
6.722919e+003,1.274466e-001
6.726776e+003,1.231361e-001
6.730633e+003,1.174371e-001
6.734490e+003,1.253279e-001
6.738347e+003,1.227430e-001
6.742204e+003,1.232498e-001
6.746062e+003,1.339612e-001
6.749918e+003,1.374644e-001
6.753775e+003,1.242778e-001
6.757633e+003,1.111349e-001
6.761490e+003,1.083099e-001
6.765347e+003,1.144155e-001
6.769204e+003,1.208935e-001
6.773061e+003,1.349310e-001
6.776918e+003,1.389435e-001
6.780775e+003,1.224240e-001
6.784632e+003,1.116966e-001
6.788489e+003,1.170864e-001
6.792347e+003,1.258859e-001
6.796204e+003,1.201297e-001
6.800061e+003,1.271524e-001
6.803918e+003,1.434388e-001
6.807775e+003,1.417311e-001
6.811632e+003,1.175314e-001
6.815489e+003,1.138702e-001
6.819346e+003,1.170973e-001
6.823203e+003,1.180568e-001
6.827061e+003,1.183305e-001
6.830917e+003,1.295229e-001
6.834774e+003,1.373756e-001
6.838632e+003,1.307019e-001
6.842489e+003,1.342809e-001
6.846346e+003,1.419492e-001
6.850203e+003,1.416406e-001
6.854060e+003,1.307732e-001
6.857917e+003,1.299943e-001
6.861774e+003,1.384836e-001
6.865631e+003,1.297877e-001
6.869488e+003,1.267349e-001
6.873346e+003,1.289961e-001
6.877203e+003,1.381703e-001
6.881060e+003,1.436845e-001
6.884917e+003,1.517217e-001
6.888774e+003,1.496894e-001
6.892631e+003,1.351078e-001
6.896488e+003,1.347694e-001
6.900345e+003,1.432112e-001
6.904202e+003,1.438257e-001
6.908060e+003,1.394280e-001
6.911917e+003,1.335438e-001
6.915773e+003,1.435808e-001
6.919631e+003,1.444175e-001
6.923488e+003,1.317287e-001
6.927345e+003,1.328959e-001
6.931202e+003,1.377523e-001
6.935059e+003,1.273434e-001
6.938916e+003,1.297349e-001
6.942773e+003,1.375908e-001
6.946630e+003,1.337146e-001
6.950487e+003,1.297854e-001
6.954345e+003,1.351568e-001
6.958202e+003,1.329152e-001
6.962059e+003,1.270485e-001
6.965916e+003,1.404593e-001
6.969773e+003,1.440550e-001
6.973630e+003,1.348865e-001
6.977487e+003,1.306222e-001
6.981344e+003,1.333029e-001
6.985201e+003,1.362259e-001
6.989059e+003,1.390354e-001
6.992916e+003,1.471903e-001
6.996772e+003,1.487897e-001
7.000630e+003,1.373011e-001
7.004487e+003,1.369546e-001
7.008344e+003,1.515767e-001
7.012201e+003,1.511340e-001
7.016058e+003,1.421159e-001
7.019915e+003,1.566353e-001
7.023772e+003,1.717933e-001
7.027629e+003,1.605346e-001
7.031486e+003,1.466138e-001
7.035344e+003,1.429903e-001
7.039201e+003,1.401536e-001
7.043058e+003,1.316500e-001
7.046915e+003,1.305407e-001
7.050772e+003,1.428234e-001
7.054629e+003,1.466320e-001
7.058486e+003,1.493856e-001
7.062343e+003,1.428060e-001
7.066200e+003,1.311060e-001
7.070058e+003,1.447826e-001
7.073915e+003,1.464639e-001
7.077771e+003,1.393983e-001
7.081629e+003,1.301516e-001
7.085486e+003,1.121880e-001
7.089343e+003,1.167828e-001
7.093200e+003,1.381880e-001
7.097057e+003,1.456285e-001
7.100914e+003,1.526889e-001
7.104771e+003,1.581088e-001
7.108628e+003,1.545896e-001
7.112485e+003,1.526923e-001
7.116343e+003,1.651210e-001
7.120200e+003,1.760412e-001
7.124057e+003,1.648740e-001
7.127914e+003,1.528396e-001
7.131771e+003,1.611494e-001
7.135628e+003,1.713503e-001
7.139485e+003,1.564741e-001
7.143342e+003,1.512603e-001
7.147199e+003,1.467173e-001
7.151057e+003,1.483063e-001
7.154914e+003,1.700708e-001
7.158771e+003,1.708305e-001
7.162628e+003,1.520629e-001
7.166485e+003,1.299133e-001
7.170342e+003,1.342768e-001
7.174199e+003,1.502859e-001
7.178056e+003,1.495222e-001
7.181913e+003,1.386440e-001
7.185771e+003,1.309195e-001
7.189627e+003,1.222473e-001
7.193484e+003,1.449783e-001
7.197342e+003,1.639940e-001
7.201199e+003,1.685247e-001
7.205056e+003,1.539304e-001
7.208913e+003,1.370034e-001
7.212770e+003,1.366096e-001
7.216627e+003,1.504966e-001
7.220484e+003,1.699476e-001
7.224341e+003,1.598885e-001
7.228198e+003,1.473284e-001
7.232056e+003,1.671949e-001
7.235913e+003,1.681375e-001
7.239770e+003,1.410970e-001
7.243627e+003,1.488469e-001
7.247484e+003,1.566137e-001
7.251341e+003,1.730685e-001
7.255198e+003,1.761120e-001
7.259055e+003,1.447020e-001
7.262912e+003,1.480220e-001
7.266770e+003,1.591967e-001
7.270626e+003,1.318277e-001
7.274483e+003,1.189012e-001
7.278341e+003,1.226627e-001
7.282198e+003,1.335590e-001
7.286055e+003,1.335115e-001
7.289912e+003,1.386909e-001
7.293769e+003,1.581285e-001
7.297626e+003,1.804736e-001
7.301483e+003,1.757815e-001
7.305340e+003,1.662027e-001
7.309197e+003,1.846533e-001
7.313055e+003,1.701270e-001
7.316912e+003,1.531130e-001
7.320769e+003,1.652655e-001
7.324626e+003,1.621619e-001
7.328483e+003,1.420616e-001
7.332340e+003,1.560204e-001
7.336197e+003,1.881114e-001
7.340054e+003,1.692911e-001
7.343911e+003,1.394559e-001
7.347769e+003,1.254955e-001
7.351625e+003,1.272057e-001
7.355482e+003,1.502245e-001
7.359340e+003,1.817702e-001
7.363197e+003,1.938786e-001
7.367054e+003,1.857273e-001
7.370911e+003,1.579497e-001
7.374768e+003,1.317284e-001
7.378625e+003,1.539132e-001
7.382482e+003,1.567562e-001
7.386339e+003,1.293425e-001
7.390196e+003,1.520243e-001
7.394054e+003,1.513656e-001
7.397911e+003,1.435857e-001
7.401768e+003,1.323230e-001
7.405625e+003,1.448171e-001
7.409482e+003,1.749333e-001
7.413339e+003,1.755196e-001
7.417196e+003,1.833426e-001
7.421053e+003,1.829264e-001
7.424910e+003,1.906236e-001
7.428768e+003,2.020305e-001
7.432625e+003,1.556880e-001
7.436481e+003,1.277341e-001
7.440339e+003,1.455983e-001
7.444196e+003,1.572604e-001
7.448053e+003,1.458180e-001
7.451910e+003,1.475641e-001
7.455767e+003,1.382895e-001
7.459624e+003,1.257268e-001
7.463481e+003,1.548755e-001
7.467338e+003,1.837320e-001
7.471195e+003,1.824660e-001
7.475053e+003,1.712873e-001
7.478910e+003,1.390562e-001
7.482767e+003,1.078273e-001
7.486624e+003,1.192026e-001
7.490481e+003,1.649829e-001
7.494338e+003,1.533799e-001
7.498195e+003,1.394603e-001
7.502052e+003,1.739757e-001
7.505909e+003,1.880683e-001
7.509767e+003,1.595772e-001
7.513624e+003,1.533023e-001
7.517480e+003,1.693583e-001
7.521338e+003,1.782293e-001
7.525195e+003,1.735632e-001
7.529052e+003,1.599385e-001
7.532909e+003,1.580979e-001
7.536766e+003,1.661936e-001
7.540623e+003,1.694294e-001
7.544480e+003,1.267271e-001
7.548337e+003,1.061391e-001
7.552194e+003,1.484092e-001
7.556052e+003,1.956544e-001
7.559909e+003,2.042508e-001
7.563766e+003,1.694620e-001
7.567623e+003,1.416650e-001
7.571480e+003,1.592210e-001
7.575337e+003,1.774187e-001
7.579194e+003,1.830101e-001
7.583051e+003,2.079333e-001
7.586908e+003,1.878555e-001
7.590766e+003,1.509078e-001
7.594623e+003,1.797025e-001
7.598479e+003,1.927518e-001
7.602337e+003,1.799093e-001
7.606194e+003,1.994591e-001
7.610051e+003,1.844090e-001
7.613908e+003,1.554880e-001
7.617765e+003,1.432459e-001
7.621622e+003,1.398577e-001
7.625479e+003,1.430404e-001
7.629336e+003,1.617411e-001
7.633193e+003,1.758397e-001
7.637051e+003,1.612733e-001
7.640908e+003,1.386599e-001
7.644765e+003,1.637416e-001
7.648622e+003,1.844916e-001
7.652479e+003,1.627097e-001
7.656336e+003,1.728259e-001
7.660193e+003,1.845876e-001
7.664050e+003,1.607221e-001
7.667907e+003,1.682139e-001
7.671765e+003,1.899634e-001
7.675622e+003,2.000754e-001
7.679479e+003,1.889872e-001
7.683336e+003,1.700713e-001
7.687193e+003,2.090649e-001
7.691050e+003,2.328575e-001
7.694907e+003,2.157282e-001
7.698764e+003,1.637384e-001
7.702621e+003,1.655328e-001
7.706479e+003,1.967950e-001
7.710335e+003,1.725815e-001
7.714192e+003,1.644594e-001
7.718050e+003,1.939682e-001
7.721907e+003,2.091588e-001
7.725764e+003,2.026139e-001
7.729621e+003,1.783690e-001
7.733478e+003,1.440578e-001
7.737335e+003,1.516575e-001
7.741192e+003,1.614612e-001
7.745049e+003,1.511687e-001
7.748906e+003,1.334687e-001
7.752764e+003,1.414798e-001
7.756621e+003,1.548277e-001
7.760478e+003,1.737945e-001
7.764335e+003,1.915697e-001
7.768192e+003,1.730030e-001
7.772049e+003,1.637151e-001
7.775906e+003,1.741307e-001
7.779763e+003,1.640078e-001
7.783620e+003,1.303253e-001
7.787478e+003,1.510521e-001
7.791334e+003,1.648643e-001
7.795191e+003,1.823547e-001
7.799049e+003,2.217653e-001
7.802906e+003,2.296382e-001
7.806763e+003,2.031071e-001
7.810620e+003,1.802331e-001
7.814477e+003,1.842535e-001
7.818334e+003,2.191764e-001
7.822191e+003,1.864354e-001
7.826048e+003,1.782676e-001
7.829905e+003,2.366558e-001
7.833763e+003,2.867019e-001
7.837620e+003,2.389382e-001
7.841477e+003,2.018195e-001
7.845334e+003,2.211346e-001
7.849191e+003,2.355124e-001
7.853048e+003,1.975228e-001
7.856905e+003,2.033736e-001
7.860762e+003,1.856275e-001
7.864619e+003,1.702228e-001
7.868477e+003,1.736071e-001
7.872333e+003,1.739893e-001
7.876190e+003,1.895303e-001
7.880048e+003,1.916871e-001
7.883905e+003,1.562147e-001
7.887762e+003,1.604743e-001
7.891619e+003,1.801648e-001
7.895476e+003,2.011751e-001
7.899333e+003,2.399862e-001
7.903190e+003,1.980099e-001
7.907047e+003,1.460948e-001
7.910904e+003,1.473930e-001
7.914762e+003,1.422816e-001
7.918619e+003,1.500357e-001
7.922476e+003,1.454669e-001
7.926333e+003,1.660119e-001
7.930190e+003,2.400948e-001
7.934047e+003,2.065178e-001
7.937904e+003,1.662061e-001
7.941761e+003,1.528142e-001
7.945618e+003,1.177167e-001
7.949476e+003,1.018734e-001
7.953333e+003,1.022346e-001
7.957189e+003,1.579723e-001
7.961047e+003,2.160469e-001
7.964904e+003,2.837419e-001
7.968761e+003,2.690740e-001
7.972618e+003,2.299895e-001
7.976475e+003,2.197430e-001
7.980332e+003,1.875908e-001
7.984189e+003,1.423604e-001
7.988046e+003,1.739087e-001
7.991903e+003,1.912401e-001
7.995761e+003,1.379772e-001
7.999618e+003,1.355994e-001
