4.011380e+002,6.812893e-001
4.049951e+002,6.000000e+000
4.088522e+002,-1.209168e+000
4.127093e+002,6.000000e+000
4.165664e+002,6.000000e+000
4.204235e+002,6.000000e+000
4.242806e+002,2.406536e-001
4.281377e+002,3.855299e-001
4.319948e+002,6.000000e+000
4.358519e+002,6.000000e+000
4.397090e+002,6.000000e+000
4.435661e+002,6.000000e+000
4.474232e+002,6.000000e+000
4.512803e+002,6.000000e+000
4.551374e+002,6.000000e+000
4.589945e+002,6.000000e+000
4.628516e+002,7.133670e-001
4.667087e+002,4.001794e-001
4.705658e+002,6.000000e+000
4.744229e+002,6.000000e+000
4.782800e+002,6.000000e+000
4.821371e+002,6.000000e+000
4.859941e+002,6.000000e+000
4.898513e+002,-4.555856e-001
4.937083e+002,6.000000e+000
4.975654e+002,6.000000e+000
5.014225e+002,6.000000e+000
5.052796e+002,6.000000e+000
5.091367e+002,6.000000e+000
5.129938e+002,6.000000e+000
5.168509e+002,-6.361027e-001
5.207080e+002,4.361654e-002
5.245651e+002,1.799912e-001
5.284222e+002,-1.266900e+000
5.322793e+002,-5.063117e-001
5.361364e+002,6.000000e+000
5.399935e+002,-7.732043e-002
5.438506e+002,1.372189e-001
5.477077e+002,2.853511e-001
5.515648e+002,6.000000e+000
5.554219e+002,6.000000e+000
5.592790e+002,6.000000e+000
5.631361e+002,6.000000e+000
5.669932e+002,-6.829063e-001
5.708503e+002,6.000000e+000
5.747074e+002,-2.880777e-001
5.785645e+002,-9.086045e-001
5.824216e+002,-9.335247e-001
5.862787e+002,-7.355776e-001
5.901357e+002,-2.481739e-001
5.939929e+002,5.279801e-001
5.978499e+002,-5.111155e-002
6.017070e+002,4.675169e-001
6.055641e+002,6.000000e+000
6.094212e+002,6.000000e+000
6.132783e+002,-4.353638e-001
6.171354e+002,6.000000e+000
6.209925e+002,6.000000e+000
6.248496e+002,6.000000e+000
6.287067e+002,-2.375538e-001
6.325638e+002,1.508867e-002
6.364209e+002,-1.314275e+000
6.402780e+002,6.000000e+000
6.441351e+002,2.328639e-001
6.479922e+002,6.000000e+000
6.518493e+002,6.000000e+000
6.557064e+002,6.000000e+000
6.595635e+002,-2.186149e+000
6.634205e+002,6.000000e+000
6.672777e+002,6.000000e+000
6.711348e+002,6.000000e+000
6.749918e+002,-7.149795e-001
6.788490e+002,4.293264e-001
6.827061e+002,-3.363584e-001
6.865631e+002,4.532700e-001
6.904203e+002,-3.755522e-001
6.942773e+002,-9.117405e-001
6.981344e+002,6.000000e+000
7.019916e+002,6.000000e+000
7.058486e+002,6.000000e+000
7.097057e+002,6.000000e+000
7.135629e+002,-5.894209e-001
7.174199e+002,-3.955801e-001
7.212770e+002,-4.262173e-001
7.251342e+002,6.000000e+000
7.289912e+002,-2.274620e-002
7.328483e+002,3.811128e-001
7.367054e+002,-1.631907e+000
7.405625e+002,-3.015929e-001
7.444196e+002,6.519428e-002
7.482767e+002,1.437060e-001
7.521338e+002,6.000000e+000
7.559908e+002,1.196695e-001
7.598480e+002,4.095558e-002
7.637051e+002,-1.215796e+000
7.675621e+002,-1.711213e-001
7.714193e+002,2.012659e-001
7.752764e+002,-8.587023e-002
7.791334e+002,5.740750e-001
7.829905e+002,-1.484255e+000
7.868477e+002,7.677961e-001
7.907047e+002,4.968357e-001
7.945618e+002,-1.718541e+000
7.984189e+002,1.184122e-001
8.022760e+002,6.000000e+000
8.061331e+002,6.000000e+000
8.099902e+002,6.000000e+000
8.138473e+002,6.000000e+000
8.177044e+002,6.000000e+000
8.215615e+002,6.883019e-001
8.254186e+002,6.223176e-001
8.292757e+002,6.000000e+000
8.331328e+002,6.000000e+000
8.369899e+002,6.000000e+000
8.408470e+002,6.000000e+000
8.447041e+002,1.046541e+000
8.485612e+002,7.966731e-001
8.524183e+002,1.069257e+000
8.562754e+002,2.194942e+000
8.601324e+002,1.373486e+000
8.639896e+002,1.613918e+000
8.678467e+002,1.333023e+000
8.717037e+002,1.270992e+000
8.755609e+002,1.344387e+000
8.794180e+002,1.233535e+000
8.832750e+002,1.973119e+000
8.871321e+002,1.858510e+000
8.909893e+002,1.593392e+000
8.948463e+002,6.000000e+000
8.987034e+002,6.000000e+000
9.025605e+002,1.399680e+000
9.064176e+002,1.518473e+000
9.102747e+002,1.572569e+000
9.141318e+002,1.384928e+000
9.179889e+002,1.425027e+000
9.218461e+002,6.000000e+000
9.257031e+002,6.000000e+000
9.295602e+002,6.000000e+000
9.334174e+002,6.000000e+000
9.372744e+002,1.746662e+000
9.411315e+002,1.658360e+000
9.449886e+002,1.873544e+000
9.488457e+002,2.203463e+000
9.527028e+002,1.687083e+000
9.565599e+002,1.616840e+000
9.604170e+002,1.699211e+000
9.642740e+002,1.759102e+000
9.681312e+002,2.382939e+000
9.719883e+002,3.465229e+000
9.758453e+002,2.280399e+000
9.797025e+002,2.125600e+000
9.835596e+002,2.199992e+000
9.874166e+002,3.247305e+000
9.912738e+002,4.156424e+000
9.951309e+002,2.160707e+000
9.989879e+002,1.768421e+000
1.002845e+003,1.994218e+000
1.006702e+003,2.180270e+000
1.010559e+003,1.888773e+000
1.014416e+003,1.736242e+000
1.018273e+003,1.672731e+000
1.022130e+003,1.584299e+000
1.025988e+003,1.645236e+000
1.029845e+003,1.822991e+000
1.033702e+003,1.934180e+000
1.037559e+003,2.143716e+000
1.041416e+003,2.091407e+000
1.045273e+003,1.861005e+000
1.049130e+003,1.802842e+000
1.052987e+003,1.782632e+000
1.056844e+003,1.735963e+000
1.060702e+003,1.709031e+000
1.064559e+003,1.633020e+000
1.068416e+003,1.592896e+000
1.072273e+003,1.750674e+000
1.076130e+003,1.972656e+000
1.079987e+003,1.866572e+000
1.083844e+003,1.696392e+000
1.087701e+003,1.647699e+000
1.091558e+003,1.593898e+000
1.095415e+003,1.494043e+000
1.099272e+003,1.410891e+000
1.103130e+003,1.407541e+000
1.106987e+003,1.492450e+000
1.110844e+003,1.551433e+000
1.114701e+003,1.527666e+000
1.118558e+003,1.498980e+000
1.122415e+003,1.496355e+000
1.126272e+003,1.434214e+000
1.130129e+003,1.357167e+000
1.133986e+003,1.355669e+000
1.137843e+003,1.372383e+000
1.141701e+003,1.322668e+000
1.145558e+003,1.334551e+000
1.149415e+003,1.395690e+000
1.153272e+003,1.402325e+000
1.157129e+003,1.400256e+000
1.160986e+003,1.362220e+000
1.164843e+003,1.329664e+000
1.168700e+003,1.348774e+000
1.172557e+003,1.376016e+000
1.176414e+003,1.318953e+000
1.180271e+003,1.282184e+000
1.184129e+003,1.304610e+000
1.187986e+003,1.293337e+000
1.191843e+003,1.249781e+000
1.195700e+003,1.252381e+000
1.199557e+003,1.272505e+000
1.203414e+003,1.266075e+000
1.207271e+003,1.257277e+000
1.211128e+003,1.223737e+000
1.214985e+003,1.153183e+000
1.218842e+003,1.088902e+000
1.222699e+003,1.032354e+000
1.226557e+003,9.713904e-001
1.230414e+003,8.998805e-001
1.234271e+003,8.343455e-001
1.238128e+003,7.814033e-001
1.241985e+003,7.346655e-001
1.245842e+003,6.953461e-001
1.249699e+003,6.613133e-001
1.253556e+003,6.363414e-001
1.257413e+003,6.185528e-001
1.261271e+003,5.890316e-001
1.265128e+003,5.625020e-001
1.268985e+003,5.455106e-001
1.272842e+003,5.306751e-001
1.276699e+003,5.159554e-001
1.280556e+003,5.027556e-001
1.284413e+003,4.960940e-001
1.288270e+003,4.885279e-001
1.292127e+003,4.749059e-001
1.295984e+003,4.624543e-001
1.299841e+003,4.504934e-001
1.303698e+003,4.404722e-001
1.307556e+003,4.337881e-001
1.311413e+003,4.294197e-001
1.315270e+003,4.223150e-001
1.319127e+003,4.142016e-001
1.322984e+003,4.090442e-001
1.326841e+003,4.063193e-001
1.330698e+003,4.036385e-001
1.334555e+003,4.012484e-001
1.338412e+003,4.014482e-001
1.342270e+003,3.991476e-001
1.346127e+003,3.935685e-001
1.349984e+003,3.904050e-001
1.353841e+003,3.920591e-001
1.357698e+003,3.947281e-001
1.361555e+003,3.974546e-001
1.365412e+003,4.006515e-001
1.369269e+003,4.015124e-001
1.373126e+003,4.050267e-001
1.376983e+003,4.157264e-001
1.380840e+003,4.290384e-001
1.384698e+003,4.384231e-001
1.388555e+003,4.536135e-001
1.392412e+003,4.707966e-001
1.396269e+003,4.862010e-001
1.400126e+003,5.003368e-001
1.403983e+003,5.161499e-001
1.407840e+003,5.295284e-001
1.411697e+003,5.435457e-001
1.415554e+003,5.513133e-001
1.419411e+003,5.561957e-001
1.423269e+003,5.659519e-001
1.427126e+003,5.748473e-001
1.430983e+003,5.793182e-001
1.434840e+003,5.786883e-001
1.438697e+003,5.746781e-001
1.442554e+003,5.714549e-001
1.446411e+003,5.649858e-001
1.450268e+003,5.574422e-001
1.454125e+003,5.510196e-001
1.457982e+003,5.404541e-001
1.461839e+003,5.303490e-001
1.465697e+003,5.270233e-001
1.469554e+003,5.301490e-001
1.473411e+003,5.308107e-001
1.477268e+003,5.355324e-001
1.481125e+003,5.471746e-001
1.484982e+003,5.533507e-001
1.488839e+003,5.653869e-001
1.492696e+003,5.792407e-001
1.496553e+003,5.848615e-001
1.500411e+003,5.870077e-001
1.504268e+003,5.961289e-001
1.508125e+003,6.014256e-001
1.511982e+003,5.962185e-001
1.515839e+003,5.894861e-001
1.519696e+003,5.794426e-001
1.523553e+003,5.693160e-001
1.527410e+003,5.627456e-001
1.531267e+003,5.535764e-001
1.535124e+003,5.429252e-001
1.538981e+003,5.334093e-001
1.542839e+003,5.214663e-001
1.546696e+003,5.104815e-001
1.550553e+003,4.962720e-001
1.554410e+003,4.826973e-001
1.558267e+003,4.716421e-001
1.562124e+003,4.596833e-001
1.565981e+003,4.534376e-001
1.569838e+003,4.461388e-001
1.573695e+003,4.389038e-001
1.577552e+003,4.345049e-001
1.581410e+003,4.291750e-001
1.585267e+003,4.300807e-001
1.589124e+003,4.343790e-001
1.592981e+003,4.380870e-001
1.596838e+003,4.454958e-001
1.600695e+003,4.577911e-001
1.604552e+003,4.774179e-001
1.608409e+003,5.009916e-001
1.612266e+003,5.229523e-001
1.616123e+003,5.509762e-001
1.619980e+003,5.823568e-001
1.623838e+003,6.072471e-001
1.627695e+003,6.263868e-001
1.631552e+003,6.406432e-001
1.635409e+003,6.503288e-001
1.639266e+003,6.556545e-001
1.643123e+003,6.472670e-001
1.646980e+003,6.291566e-001
1.650837e+003,6.122116e-001
1.654694e+003,5.924264e-001
1.658551e+003,5.708039e-001
1.662409e+003,5.471440e-001
1.666266e+003,5.230182e-001
1.670123e+003,4.986211e-001
1.673980e+003,4.781094e-001
1.677837e+003,4.587559e-001
1.681694e+003,4.403295e-001
1.685551e+003,4.238479e-001
1.689408e+003,4.090073e-001
1.693265e+003,3.970442e-001
1.697122e+003,3.863702e-001
1.700979e+003,3.780707e-001
1.704837e+003,3.734796e-001
1.708694e+003,3.703383e-001
1.712551e+003,3.662745e-001
1.716408e+003,3.642447e-001
1.720265e+003,3.628573e-001
1.724122e+003,3.584506e-001
1.727979e+003,3.524039e-001
1.731836e+003,3.529255e-001
1.735693e+003,3.549326e-001
1.739550e+003,3.530249e-001
1.743408e+003,3.510844e-001
1.747265e+003,3.478840e-001
1.751122e+003,3.462125e-001
1.754979e+003,3.460847e-001
1.758836e+003,3.470053e-001
1.762693e+003,3.458568e-001
1.766550e+003,3.449709e-001
1.770407e+003,3.445914e-001
1.774264e+003,3.439023e-001
1.778121e+003,3.403007e-001
1.781979e+003,3.345906e-001
1.785836e+003,3.331544e-001
1.789693e+003,3.316753e-001
1.793550e+003,3.294550e-001
1.797407e+003,3.316691e-001
1.801264e+003,3.327031e-001
1.805121e+003,3.331655e-001
1.808978e+003,3.328074e-001
1.812835e+003,3.312148e-001
1.816692e+003,3.307795e-001
1.820549e+003,3.333617e-001
1.824407e+003,3.346158e-001
1.828264e+003,3.344752e-001
1.832121e+003,3.321770e-001
1.835978e+003,3.275835e-001
1.839835e+003,3.259010e-001
1.843692e+003,3.233528e-001
1.847549e+003,3.173521e-001
1.851406e+003,3.108442e-001
1.855263e+003,3.083135e-001
1.859120e+003,3.090197e-001
1.862978e+003,3.045958e-001
1.866835e+003,2.999851e-001
1.870692e+003,3.004570e-001
1.874549e+003,3.019488e-001
1.878406e+003,3.018544e-001
1.882263e+003,3.025699e-001
1.886120e+003,3.052384e-001
1.889977e+003,3.077751e-001
1.893834e+003,3.070348e-001
1.897691e+003,3.088621e-001
1.901548e+003,3.097999e-001
1.905406e+003,3.110682e-001
1.909263e+003,3.132070e-001
1.913120e+003,3.133252e-001
1.916977e+003,3.120289e-001
1.920834e+003,3.106164e-001
1.924691e+003,3.085941e-001
1.928548e+003,3.053464e-001
1.932405e+003,3.019774e-001
1.936262e+003,3.013583e-001
1.940119e+003,2.994134e-001
1.943977e+003,2.932094e-001
1.947834e+003,2.900565e-001
1.951691e+003,2.912565e-001
1.955548e+003,2.876236e-001
1.959405e+003,2.828328e-001
1.963262e+003,2.835922e-001
1.967119e+003,2.826971e-001
1.970976e+003,2.810013e-001
1.974833e+003,2.811403e-001
1.978690e+003,2.826534e-001
1.982547e+003,2.849362e-001
1.986405e+003,2.837627e-001
1.990262e+003,2.844898e-001
1.994119e+003,2.872135e-001
1.997976e+003,2.866000e-001
2.001833e+003,2.869550e-001
2.005690e+003,2.892939e-001
2.009547e+003,2.915774e-001
2.013404e+003,2.907898e-001
2.017261e+003,2.887407e-001
2.021118e+003,2.859329e-001
2.024976e+003,2.828948e-001
2.028833e+003,2.820712e-001
2.032690e+003,2.783199e-001
2.036547e+003,2.734952e-001
2.040404e+003,2.686157e-001
2.044261e+003,2.643965e-001
2.048118e+003,2.606857e-001
2.051975e+003,2.596869e-001
2.055832e+003,2.597814e-001
2.059689e+003,2.610148e-001
2.063546e+003,2.618611e-001
2.067404e+003,2.626377e-001
2.071261e+003,2.642015e-001
2.075118e+003,2.662212e-001
2.078975e+003,2.678421e-001
2.082832e+003,2.706465e-001
2.086689e+003,2.735323e-001
2.090546e+003,2.761391e-001
2.094403e+003,2.775250e-001
2.098260e+003,2.779015e-001
2.102117e+003,2.776648e-001
2.105975e+003,2.763461e-001
2.109832e+003,2.737014e-001
2.113689e+003,2.728437e-001
2.117546e+003,2.711364e-001
2.121403e+003,2.682289e-001
2.125260e+003,2.671164e-001
2.129117e+003,2.668585e-001
2.132974e+003,2.654556e-001
2.136831e+003,2.619431e-001
2.140688e+003,2.594244e-001
2.144545e+003,2.592078e-001
2.148403e+003,2.592195e-001
2.152260e+003,2.604978e-001
2.156117e+003,2.608382e-001
2.159974e+003,2.634001e-001
2.163831e+003,2.658957e-001
2.167688e+003,2.683462e-001
2.171545e+003,2.705874e-001
2.175402e+003,2.706447e-001
2.179259e+003,2.740687e-001
2.183116e+003,2.772838e-001
2.186974e+003,2.780707e-001
2.190831e+003,2.785996e-001
2.194688e+003,2.776726e-001
2.198545e+003,2.773453e-001
2.202402e+003,2.772395e-001
2.206259e+003,2.777250e-001
2.210116e+003,2.780171e-001
2.213973e+003,2.765514e-001
2.217830e+003,2.742327e-001
2.221688e+003,2.700443e-001
2.225544e+003,2.692969e-001
2.229402e+003,2.694967e-001
2.233259e+003,2.670428e-001
2.237116e+003,2.661480e-001
2.240973e+003,2.673686e-001
2.244830e+003,2.690370e-001
2.248687e+003,2.705030e-001
2.252544e+003,2.704410e-001
2.256401e+003,2.720645e-001
2.260258e+003,2.742123e-001
2.264115e+003,2.767797e-001
2.267973e+003,2.797783e-001
2.271830e+003,2.828419e-001
2.275687e+003,2.842606e-001
2.279544e+003,2.836756e-001
2.283401e+003,2.839766e-001
2.287258e+003,2.853661e-001
2.291115e+003,2.859023e-001
2.294972e+003,2.844168e-001
2.298829e+003,2.834523e-001
2.302687e+003,2.819285e-001
2.306543e+003,2.790990e-001
2.310401e+003,2.790995e-001
2.314258e+003,2.794382e-001
2.318115e+003,2.757012e-001
2.321972e+003,2.739574e-001
2.325829e+003,2.739407e-001
2.329686e+003,2.721344e-001
2.333543e+003,2.698316e-001
2.337400e+003,2.661170e-001
2.341257e+003,2.663888e-001
2.345115e+003,2.695551e-001
2.348972e+003,2.712879e-001
2.352829e+003,2.731208e-001
2.356686e+003,2.780887e-001
2.360543e+003,2.814735e-001
2.364400e+003,2.776411e-001
2.368257e+003,2.765340e-001
2.372114e+003,2.779928e-001
2.375971e+003,2.829786e-001
2.379828e+003,2.866253e-001
2.383686e+003,2.872748e-001
2.387542e+003,2.878133e-001
2.391400e+003,2.867245e-001
2.395257e+003,2.850341e-001
2.399114e+003,2.833920e-001
2.402971e+003,2.808195e-001
2.406828e+003,2.783575e-001
2.410685e+003,2.759656e-001
2.414542e+003,2.741716e-001
2.418399e+003,2.717673e-001
2.422256e+003,2.716651e-001
2.426114e+003,2.722200e-001
2.429971e+003,2.710169e-001
2.433828e+003,2.706073e-001
2.437685e+003,2.706577e-001
2.441542e+003,2.699282e-001
2.445399e+003,2.715780e-001
2.449256e+003,2.727623e-001
2.453113e+003,2.724393e-001
2.456970e+003,2.734157e-001
2.460827e+003,2.737247e-001
2.464684e+003,2.734375e-001
2.468542e+003,2.751012e-001
2.472399e+003,2.781822e-001
2.476256e+003,2.774028e-001
2.480113e+003,2.762281e-001
2.483970e+003,2.774597e-001
2.487827e+003,2.770458e-001
2.491684e+003,2.753129e-001
2.495541e+003,2.734054e-001
2.499398e+003,2.728578e-001
2.503255e+003,2.711439e-001
2.507113e+003,2.699661e-001
2.510969e+003,2.691667e-001
2.514827e+003,2.685429e-001
2.518684e+003,2.683381e-001
2.522541e+003,2.689209e-001
2.526398e+003,2.694375e-001
2.530255e+003,2.694239e-001
2.534112e+003,2.710366e-001
2.537969e+003,2.723284e-001
2.541826e+003,2.724236e-001
2.545683e+003,2.732120e-001
2.549541e+003,2.744628e-001
2.553398e+003,2.774068e-001
2.557255e+003,2.794951e-001
2.561112e+003,2.818505e-001
2.564969e+003,2.850398e-001
2.568826e+003,2.862372e-001
2.572683e+003,2.876819e-001
2.576540e+003,2.902350e-001
2.580397e+003,2.897160e-001
2.584254e+003,2.901048e-001
2.588112e+003,2.905608e-001
2.591969e+003,2.905498e-001
2.595826e+003,2.911405e-001
2.599683e+003,2.914578e-001
2.603540e+003,2.943420e-001
2.607397e+003,2.961929e-001
2.611254e+003,2.965279e-001
2.615111e+003,2.965134e-001
2.618968e+003,2.966016e-001
2.622825e+003,2.973808e-001
2.626682e+003,3.014222e-001
2.630540e+003,3.056515e-001
2.634397e+003,3.083151e-001
2.638254e+003,3.090445e-001
2.642111e+003,3.098298e-001
2.645968e+003,3.117390e-001
2.649825e+003,3.139140e-001
2.653682e+003,3.190379e-001
2.657539e+003,3.238726e-001
2.661396e+003,3.252599e-001
2.665253e+003,3.250384e-001
2.669111e+003,3.279919e-001
2.672968e+003,3.315876e-001
2.676825e+003,3.346362e-001
2.680682e+003,3.360099e-001
2.684539e+003,3.360749e-001
2.688396e+003,3.369948e-001
2.692253e+003,3.376261e-001
2.696110e+003,3.396197e-001
2.699967e+003,3.431785e-001
2.703824e+003,3.460335e-001
2.707681e+003,3.481431e-001
2.711539e+003,3.497442e-001
2.715396e+003,3.512444e-001
2.719253e+003,3.539146e-001
2.723110e+003,3.569555e-001
2.726967e+003,3.601597e-001
2.730824e+003,3.657977e-001
2.734681e+003,3.685690e-001
2.738538e+003,3.700506e-001
2.742395e+003,3.714107e-001
2.746252e+003,3.750214e-001
2.750110e+003,3.797290e-001
2.753967e+003,3.839757e-001
2.757824e+003,3.870451e-001
2.761681e+003,3.899409e-001
2.765538e+003,3.915372e-001
2.769395e+003,3.928129e-001
2.773252e+003,3.977516e-001
2.777109e+003,4.049266e-001
2.780966e+003,4.084965e-001
2.784823e+003,4.110452e-001
2.788680e+003,4.125581e-001
2.792538e+003,4.127331e-001
2.796395e+003,4.145499e-001
2.800252e+003,4.196781e-001
2.804109e+003,4.213849e-001
2.807966e+003,4.236374e-001
2.811823e+003,4.291561e-001
2.815680e+003,4.332451e-001
2.819537e+003,4.350287e-001
2.823394e+003,4.390224e-001
2.827251e+003,4.442726e-001
2.831109e+003,4.469096e-001
2.834966e+003,4.508424e-001
2.838823e+003,4.549612e-001
2.842680e+003,4.568632e-001
2.846537e+003,4.613135e-001
2.850394e+003,4.652100e-001
2.854251e+003,4.670856e-001
2.858108e+003,4.731582e-001
2.861965e+003,4.731015e-001
2.865823e+003,4.727420e-001
2.869679e+003,4.792165e-001
2.873537e+003,4.852507e-001
2.877394e+003,4.895822e-001
2.881251e+003,4.933842e-001
2.885108e+003,4.949999e-001
2.888965e+003,4.984187e-001
2.892822e+003,5.041341e-001
2.896679e+003,5.095707e-001
2.900536e+003,5.098220e-001
2.904393e+003,5.138041e-001
2.908250e+003,5.212093e-001
2.912108e+003,5.278919e-001
2.915965e+003,5.292489e-001
2.919822e+003,5.322219e-001
2.923679e+003,5.387528e-001
2.927536e+003,5.453250e-001
2.931393e+003,5.519612e-001
2.935250e+003,5.596978e-001
2.939107e+003,5.627517e-001
2.942964e+003,5.637633e-001
2.946822e+003,5.655219e-001
2.950678e+003,5.688888e-001
2.954536e+003,5.725943e-001
2.958393e+003,5.794851e-001
2.962250e+003,5.863069e-001
2.966107e+003,5.945440e-001
2.969964e+003,5.998982e-001
2.973821e+003,6.021324e-001
2.977678e+003,6.033016e-001
2.981535e+003,6.073108e-001
2.985392e+003,6.099099e-001
2.989250e+003,6.113922e-001
2.993107e+003,6.153556e-001
2.996964e+003,6.221701e-001
3.000821e+003,6.268435e-001
3.004678e+003,6.335269e-001
3.008535e+003,6.435850e-001
3.012392e+003,6.486379e-001
3.016249e+003,6.545266e-001
3.020106e+003,6.548533e-001
3.023963e+003,6.577639e-001
3.027821e+003,6.690093e-001
3.031677e+003,6.779168e-001
3.035535e+003,6.821698e-001
3.039392e+003,6.838109e-001
3.043249e+003,6.848134e-001
3.047106e+003,6.941438e-001
3.050963e+003,7.035401e-001
3.054820e+003,7.069976e-001
3.058677e+003,7.148461e-001
3.062534e+003,7.184153e-001
3.066391e+003,7.215498e-001
3.070249e+003,7.255074e-001
3.074106e+003,7.253513e-001
3.077963e+003,7.286499e-001
3.081820e+003,7.392151e-001
3.085677e+003,7.477081e-001
3.089534e+003,7.542334e-001
3.093391e+003,7.556373e-001
3.097248e+003,7.540231e-001
3.101105e+003,7.667784e-001
3.104962e+003,7.862078e-001
3.108820e+003,7.904196e-001
3.112677e+003,7.914008e-001
3.116534e+003,7.938188e-001
3.120391e+003,8.001007e-001
3.124248e+003,8.041907e-001
3.128105e+003,8.076780e-001
3.131962e+003,8.118196e-001
3.135819e+003,8.162865e-001
3.139676e+003,8.270259e-001
3.143533e+003,8.315156e-001
3.147390e+003,8.375766e-001
3.151248e+003,8.574765e-001
3.155105e+003,8.643444e-001
3.158962e+003,8.630432e-001
3.162819e+003,8.668452e-001
3.166676e+003,8.636212e-001
3.170533e+003,8.717388e-001
3.174390e+003,8.811634e-001
3.178247e+003,8.889042e-001
3.182104e+003,8.987524e-001
3.185961e+003,9.060614e-001
3.189819e+003,9.154458e-001
3.193676e+003,9.190527e-001
3.197533e+003,9.177409e-001
3.201390e+003,9.242699e-001
3.205247e+003,9.310591e-001
3.209104e+003,9.253556e-001
3.212961e+003,9.330924e-001
3.216818e+003,9.505076e-001
3.220675e+003,9.612756e-001
3.224532e+003,9.648907e-001
3.228389e+003,9.598636e-001
3.232247e+003,9.622335e-001
3.236104e+003,9.622564e-001
3.239961e+003,9.594257e-001
3.243818e+003,9.658545e-001
3.247675e+003,9.745683e-001
3.251532e+003,9.790519e-001
3.255389e+003,9.852335e-001
3.259246e+003,9.988362e-001
3.263103e+003,9.994428e-001
3.266960e+003,9.991412e-001
3.270818e+003,1.001055e+000
3.274675e+003,1.000178e+000
3.278532e+003,1.006198e+000
3.282389e+003,1.011850e+000
3.286246e+003,1.014065e+000
3.290103e+003,1.021711e+000
3.293960e+003,1.020483e+000
3.297817e+003,1.025275e+000
3.301674e+003,1.041374e+000
3.305531e+003,1.060777e+000
3.309388e+003,1.057791e+000
3.313246e+003,1.052321e+000
3.317103e+003,1.059442e+000
3.320960e+003,1.068895e+000
3.324817e+003,1.066854e+000
3.328674e+003,1.077319e+000
3.332531e+003,1.080494e+000
3.336388e+003,1.077087e+000
3.340245e+003,1.077626e+000
3.344102e+003,1.097300e+000
3.347959e+003,1.111619e+000
3.351817e+003,1.114208e+000
3.355674e+003,1.114827e+000
3.359531e+003,1.119570e+000
3.363388e+003,1.136284e+000
3.367245e+003,1.140593e+000
3.371102e+003,1.127327e+000
3.374959e+003,1.121337e+000
3.378816e+003,1.125726e+000
3.382673e+003,1.143370e+000
3.386530e+003,1.156494e+000
3.390387e+003,1.162911e+000
3.394245e+003,1.163077e+000
3.398102e+003,1.157608e+000
3.401959e+003,1.135253e+000
3.405816e+003,1.128419e+000
3.409673e+003,1.147727e+000
3.413530e+003,1.165892e+000
3.417387e+003,1.166207e+000
3.421244e+003,1.169903e+000
3.425101e+003,1.176939e+000
3.428958e+003,1.166945e+000
3.432815e+003,1.175895e+000
3.436673e+003,1.183051e+000
3.440530e+003,1.182868e+000
3.444387e+003,1.187945e+000
3.448244e+003,1.192532e+000
3.452101e+003,1.204807e+000
3.455958e+003,1.213196e+000
3.459815e+003,1.197558e+000
3.463672e+003,1.176110e+000
3.467529e+003,1.174243e+000
3.471386e+003,1.202024e+000
3.475244e+003,1.216292e+000
3.479101e+003,1.203190e+000
3.482958e+003,1.199349e+000
3.486815e+003,1.200624e+000
3.490672e+003,1.205381e+000
3.494529e+003,1.210744e+000
3.498386e+003,1.218506e+000
3.502243e+003,1.229971e+000
3.506100e+003,1.228770e+000
3.509958e+003,1.210300e+000
3.513814e+003,1.203494e+000
3.517672e+003,1.232111e+000
3.521529e+003,1.233157e+000
3.525386e+003,1.209650e+000
3.529243e+003,1.196725e+000
3.533100e+003,1.191419e+000
3.536957e+003,1.178663e+000
3.540814e+003,1.177244e+000
3.544671e+003,1.198129e+000
3.548528e+003,1.216051e+000
3.552385e+003,1.193316e+000
3.556243e+003,1.184039e+000
3.560100e+003,1.185064e+000
3.563957e+003,1.195151e+000
3.567814e+003,1.191013e+000
3.571671e+003,1.167664e+000
3.575528e+003,1.154085e+000
3.579385e+003,1.128062e+000
3.583242e+003,1.104434e+000
3.587099e+003,1.089636e+000
3.590957e+003,1.086249e+000
3.594813e+003,1.077249e+000
3.598671e+003,1.059659e+000
3.602528e+003,1.030423e+000
3.606385e+003,9.957218e-001
3.610242e+003,9.594746e-001
3.614099e+003,9.090713e-001
3.617956e+003,8.772727e-001
3.621813e+003,8.401399e-001
3.625670e+003,7.916868e-001
3.629527e+003,7.480673e-001
3.633385e+003,7.062923e-001
3.637242e+003,6.567084e-001
3.641099e+003,5.996816e-001
3.644956e+003,5.532967e-001
3.648813e+003,5.111077e-001
3.652670e+003,4.655113e-001
3.656527e+003,4.228450e-001
3.660384e+003,3.863687e-001
3.664241e+003,3.552612e-001
3.668098e+003,3.255113e-001
3.671956e+003,2.993684e-001
3.675813e+003,2.787350e-001
3.679670e+003,2.593973e-001
3.683527e+003,2.409548e-001
3.687384e+003,2.234073e-001
3.691241e+003,2.094373e-001
3.695098e+003,1.989820e-001
3.698955e+003,1.907402e-001
3.702812e+003,1.843933e-001
3.706669e+003,1.746011e-001
3.710526e+003,1.663122e-001
3.714384e+003,1.631963e-001
3.718241e+003,1.590570e-001
3.722098e+003,1.543120e-001
3.725955e+003,1.504532e-001
3.729812e+003,1.450313e-001
3.733669e+003,1.403134e-001
3.737526e+003,1.387890e-001
3.741383e+003,1.370680e-001
3.745240e+003,1.332027e-001
3.749097e+003,1.323096e-001
3.752955e+003,1.330598e-001
3.756812e+003,1.302274e-001
3.760669e+003,1.267991e-001
3.764526e+003,1.271765e-001
3.768383e+003,1.260490e-001
3.772240e+003,1.236713e-001
3.776097e+003,1.222144e-001
3.779954e+003,1.232683e-001
3.783811e+003,1.233585e-001
3.787668e+003,1.241733e-001
3.791525e+003,1.222555e-001
3.795383e+003,1.200516e-001
3.799240e+003,1.211624e-001
3.803097e+003,1.213521e-001
3.806954e+003,1.200733e-001
3.810811e+003,1.210930e-001
3.814668e+003,1.227747e-001
3.818525e+003,1.217898e-001
3.822382e+003,1.204383e-001
3.826239e+003,1.194135e-001
3.830096e+003,1.188768e-001
3.833954e+003,1.179620e-001
3.837811e+003,1.157809e-001
3.841668e+003,1.119949e-001
3.845525e+003,1.132996e-001
3.849382e+003,1.156010e-001
3.853239e+003,1.172163e-001
3.857096e+003,1.160105e-001
3.860953e+003,1.127397e-001
3.864810e+003,1.146792e-001
3.868667e+003,1.167646e-001
3.872524e+003,1.141061e-001
3.876382e+003,1.107058e-001
3.880239e+003,1.103432e-001
3.884096e+003,1.122437e-001
3.887953e+003,1.116676e-001
3.891810e+003,1.099404e-001
3.895667e+003,1.100385e-001
3.899524e+003,1.123226e-001
3.903381e+003,1.124911e-001
3.907238e+003,1.093877e-001
3.911095e+003,1.092474e-001
3.914953e+003,1.101344e-001
3.918810e+003,1.107238e-001
3.922667e+003,1.097325e-001
3.926524e+003,1.097622e-001
3.930381e+003,1.098068e-001
3.934238e+003,1.082725e-001
3.938095e+003,1.085679e-001
3.941952e+003,1.107041e-001
3.945809e+003,1.106047e-001
3.949667e+003,1.096911e-001
3.953523e+003,1.078393e-001
3.957381e+003,1.067327e-001
3.961238e+003,1.087385e-001
3.965095e+003,1.100457e-001
3.968952e+003,1.097152e-001
3.972809e+003,1.085423e-001
3.976666e+003,1.089262e-001
3.980523e+003,1.096793e-001
3.984380e+003,1.096890e-001
3.988237e+003,1.087236e-001
3.992094e+003,1.069463e-001
3.995952e+003,1.044952e-001
3.999809e+003,1.056321e-001
4.003666e+003,1.101423e-001
4.007523e+003,1.124629e-001
4.011380e+003,1.106850e-001
4.015237e+003,1.097349e-001
4.019094e+003,1.078317e-001
4.022951e+003,1.059810e-001
4.026808e+003,1.042409e-001
4.030666e+003,1.038842e-001
4.034522e+003,1.018439e-001
4.038380e+003,1.016046e-001
4.042237e+003,1.041202e-001
4.046094e+003,1.036905e-001
4.049951e+003,1.012112e-001
4.053808e+003,1.029406e-001
4.057665e+003,1.049441e-001
4.061522e+003,1.042009e-001
4.065379e+003,1.021396e-001
4.069236e+003,1.012034e-001
4.073094e+003,1.011008e-001
4.076951e+003,1.028702e-001
4.080808e+003,1.017811e-001
4.084665e+003,1.010276e-001
4.088522e+003,1.012605e-001
4.092379e+003,1.004801e-001
4.096236e+003,1.011277e-001
4.100093e+003,1.016426e-001
4.103950e+003,1.000650e-001
4.107808e+003,1.001153e-001
4.111665e+003,9.903733e-002
4.115521e+003,9.899437e-002
4.119379e+003,9.938679e-002
4.123236e+003,9.890420e-002
4.127093e+003,9.922749e-002
4.130950e+003,1.015900e-001
4.134807e+003,1.006894e-001
4.138664e+003,9.828684e-002
4.142521e+003,9.797642e-002
4.146378e+003,9.761456e-002
4.150235e+003,9.659283e-002
4.154093e+003,9.618465e-002
4.157950e+003,1.003989e-001
4.161807e+003,1.007349e-001
4.165664e+003,9.758420e-002
4.169521e+003,9.846380e-002
4.173378e+003,1.008410e-001
4.177235e+003,9.973078e-002
4.181092e+003,9.764439e-002
4.184949e+003,9.853800e-002
4.188807e+003,1.007525e-001
4.192664e+003,1.009420e-001
4.196521e+003,9.762733e-002
4.200378e+003,9.668791e-002
4.204235e+003,9.768936e-002
4.208092e+003,9.718408e-002
4.211949e+003,9.319555e-002
4.215806e+003,9.284405e-002
4.219663e+003,9.525745e-002
4.223521e+003,9.572473e-002
4.227377e+003,9.557565e-002
4.231234e+003,9.710435e-002
4.235092e+003,9.625234e-002
4.238949e+003,9.278870e-002
4.242806e+003,9.425788e-002
4.246663e+003,9.617183e-002
4.250520e+003,9.488709e-002
4.254377e+003,9.545076e-002
4.258234e+003,9.636518e-002
4.262091e+003,9.458980e-002
4.265948e+003,9.410884e-002
4.269806e+003,9.439708e-002
4.273663e+003,9.445684e-002
4.277520e+003,9.388331e-002
4.281377e+003,9.516677e-002
4.285234e+003,9.626549e-002
4.289091e+003,9.411556e-002
4.292948e+003,9.122685e-002
4.296805e+003,9.412324e-002
4.300662e+003,9.512965e-002
4.304520e+003,9.521108e-002
4.308376e+003,9.751322e-002
4.312233e+003,9.734342e-002
4.316091e+003,9.198631e-002
4.319948e+003,8.894368e-002
4.323805e+003,9.138901e-002
4.327662e+003,9.412963e-002
4.331519e+003,9.328109e-002
4.335376e+003,9.288996e-002
4.339233e+003,9.710778e-002
4.343090e+003,9.809605e-002
4.346947e+003,9.715855e-002
4.350805e+003,9.998474e-002
4.354662e+003,1.007207e-001
4.358519e+003,9.906837e-002
4.362376e+003,9.597217e-002
4.366233e+003,9.460348e-002
4.370090e+003,9.540399e-002
4.373947e+003,9.752077e-002
4.377804e+003,9.766526e-002
4.381661e+003,9.573659e-002
4.385519e+003,9.654019e-002
4.389375e+003,9.928958e-002
4.393232e+003,9.733035e-002
4.397090e+003,9.720248e-002
4.400947e+003,9.843569e-002
4.404804e+003,9.799722e-002
4.408661e+003,9.933506e-002
4.412518e+003,9.982689e-002
4.416375e+003,9.937563e-002
4.420232e+003,9.681108e-002
4.424089e+003,9.469074e-002
4.427946e+003,9.645388e-002
4.431804e+003,9.691788e-002
4.435661e+003,9.669718e-002
4.439518e+003,9.742099e-002
4.443375e+003,9.750165e-002
4.447232e+003,9.756271e-002
4.451089e+003,9.836330e-002
4.454946e+003,9.956773e-002
4.458803e+003,1.002441e-001
4.462660e+003,9.832469e-002
4.466518e+003,9.894431e-002
4.470375e+003,1.004004e-001
4.474231e+003,1.015984e-001
4.478089e+003,1.024352e-001
4.481946e+003,1.023001e-001
4.485803e+003,9.856547e-002
4.489660e+003,9.971457e-002
4.493517e+003,9.998307e-002
4.497375e+003,9.820919e-002
4.501231e+003,9.781821e-002
4.505088e+003,1.003579e-001
4.508946e+003,9.960836e-002
4.512803e+003,9.968193e-002
4.516660e+003,1.042680e-001
4.520517e+003,1.067453e-001
4.524374e+003,1.050460e-001
4.528231e+003,1.025392e-001
4.532088e+003,1.009217e-001
4.535945e+003,9.900665e-002
4.539802e+003,9.983998e-002
4.543660e+003,1.031296e-001
4.547517e+003,1.010277e-001
4.551374e+003,1.002046e-001
4.555231e+003,9.929187e-002
4.559088e+003,9.622716e-002
4.562945e+003,9.724131e-002
4.566802e+003,9.550735e-002
4.570659e+003,9.554356e-002
4.574516e+003,9.801254e-002
4.578374e+003,9.763651e-002
4.582230e+003,9.787985e-002
4.586087e+003,9.804355e-002
4.589945e+003,9.386620e-002
4.593802e+003,9.612177e-002
4.597659e+003,1.018447e-001
4.601516e+003,1.012102e-001
4.605373e+003,9.997523e-002
4.609230e+003,9.811138e-002
4.613087e+003,9.745504e-002
4.616944e+003,9.775691e-002
4.620801e+003,9.858647e-002
4.624659e+003,9.680818e-002
4.628516e+003,9.627555e-002
4.632373e+003,9.878576e-002
4.636230e+003,9.933006e-002
4.640087e+003,9.379110e-002
4.643944e+003,9.244676e-002
4.647801e+003,9.304208e-002
4.651658e+003,9.437942e-002
4.655515e+003,9.582300e-002
4.659373e+003,9.726436e-002
4.663229e+003,9.733189e-002
4.667086e+003,9.929154e-002
4.670944e+003,1.001688e-001
4.674801e+003,9.966059e-002
4.678658e+003,1.037208e-001
4.682515e+003,1.051138e-001
4.686372e+003,9.988572e-002
4.690229e+003,9.862298e-002
4.694086e+003,9.874587e-002
4.697943e+003,9.741312e-002
4.701800e+003,9.962979e-002
4.705658e+003,1.075938e-001
4.709515e+003,1.106256e-001
4.713372e+003,1.070368e-001
4.717229e+003,1.017951e-001
4.721086e+003,9.787973e-002
4.724943e+003,9.929791e-002
4.728800e+003,1.009703e-001
4.732657e+003,9.839297e-002
4.736514e+003,9.715150e-002
4.740372e+003,9.686735e-002
4.744229e+003,1.003671e-001
4.748085e+003,1.034239e-001
4.751943e+003,1.015112e-001
4.755800e+003,9.811188e-002
4.759657e+003,9.716899e-002
4.763514e+003,9.949523e-002
4.767371e+003,1.009874e-001
4.771228e+003,1.038724e-001
4.775085e+003,1.039994e-001
4.778942e+003,1.033927e-001
4.782799e+003,1.057016e-001
4.786657e+003,1.055141e-001
4.790514e+003,1.038316e-001
4.794371e+003,1.065347e-001
4.798228e+003,1.053570e-001
4.802085e+003,1.036542e-001
4.805942e+003,1.070005e-001
4.809799e+003,1.100678e-001
4.813656e+003,1.074339e-001
4.817513e+003,1.062475e-001
4.821371e+003,1.024886e-001
4.825228e+003,9.897290e-002
4.829084e+003,9.966517e-002
4.832942e+003,1.016050e-001
4.836799e+003,1.001445e-001
4.840656e+003,9.762567e-002
4.844513e+003,9.863362e-002
4.848370e+003,1.034568e-001
4.852227e+003,1.063549e-001
4.856084e+003,1.058696e-001
4.859941e+003,1.056871e-001
4.863798e+003,1.050390e-001
4.867656e+003,1.045125e-001
4.871513e+003,1.087871e-001
4.875370e+003,1.083574e-001
4.879227e+003,1.050849e-001
4.883084e+003,1.063158e-001
4.886941e+003,1.105107e-001
4.890798e+003,1.097493e-001
4.894655e+003,1.110152e-001
4.898512e+003,1.094887e-001
4.902370e+003,1.039655e-001
4.906227e+003,1.030340e-001
4.910083e+003,1.080196e-001
4.913941e+003,1.094906e-001
4.917798e+003,1.082713e-001
4.921655e+003,1.061115e-001
4.925512e+003,1.090691e-001
4.929369e+003,1.081221e-001
4.933226e+003,1.086691e-001
4.937083e+003,1.123694e-001
4.940940e+003,1.137290e-001
4.944797e+003,1.118990e-001
4.948655e+003,1.135755e-001
4.952512e+003,1.125960e-001
4.956369e+003,1.091111e-001
4.960226e+003,1.110893e-001
4.964083e+003,1.149031e-001
4.967940e+003,1.135681e-001
4.971797e+003,1.134995e-001
4.975654e+003,1.154535e-001
4.979511e+003,1.115828e-001
4.983369e+003,1.118121e-001
4.987226e+003,1.139243e-001
4.991083e+003,1.134341e-001
4.994940e+003,1.152798e-001
4.998797e+003,1.199237e-001
5.002654e+003,1.194777e-001
5.006511e+003,1.174448e-001
5.010368e+003,1.180193e-001
5.014225e+003,1.190631e-001
5.018083e+003,1.145237e-001
5.021939e+003,1.102484e-001
5.025796e+003,1.107780e-001
5.029654e+003,1.144924e-001
5.033511e+003,1.138889e-001
5.037368e+003,1.130205e-001
5.041225e+003,1.141095e-001
5.045082e+003,1.157270e-001
5.048939e+003,1.137653e-001
5.052796e+003,1.126494e-001
5.056653e+003,1.122021e-001
5.060510e+003,1.117548e-001
5.064368e+003,1.127780e-001
5.068225e+003,1.198740e-001
5.072082e+003,1.283771e-001
5.075939e+003,1.272813e-001
5.079796e+003,1.213667e-001
5.083653e+003,1.231321e-001
5.087510e+003,1.273496e-001
5.091367e+003,1.241069e-001
5.095224e+003,1.204855e-001
5.099082e+003,1.231508e-001
5.102938e+003,1.253562e-001
5.106795e+003,1.263349e-001
5.110653e+003,1.292120e-001
5.114510e+003,1.281705e-001
5.118367e+003,1.254611e-001
5.122224e+003,1.204419e-001
5.126081e+003,1.180198e-001
5.129938e+003,1.193672e-001
5.133795e+003,1.210465e-001
5.137652e+003,1.221152e-001
5.141509e+003,1.226118e-001
5.145367e+003,1.220956e-001
5.149224e+003,1.225655e-001
5.153081e+003,1.267255e-001
5.156938e+003,1.297355e-001
5.160795e+003,1.275118e-001
5.164652e+003,1.295453e-001
5.168509e+003,1.329861e-001
5.172366e+003,1.335730e-001
5.176223e+003,1.335623e-001
5.180081e+003,1.316485e-001
5.183938e+003,1.296073e-001
5.187794e+003,1.343470e-001
5.191652e+003,1.335129e-001
5.195509e+003,1.329921e-001
5.199366e+003,1.314914e-001
5.203223e+003,1.291179e-001
5.207080e+003,1.298030e-001
5.210937e+003,1.305992e-001
5.214794e+003,1.317102e-001
5.218651e+003,1.332506e-001
5.222508e+003,1.289094e-001
5.226366e+003,1.258027e-001
5.230223e+003,1.239775e-001
5.234080e+003,1.237022e-001
5.237937e+003,1.220312e-001
5.241794e+003,1.238357e-001
5.245651e+003,1.256838e-001
5.249508e+003,1.296143e-001
5.253365e+003,1.316496e-001
5.257222e+003,1.279065e-001
5.261080e+003,1.254318e-001
5.264937e+003,1.249420e-001
5.268793e+003,1.249114e-001
5.272651e+003,1.263512e-001
5.276508e+003,1.309131e-001
5.280365e+003,1.348527e-001
5.284222e+003,1.317946e-001
5.288079e+003,1.323351e-001
5.291936e+003,1.359349e-001
5.295793e+003,1.344400e-001
5.299650e+003,1.328876e-001
5.303507e+003,1.305790e-001
5.307365e+003,1.289348e-001
5.311222e+003,1.243813e-001
5.315079e+003,1.246106e-001
5.318936e+003,1.269033e-001
5.322793e+003,1.255847e-001
5.326650e+003,1.283427e-001
5.330507e+003,1.298408e-001
5.334364e+003,1.260586e-001
5.338221e+003,1.274350e-001
5.342079e+003,1.274650e-001
5.345936e+003,1.276022e-001
5.349792e+003,1.287601e-001
5.353650e+003,1.277853e-001
5.357507e+003,1.288938e-001
5.361364e+003,1.318907e-001
5.365221e+003,1.304644e-001
5.369078e+003,1.275062e-001
5.372935e+003,1.258844e-001
5.376792e+003,1.256628e-001
5.380649e+003,1.280278e-001
5.384506e+003,1.352776e-001
5.388364e+003,1.370747e-001
5.392221e+003,1.321730e-001
5.396078e+003,1.275502e-001
5.399935e+003,1.267044e-001
5.403792e+003,1.289365e-001
5.407649e+003,1.288466e-001
5.411506e+003,1.211829e-001
5.415363e+003,1.218583e-001
5.419220e+003,1.312028e-001
5.423078e+003,1.293258e-001
5.426935e+003,1.251612e-001
5.430792e+003,1.235008e-001
5.434649e+003,1.218169e-001
5.438506e+003,1.301278e-001
5.442363e+003,1.363509e-001
5.446220e+003,1.334719e-001
5.450077e+003,1.263232e-001
5.453934e+003,1.266648e-001
5.457792e+003,1.345797e-001
5.461648e+003,1.371620e-001
5.465505e+003,1.295674e-001
5.469363e+003,1.288762e-001
5.473220e+003,1.325521e-001
5.477077e+003,1.337995e-001
5.480934e+003,1.320301e-001
5.484791e+003,1.282149e-001
5.488648e+003,1.275754e-001
5.492505e+003,1.325508e-001
5.496362e+003,1.315447e-001
5.500219e+003,1.319561e-001
5.504077e+003,1.372263e-001
5.507934e+003,1.405692e-001
5.511791e+003,1.357338e-001
5.515648e+003,1.350117e-001
5.519505e+003,1.351927e-001
5.523362e+003,1.284377e-001
5.527219e+003,1.270309e-001
5.531076e+003,1.358341e-001
5.534933e+003,1.399842e-001
5.538791e+003,1.324869e-001
5.542647e+003,1.280836e-001
5.546504e+003,1.374909e-001
5.550362e+003,1.475839e-001
5.554219e+003,1.441371e-001
5.558076e+003,1.348885e-001
5.561933e+003,1.330894e-001
5.565790e+003,1.338098e-001
5.569647e+003,1.362267e-001
5.573504e+003,1.357417e-001
5.577361e+003,1.367647e-001
5.581218e+003,1.419420e-001
5.585076e+003,1.418300e-001
5.588933e+003,1.391798e-001
5.592790e+003,1.361124e-001
5.596647e+003,1.328871e-001
5.600504e+003,1.355832e-001
5.604361e+003,1.353595e-001
5.608218e+003,1.329166e-001
5.612075e+003,1.291685e-001
5.615932e+003,1.318712e-001
5.619790e+003,1.345050e-001
5.623646e+003,1.292407e-001
5.627503e+003,1.297653e-001
5.631361e+003,1.326520e-001
5.635218e+003,1.320701e-001
5.639075e+003,1.335901e-001
5.642932e+003,1.397966e-001
5.646789e+003,1.442732e-001
5.650646e+003,1.401046e-001
5.654503e+003,1.377470e-001
5.658360e+003,1.373830e-001
5.662217e+003,1.421810e-001
5.666075e+003,1.496141e-001
5.669932e+003,1.504155e-001
5.673789e+003,1.433487e-001
5.677646e+003,1.469622e-001
5.681503e+003,1.502541e-001
5.685360e+003,1.437467e-001
5.689217e+003,1.415891e-001
5.693074e+003,1.469056e-001
5.696931e+003,1.476950e-001
5.700789e+003,1.440770e-001
5.704646e+003,1.421511e-001
5.708502e+003,1.393549e-001
5.712360e+003,1.330017e-001
5.716217e+003,1.384693e-001
5.720074e+003,1.430310e-001
5.723931e+003,1.422221e-001
5.727788e+003,1.424179e-001
5.731645e+003,1.425969e-001
5.735502e+003,1.400797e-001
5.739359e+003,1.425714e-001
5.743216e+003,1.391123e-001
5.747074e+003,1.329367e-001
5.750931e+003,1.369006e-001
5.754788e+003,1.386944e-001
5.758645e+003,1.380550e-001
5.762502e+003,1.431923e-001
5.766359e+003,1.513476e-001
5.770216e+003,1.551896e-001
5.774073e+003,1.508505e-001
5.777930e+003,1.460680e-001
5.781788e+003,1.469305e-001
5.785645e+003,1.498530e-001
5.789501e+003,1.520032e-001
5.793359e+003,1.600169e-001
5.797216e+003,1.577053e-001
5.801073e+003,1.469799e-001
5.804930e+003,1.446891e-001
5.808787e+003,1.405760e-001
5.812644e+003,1.434003e-001
5.816501e+003,1.513306e-001
5.820358e+003,1.479326e-001
5.824215e+003,1.408810e-001
5.828073e+003,1.377638e-001
5.831930e+003,1.407256e-001
5.835787e+003,1.454079e-001
5.839644e+003,1.479428e-001
5.843501e+003,1.463705e-001
5.847358e+003,1.450764e-001
5.851215e+003,1.475926e-001
5.855072e+003,1.427307e-001
5.858929e+003,1.434454e-001
5.862787e+003,1.472024e-001
5.866644e+003,1.464630e-001
5.870500e+003,1.503515e-001
5.874358e+003,1.498153e-001
5.878215e+003,1.459650e-001
5.882072e+003,1.456852e-001
5.885929e+003,1.507392e-001
5.889786e+003,1.514740e-001
5.893643e+003,1.522989e-001
5.897500e+003,1.538594e-001
5.901357e+003,1.499647e-001
5.905214e+003,1.492373e-001
5.909072e+003,1.492078e-001
5.912929e+003,1.516222e-001
5.916786e+003,1.490712e-001
5.920643e+003,1.408225e-001
5.924500e+003,1.409475e-001
5.928357e+003,1.454630e-001
5.932214e+003,1.482226e-001
5.936071e+003,1.447045e-001
5.939928e+003,1.340695e-001
5.943786e+003,1.359033e-001
5.947643e+003,1.450019e-001
5.951500e+003,1.457813e-001
5.955357e+003,1.435872e-001
5.959214e+003,1.411114e-001
5.963071e+003,1.424671e-001
5.966928e+003,1.485754e-001
5.970785e+003,1.445987e-001
5.974642e+003,1.435399e-001
5.978500e+003,1.476133e-001
5.982356e+003,1.512930e-001
5.986213e+003,1.523651e-001
5.990071e+003,1.520500e-001
5.993928e+003,1.488113e-001
5.997785e+003,1.461760e-001
6.001642e+003,1.453826e-001
6.005499e+003,1.465376e-001
6.009356e+003,1.503069e-001
6.013213e+003,1.481224e-001
6.017070e+003,1.486321e-001
6.020927e+003,1.502349e-001
6.024785e+003,1.468490e-001
6.028642e+003,1.445660e-001
6.032499e+003,1.422377e-001
6.036356e+003,1.408249e-001
6.040213e+003,1.513296e-001
6.044070e+003,1.533742e-001
6.047927e+003,1.477489e-001
6.051784e+003,1.486594e-001
6.055641e+003,1.478970e-001
6.059499e+003,1.477443e-001
6.063355e+003,1.541022e-001
6.067212e+003,1.616838e-001
6.071070e+003,1.570158e-001
6.074927e+003,1.463272e-001
6.078784e+003,1.418394e-001
6.082641e+003,1.454879e-001
6.086498e+003,1.494955e-001
6.090355e+003,1.501242e-001
6.094212e+003,1.527244e-001
6.098069e+003,1.519304e-001
6.101926e+003,1.508060e-001
6.105784e+003,1.512809e-001
6.109641e+003,1.464750e-001
6.113498e+003,1.466858e-001
6.117355e+003,1.462409e-001
6.121212e+003,1.392382e-001
6.125069e+003,1.403440e-001
6.128926e+003,1.534351e-001
6.132783e+003,1.502277e-001
6.136640e+003,1.491664e-001
6.140498e+003,1.488305e-001
6.144354e+003,1.475607e-001
6.148211e+003,1.450128e-001
6.152069e+003,1.410573e-001
6.155926e+003,1.445862e-001
6.159783e+003,1.531923e-001
6.163640e+003,1.557737e-001
6.167497e+003,1.542252e-001
6.171354e+003,1.593970e-001
6.175211e+003,1.575886e-001
6.179068e+003,1.478161e-001
6.182925e+003,1.470414e-001
6.186783e+003,1.504889e-001
6.190640e+003,1.523694e-001
6.194497e+003,1.570078e-001
6.198354e+003,1.593115e-001
6.202211e+003,1.548424e-001
6.206068e+003,1.463880e-001
6.209925e+003,1.486823e-001
6.213782e+003,1.555553e-001
6.217639e+003,1.490013e-001
6.221497e+003,1.425492e-001
6.225354e+003,1.431342e-001
6.229210e+003,1.459234e-001
6.233068e+003,1.549430e-001
6.236925e+003,1.528477e-001
6.240782e+003,1.452397e-001
6.244639e+003,1.445560e-001
6.248496e+003,1.454023e-001
6.252353e+003,1.478319e-001
6.256210e+003,1.568813e-001
6.260067e+003,1.666569e-001
6.263924e+003,1.643756e-001
6.267782e+003,1.625878e-001
6.271639e+003,1.584647e-001
6.275496e+003,1.532664e-001
6.279353e+003,1.506638e-001
6.283210e+003,1.470518e-001
6.287067e+003,1.417553e-001
6.290924e+003,1.464068e-001
6.294781e+003,1.566433e-001
6.298638e+003,1.517512e-001
6.302496e+003,1.428081e-001
6.306353e+003,1.455628e-001
6.310209e+003,1.477239e-001
6.314067e+003,1.514862e-001
6.317924e+003,1.540347e-001
6.321781e+003,1.509366e-001
6.325638e+003,1.483572e-001
6.329495e+003,1.475191e-001
6.333352e+003,1.473914e-001
6.337209e+003,1.521240e-001
6.341066e+003,1.474193e-001
6.344923e+003,1.414442e-001
6.348780e+003,1.390017e-001
6.352638e+003,1.420086e-001
6.356495e+003,1.511841e-001
6.360352e+003,1.619179e-001
6.364209e+003,1.729114e-001
6.368066e+003,1.759994e-001
6.371923e+003,1.710135e-001
6.375780e+003,1.586515e-001
6.379637e+003,1.457730e-001
6.383494e+003,1.497417e-001
6.387352e+003,1.566847e-001
6.391208e+003,1.637366e-001
6.395065e+003,1.590892e-001
6.398923e+003,1.564590e-001
6.402780e+003,1.505997e-001
6.406637e+003,1.411848e-001
6.410494e+003,1.400524e-001
6.414351e+003,1.461431e-001
6.418208e+003,1.411105e-001
6.422065e+003,1.412272e-001
6.425922e+003,1.455997e-001
6.429779e+003,1.504161e-001
6.433637e+003,1.542478e-001
6.437494e+003,1.566515e-001
6.441351e+003,1.555972e-001
6.445208e+003,1.582846e-001
6.449065e+003,1.513552e-001
6.452922e+003,1.407644e-001
6.456779e+003,1.490400e-001
6.460636e+003,1.587884e-001
6.464493e+003,1.542301e-001
6.468351e+003,1.618479e-001
6.472208e+003,1.637561e-001
6.476064e+003,1.589337e-001
6.479922e+003,1.620575e-001
6.483779e+003,1.498138e-001
6.487636e+003,1.461015e-001
6.491493e+003,1.430375e-001
6.495350e+003,1.344254e-001
6.499207e+003,1.432811e-001
6.503064e+003,1.573358e-001
6.506921e+003,1.568527e-001
6.510778e+003,1.451391e-001
6.514636e+003,1.441268e-001
6.518493e+003,1.506867e-001
6.522350e+003,1.539229e-001
6.526207e+003,1.609067e-001
6.530064e+003,1.653838e-001
6.533921e+003,1.577203e-001
6.537778e+003,1.393993e-001
6.541635e+003,1.338320e-001
6.545492e+003,1.539550e-001
6.549350e+003,1.573336e-001
6.553207e+003,1.646588e-001
6.557063e+003,1.685280e-001
6.560921e+003,1.598082e-001
6.564778e+003,1.502028e-001
6.568635e+003,1.522051e-001
6.572492e+003,1.526896e-001
6.576349e+003,1.572793e-001
6.580206e+003,1.651715e-001
6.584063e+003,1.610744e-001
6.587920e+003,1.534359e-001
6.591777e+003,1.436254e-001
6.595635e+003,1.353882e-001
6.599492e+003,1.421956e-001
6.603349e+003,1.529955e-001
6.607206e+003,1.615679e-001
6.611063e+003,1.543350e-001
6.614920e+003,1.555834e-001
6.618777e+003,1.598713e-001
6.622634e+003,1.598025e-001
6.626491e+003,1.574298e-001
6.630349e+003,1.580371e-001
6.634206e+003,1.515837e-001
6.638063e+003,1.363074e-001
6.641920e+003,1.377743e-001
6.645777e+003,1.493612e-001
6.649634e+003,1.484635e-001
6.653491e+003,1.467487e-001
6.657348e+003,1.456670e-001
6.661205e+003,1.505390e-001
6.665063e+003,1.499879e-001
6.668919e+003,1.441727e-001
6.672776e+003,1.496284e-001
6.676634e+003,1.610771e-001
6.680491e+003,1.658566e-001
6.684348e+003,1.624976e-001
6.688205e+003,1.547514e-001
6.692062e+003,1.608885e-001
6.695919e+003,1.603052e-001
6.699776e+003,1.535030e-001
6.703633e+003,1.544099e-001
6.707490e+003,1.591591e-001
6.711348e+003,1.572289e-001
6.715205e+003,1.552307e-001
6.719062e+003,1.632208e-001
6.722919e+003,1.780795e-001
6.726776e+003,1.782271e-001
6.730633e+003,1.605316e-001
6.734490e+003,1.500205e-001
6.738347e+003,1.522146e-001
6.742204e+003,1.506083e-001
6.746062e+003,1.610253e-001
6.749918e+003,1.633573e-001
6.753775e+003,1.549865e-001
6.757633e+003,1.716412e-001
6.761490e+003,1.651794e-001
6.765347e+003,1.485009e-001
6.769204e+003,1.471906e-001
6.773061e+003,1.538793e-001
6.776918e+003,1.611829e-001
6.780775e+003,1.651065e-001
6.784632e+003,1.678267e-001
6.788489e+003,1.672744e-001
6.792347e+003,1.611663e-001
6.796204e+003,1.498058e-001
6.800061e+003,1.446402e-001
6.803918e+003,1.391125e-001
6.807775e+003,1.354825e-001
6.811632e+003,1.487876e-001
6.815489e+003,1.593110e-001
6.819346e+003,1.688307e-001
6.823203e+003,1.700533e-001
6.827061e+003,1.603570e-001
6.830917e+003,1.559348e-001
6.834774e+003,1.665967e-001
6.838632e+003,1.725996e-001
6.842489e+003,1.550001e-001
6.846346e+003,1.441721e-001
6.850203e+003,1.471560e-001
6.854060e+003,1.552993e-001
6.857917e+003,1.642690e-001
6.861774e+003,1.743109e-001
6.865631e+003,1.767119e-001
6.869488e+003,1.683922e-001
6.873346e+003,1.670706e-001
6.877203e+003,1.581876e-001
6.881060e+003,1.508501e-001
6.884917e+003,1.320398e-001
6.888774e+003,1.344532e-001
6.892631e+003,1.462385e-001
6.896488e+003,1.430919e-001
6.900345e+003,1.430687e-001
6.904202e+003,1.558879e-001
6.908060e+003,1.670009e-001
6.911917e+003,1.726519e-001
6.915773e+003,1.667362e-001
6.919631e+003,1.646420e-001
6.923488e+003,1.691342e-001
6.927345e+003,1.660391e-001
6.931202e+003,1.520797e-001
6.935059e+003,1.401670e-001
6.938916e+003,1.399773e-001
6.942773e+003,1.489702e-001
6.946630e+003,1.429313e-001
6.950487e+003,1.421414e-001
6.954345e+003,1.549186e-001
6.958202e+003,1.627971e-001
6.962059e+003,1.847504e-001
6.965916e+003,1.963973e-001
6.969773e+003,1.861843e-001
6.973630e+003,1.750159e-001
6.977487e+003,1.628543e-001
6.981344e+003,1.480590e-001
6.985201e+003,1.467722e-001
6.989059e+003,1.584608e-001
6.992916e+003,1.723183e-001
6.996772e+003,1.637938e-001
7.000630e+003,1.637054e-001
7.004487e+003,1.758107e-001
7.008344e+003,1.802596e-001
7.012201e+003,1.726012e-001
7.016058e+003,1.703402e-001
7.019915e+003,1.577380e-001
7.023772e+003,1.633503e-001
7.027629e+003,1.805484e-001
7.031486e+003,1.534510e-001
7.035344e+003,1.531940e-001
7.039201e+003,1.647827e-001
7.043058e+003,1.626837e-001
7.046915e+003,1.651935e-001
7.050772e+003,1.572098e-001
7.054629e+003,1.582585e-001
7.058486e+003,1.615052e-001
7.062343e+003,1.537516e-001
7.066200e+003,1.680334e-001
7.070058e+003,1.612750e-001
7.073915e+003,1.448139e-001
7.077771e+003,1.448340e-001
7.081629e+003,1.413727e-001
7.085486e+003,1.389822e-001
7.089343e+003,1.552536e-001
7.093200e+003,1.757594e-001
7.097057e+003,1.693345e-001
7.100914e+003,1.537404e-001
7.104771e+003,1.660524e-001
7.108628e+003,1.710502e-001
7.112485e+003,1.712734e-001
7.116343e+003,1.682143e-001
7.120200e+003,1.657081e-001
7.124057e+003,1.632649e-001
7.127914e+003,1.652779e-001
7.131771e+003,1.873879e-001
7.135628e+003,1.923159e-001
7.139485e+003,1.828529e-001
7.143342e+003,1.804864e-001
7.147199e+003,1.724077e-001
7.151057e+003,1.585488e-001
7.154914e+003,1.487949e-001
7.158771e+003,1.547302e-001
7.162628e+003,1.713321e-001
7.166485e+003,1.829511e-001
7.170342e+003,1.775126e-001
7.174199e+003,1.670627e-001
7.178056e+003,1.661061e-001
7.181913e+003,1.520825e-001
7.185771e+003,1.315894e-001
7.189627e+003,1.534248e-001
7.193484e+003,1.630094e-001
7.197342e+003,1.582941e-001
7.201199e+003,1.756506e-001
7.205056e+003,1.721457e-001
7.208913e+003,1.559008e-001
7.212770e+003,1.521552e-001
7.216627e+003,1.497479e-001
7.220484e+003,1.227393e-001
7.224341e+003,1.258024e-001
7.228198e+003,1.529421e-001
7.232056e+003,1.488287e-001
7.235913e+003,1.427563e-001
7.239770e+003,1.512106e-001
7.243627e+003,1.604340e-001
7.247484e+003,1.432242e-001
7.251341e+003,1.476939e-001
7.255198e+003,1.507099e-001
7.259055e+003,1.666888e-001
7.262912e+003,1.874686e-001
7.266770e+003,1.738988e-001
7.270626e+003,1.714689e-001
7.274483e+003,1.747794e-001
7.278341e+003,1.473362e-001
7.282198e+003,1.318814e-001
7.286055e+003,1.286968e-001
7.289912e+003,1.330679e-001
7.293769e+003,1.419769e-001
7.297626e+003,1.547084e-001
7.301483e+003,1.749602e-001
7.305340e+003,1.620835e-001
7.309197e+003,1.442705e-001
7.313055e+003,1.426857e-001
7.316912e+003,1.332500e-001
7.320769e+003,1.438753e-001
7.324626e+003,1.790088e-001
7.328483e+003,1.824528e-001
7.332340e+003,1.415243e-001
7.336197e+003,1.418618e-001
7.340054e+003,1.730138e-001
7.343911e+003,1.997117e-001
7.347769e+003,1.871543e-001
7.351625e+003,1.469744e-001
7.355482e+003,1.389872e-001
7.359340e+003,1.627462e-001
7.363197e+003,1.706693e-001
7.367054e+003,1.576573e-001
7.370911e+003,1.592465e-001
7.374768e+003,1.686581e-001
7.378625e+003,1.772404e-001
7.382482e+003,1.865476e-001
7.386339e+003,1.844294e-001
7.390196e+003,1.703647e-001
7.394054e+003,1.610695e-001
7.397911e+003,1.528155e-001
7.401768e+003,1.688733e-001
7.405625e+003,1.774093e-001
7.409482e+003,1.643149e-001
7.413339e+003,1.326695e-001
7.417196e+003,1.411189e-001
7.421053e+003,1.446852e-001
7.424910e+003,1.530843e-001
7.428768e+003,1.527486e-001
7.432625e+003,1.392049e-001
7.436481e+003,1.477991e-001
7.440339e+003,1.270699e-001
7.444196e+003,1.116067e-001
7.448053e+003,1.349645e-001
7.451910e+003,1.520315e-001
7.455767e+003,1.682187e-001
7.459624e+003,1.738776e-001
7.463481e+003,1.497253e-001
7.467338e+003,1.643687e-001
7.471195e+003,1.707954e-001
7.475053e+003,1.389876e-001
7.478910e+003,1.478004e-001
7.482767e+003,1.747883e-001
7.486624e+003,1.622393e-001
7.490481e+003,1.265343e-001
7.494338e+003,9.965830e-002
7.498195e+003,1.102815e-001
7.502052e+003,1.102889e-001
7.505909e+003,1.166421e-001
7.509767e+003,1.465504e-001
7.513624e+003,1.544546e-001
7.517480e+003,1.588336e-001
7.521338e+003,1.779915e-001
7.525195e+003,1.680036e-001
7.529052e+003,1.541585e-001
7.532909e+003,1.431360e-001
7.536766e+003,1.415515e-001
7.540623e+003,1.601256e-001
7.544480e+003,1.559097e-001
7.548337e+003,1.447104e-001
7.552194e+003,1.267808e-001
7.556052e+003,9.469038e-002
7.559909e+003,1.393099e-001
7.563766e+003,1.654387e-001
7.567623e+003,1.544855e-001
7.571480e+003,1.634272e-001
7.575337e+003,1.672667e-001
7.579194e+003,1.517050e-001
7.583051e+003,1.692016e-001
7.586908e+003,1.848991e-001
7.590766e+003,1.604945e-001
7.594623e+003,1.629167e-001
7.598479e+003,1.538953e-001
7.602337e+003,1.244508e-001
7.606194e+003,1.008534e-001
7.610051e+003,1.278931e-001
7.613908e+003,1.930611e-001
7.617765e+003,2.181363e-001
7.621622e+003,1.929375e-001
7.625479e+003,1.549612e-001
7.629336e+003,1.582915e-001
7.633193e+003,1.737372e-001
7.637051e+003,1.496152e-001
7.640908e+003,1.338315e-001
7.644765e+003,1.543113e-001
7.648622e+003,1.635669e-001
7.652479e+003,1.706496e-001
7.656336e+003,1.762047e-001
7.660193e+003,1.504984e-001
7.664050e+003,1.411522e-001
7.667907e+003,1.403352e-001
7.671765e+003,1.409432e-001
7.675622e+003,1.400732e-001
7.679479e+003,1.906116e-001
7.683336e+003,2.100189e-001
7.687193e+003,1.618182e-001
7.691050e+003,1.159027e-001
7.694907e+003,9.767845e-002
7.698764e+003,1.192225e-001
7.702621e+003,1.345340e-001
7.706479e+003,1.590126e-001
7.710335e+003,1.841179e-001
7.714192e+003,1.837758e-001
7.718050e+003,1.698723e-001
7.721907e+003,1.324740e-001
7.725764e+003,1.562961e-001
7.729621e+003,1.474843e-001
7.733478e+003,1.088570e-001
7.737335e+003,9.366772e-002
7.741192e+003,1.105655e-001
7.745049e+003,1.206753e-001
7.748906e+003,1.432054e-001
7.752764e+003,1.710109e-001
7.756621e+003,1.739896e-001
7.760478e+003,1.457558e-001
7.764335e+003,1.024355e-001
7.768192e+003,7.998510e-002
7.772049e+003,9.414576e-002
7.775906e+003,1.938069e-001
7.779763e+003,2.118315e-001
7.783620e+003,1.270849e-001
7.787478e+003,1.145064e-001
7.791334e+003,1.244337e-001
7.795191e+003,1.159588e-001
7.799049e+003,1.133969e-001
7.802906e+003,1.524280e-001
7.806763e+003,1.558943e-001
7.810620e+003,1.315355e-001
7.814477e+003,1.406869e-001
7.818334e+003,1.220600e-001
7.822191e+003,1.139472e-001
7.826048e+003,1.432024e-001
7.829905e+003,1.683938e-001
7.833763e+003,1.635113e-001
7.837620e+003,1.689581e-001
7.841477e+003,1.978507e-001
7.845334e+003,1.789236e-001
7.849191e+003,1.104249e-001
7.853048e+003,1.421458e-001
7.856905e+003,1.581445e-001
7.860762e+003,1.528237e-001
7.864619e+003,1.790644e-001
7.868477e+003,2.167706e-001
7.872333e+003,2.131683e-001
7.876190e+003,1.233023e-001
7.880048e+003,8.439660e-002
7.883905e+003,6.544002e-002
7.887762e+003,7.664626e-002
7.891619e+003,1.096405e-001
7.895476e+003,1.685559e-001
7.899333e+003,1.009079e-001
7.903190e+003,8.125178e-002
7.907047e+003,1.152226e-001
7.910904e+003,1.380496e-001
7.914762e+003,1.080033e-001
7.918619e+003,8.982024e-002
7.922476e+003,1.047610e-001
7.926333e+003,1.016858e-001
7.930190e+003,1.073965e-001
7.934047e+003,8.260979e-002
7.937904e+003,8.053932e-002
7.941761e+003,1.271185e-001
7.945618e+003,1.190154e-001
7.949476e+003,1.499846e-001
7.953333e+003,1.826631e-001
7.957189e+003,1.151748e-001
7.961047e+003,3.272166e-002
7.964904e+003,6.275508e-002
7.968761e+003,1.115247e-001
7.972618e+003,1.439995e-001
7.976475e+003,1.071893e-001
7.980332e+003,5.448203e-002
7.984189e+003,1.224088e-001
7.988046e+003,2.129314e-001
7.991903e+003,1.824190e-001
7.995761e+003,7.946415e-002
7.999618e+003,5.310230e-002
