4.011380e+002,6.000000e+000
4.049951e+002,1.169089e+000
4.088522e+002,6.000000e+000
4.127093e+002,-2.364311e-001
4.165664e+002,-1.254324e-001
4.204235e+002,-1.326347e+000
4.242806e+002,3.866139e-001
4.281377e+002,-2.439562e-001
4.319948e+002,-2.894735e-001
4.358519e+002,-2.954577e-001
4.397090e+002,-7.752153e-003
4.435661e+002,6.061044e-001
4.474232e+002,2.503664e-001
4.512803e+002,-5.738636e-002
4.551374e+002,-5.581793e-001
4.589945e+002,-1.602651e+000
4.628516e+002,-2.879355e-001
4.667087e+002,1.838274e-001
4.705658e+002,3.397530e-001
4.744229e+002,-3.539163e-001
4.782800e+002,-1.423009e-002
4.821371e+002,7.509159e-001
4.859941e+002,-3.111003e-001
4.898513e+002,6.000000e+000
4.937083e+002,5.279386e-001
4.975654e+002,6.000000e+000
5.014225e+002,6.000000e+000
5.052796e+002,6.000000e+000
5.091367e+002,6.000000e+000
5.129938e+002,6.000000e+000
5.168509e+002,3.175430e-001
5.207080e+002,3.776423e-001
5.245651e+002,6.000000e+000
5.284222e+002,6.000000e+000
5.322793e+002,-2.431532e-001
5.361364e+002,-9.182648e-002
5.399935e+002,-7.366493e-001
5.438506e+002,-7.595477e-001
5.477077e+002,6.000000e+000
5.515648e+002,6.000000e+000
5.554219e+002,6.000000e+000
5.592790e+002,6.000000e+000
5.631361e+002,6.000000e+000
5.669932e+002,6.000000e+000
5.708503e+002,6.227818e-001
5.747074e+002,6.000000e+000
5.785645e+002,3.951316e-001
5.824216e+002,7.344284e-001
5.862787e+002,-7.144393e-001
5.901357e+002,-4.447371e-001
5.939929e+002,6.000000e+000
5.978499e+002,1.902437e-001
6.017070e+002,3.604788e-001
6.055641e+002,4.932087e-001
6.094212e+002,2.302346e-001
6.132783e+002,6.000000e+000
6.171354e+002,6.000000e+000
6.209925e+002,6.000000e+000
6.248496e+002,6.000000e+000
6.287067e+002,6.000000e+000
6.325638e+002,6.000000e+000
6.364209e+002,6.000000e+000
6.402780e+002,-4.512371e-001
6.441351e+002,-4.244868e-001
6.479922e+002,-5.875389e-002
6.518493e+002,6.000000e+000
6.557064e+002,6.000000e+000
6.595635e+002,-4.645286e-001
6.634205e+002,-1.151421e-001
6.672777e+002,-3.690906e-001
6.711348e+002,1.386962e+000
6.749918e+002,2.171990e+000
6.788490e+002,6.000000e+000
6.827061e+002,6.000000e+000
6.865631e+002,6.000000e+000
6.904203e+002,6.000000e+000
6.942773e+002,6.000000e+000
6.981344e+002,6.000000e+000
7.019916e+002,6.000000e+000
7.058486e+002,6.000000e+000
7.097057e+002,1.135901e-001
7.135629e+002,6.000000e+000
7.174199e+002,-3.395917e-001
7.212770e+002,-2.149208e-001
7.251342e+002,6.000000e+000
7.289912e+002,6.000000e+000
7.328483e+002,-1.888923e+000
7.367054e+002,6.000000e+000
7.405625e+002,6.000000e+000
7.444196e+002,6.000000e+000
7.482767e+002,-1.374327e-001
7.521338e+002,-1.528440e-001
7.559908e+002,6.000000e+000
7.598480e+002,6.000000e+000
7.637051e+002,6.000000e+000
7.675621e+002,6.000000e+000
7.714193e+002,-6.887738e-002
7.752764e+002,6.000000e+000
7.791334e+002,3.256464e-002
7.829905e+002,-4.731192e-002
7.868477e+002,6.000000e+000
7.907047e+002,6.000000e+000
7.945618e+002,6.000000e+000
7.984189e+002,6.000000e+000
8.022760e+002,-5.395598e-001
8.061331e+002,6.260560e-001
8.099902e+002,6.000000e+000
8.138473e+002,6.000000e+000
8.177044e+002,9.954112e-001
8.215615e+002,1.073620e+000
8.254186e+002,6.000000e+000
8.292757e+002,9.422912e-001
8.331328e+002,6.735308e-001
8.369899e+002,1.952444e+000
8.408470e+002,6.000000e+000
8.447041e+002,6.000000e+000
8.485612e+002,1.981294e+000
8.524183e+002,6.000000e+000
8.562754e+002,6.000000e+000
8.601324e+002,6.000000e+000
8.639896e+002,6.000000e+000
8.678467e+002,6.000000e+000
8.717037e+002,2.371684e+000
8.755609e+002,6.000000e+000
8.794180e+002,6.000000e+000
8.832750e+002,6.000000e+000
8.871321e+002,6.000000e+000
8.909893e+002,6.000000e+000
8.948463e+002,2.068344e+000
8.987034e+002,6.000000e+000
9.025605e+002,6.000000e+000
9.064176e+002,6.000000e+000
9.102747e+002,6.000000e+000
9.141318e+002,2.359033e+000
9.179889e+002,6.000000e+000
9.218461e+002,6.000000e+000
9.257031e+002,6.000000e+000
9.295602e+002,6.000000e+000
9.334174e+002,6.000000e+000
9.372744e+002,6.000000e+000
9.411315e+002,6.000000e+000
9.449886e+002,6.000000e+000
9.488457e+002,6.000000e+000
9.527028e+002,6.000000e+000
9.565599e+002,6.000000e+000
9.604170e+002,6.000000e+000
9.642740e+002,6.000000e+000
9.681312e+002,6.000000e+000
9.719883e+002,2.801146e+000
9.758453e+002,2.529260e+000
9.797025e+002,2.386759e+000
9.835596e+002,2.033619e+000
9.874166e+002,1.978772e+000
9.912738e+002,2.015383e+000
9.951309e+002,2.008569e+000
9.989879e+002,2.253792e+000
1.002845e+003,1.958224e+000
1.006702e+003,1.792238e+000
1.010559e+003,1.796954e+000
1.014416e+003,1.785414e+000
1.018273e+003,1.939854e+000
1.022130e+003,2.046769e+000
1.025988e+003,1.914424e+000
1.029845e+003,1.828769e+000
1.033702e+003,1.642452e+000
1.037559e+003,1.543142e+000
1.041416e+003,1.510961e+000
1.045273e+003,1.599985e+000
1.049130e+003,1.650500e+000
1.052987e+003,1.542768e+000
1.056844e+003,1.624516e+000
1.060702e+003,1.779139e+000
1.064559e+003,1.750409e+000
1.068416e+003,1.655004e+000
1.072273e+003,1.645703e+000
1.076130e+003,1.706503e+000
1.079987e+003,1.705230e+000
1.083844e+003,1.697220e+000
1.087701e+003,1.646631e+000
1.091558e+003,1.524478e+000
1.095415e+003,1.523519e+000
1.099272e+003,1.517531e+000
1.103130e+003,1.442603e+000
1.106987e+003,1.436442e+000
1.110844e+003,1.460673e+000
1.114701e+003,1.406582e+000
1.118558e+003,1.386743e+000
1.122415e+003,1.350030e+000
1.126272e+003,1.314873e+000
1.130129e+003,1.311668e+000
1.133986e+003,1.321586e+000
1.137843e+003,1.337919e+000
1.141701e+003,1.322768e+000
1.145558e+003,1.285129e+000
1.149415e+003,1.253120e+000
1.153272e+003,1.266027e+000
1.157129e+003,1.281879e+000
1.160986e+003,1.262906e+000
1.164843e+003,1.255796e+000
1.168700e+003,1.244154e+000
1.172557e+003,1.230691e+000
1.176414e+003,1.202217e+000
1.180271e+003,1.187316e+000
1.184129e+003,1.171435e+000
1.187986e+003,1.207093e+000
1.191843e+003,1.218086e+000
1.195700e+003,1.177496e+000
1.199557e+003,1.159196e+000
1.203414e+003,1.114648e+000
1.207271e+003,1.035621e+000
1.211128e+003,9.770561e-001
1.214985e+003,9.127558e-001
1.218842e+003,8.371474e-001
1.222699e+003,7.807623e-001
1.226557e+003,7.314646e-001
1.230414e+003,6.864559e-001
1.234271e+003,6.335485e-001
1.238128e+003,5.864335e-001
1.241985e+003,5.482380e-001
1.245842e+003,5.204829e-001
1.249699e+003,5.008590e-001
1.253556e+003,4.808431e-001
1.257413e+003,4.528113e-001
1.261271e+003,4.339995e-001
1.265128e+003,4.237298e-001
1.268985e+003,4.109106e-001
1.272842e+003,3.969423e-001
1.276699e+003,3.836167e-001
1.280556e+003,3.755644e-001
1.284413e+003,3.696083e-001
1.288270e+003,3.599128e-001
1.292127e+003,3.484908e-001
1.295984e+003,3.400879e-001
1.299841e+003,3.314247e-001
1.303698e+003,3.225491e-001
1.307556e+003,3.142854e-001
1.311413e+003,3.062386e-001
1.315270e+003,3.024057e-001
1.319127e+003,2.982542e-001
1.322984e+003,2.942862e-001
1.326841e+003,2.924479e-001
1.330698e+003,2.905696e-001
1.334555e+003,2.891959e-001
1.338412e+003,2.868410e-001
1.342270e+003,2.834384e-001
1.346127e+003,2.834795e-001
1.349984e+003,2.844657e-001
1.353841e+003,2.853977e-001
1.357698e+003,2.847874e-001
1.361555e+003,2.849554e-001
1.365412e+003,2.857438e-001
1.369269e+003,2.868957e-001
1.373126e+003,2.897637e-001
1.376983e+003,2.948097e-001
1.380840e+003,3.003796e-001
1.384698e+003,3.065340e-001
1.388555e+003,3.170591e-001
1.392412e+003,3.270712e-001
1.396269e+003,3.318826e-001
1.400126e+003,3.396277e-001
1.403983e+003,3.504544e-001
1.407840e+003,3.633175e-001
1.411697e+003,3.788355e-001
1.415554e+003,3.904628e-001
1.419411e+003,3.980354e-001
1.423269e+003,4.058217e-001
1.427126e+003,4.132322e-001
1.430983e+003,4.215534e-001
1.434840e+003,4.267677e-001
1.438697e+003,4.263040e-001
1.442554e+003,4.206432e-001
1.446411e+003,4.144980e-001
1.450268e+003,4.082166e-001
1.454125e+003,4.000284e-001
1.457982e+003,3.952163e-001
1.461839e+003,3.881074e-001
1.465697e+003,3.797529e-001
1.469554e+003,3.769735e-001
1.473411e+003,3.777668e-001
1.477268e+003,3.792413e-001
1.481125e+003,3.799934e-001
1.484982e+003,3.807862e-001
1.488839e+003,3.869753e-001
1.492696e+003,3.971337e-001
1.496553e+003,4.031573e-001
1.500411e+003,4.091990e-001
1.504268e+003,4.164781e-001
1.508125e+003,4.176835e-001
1.511982e+003,4.154534e-001
1.515839e+003,4.174819e-001
1.519696e+003,4.198755e-001
1.523553e+003,4.154799e-001
1.527410e+003,4.088487e-001
1.531267e+003,4.036168e-001
1.535124e+003,3.987035e-001
1.538981e+003,3.924066e-001
1.542839e+003,3.834661e-001
1.546696e+003,3.729101e-001
1.550553e+003,3.658482e-001
1.554410e+003,3.606598e-001
1.558267e+003,3.532386e-001
1.562124e+003,3.450641e-001
1.565981e+003,3.375700e-001
1.569838e+003,3.304030e-001
1.573695e+003,3.223387e-001
1.577552e+003,3.176893e-001
1.581410e+003,3.185289e-001
1.585267e+003,3.166700e-001
1.589124e+003,3.143674e-001
1.592981e+003,3.176865e-001
1.596838e+003,3.228174e-001
1.600695e+003,3.290094e-001
1.604552e+003,3.380921e-001
1.608409e+003,3.529323e-001
1.612266e+003,3.699544e-001
1.616123e+003,3.887577e-001
1.619980e+003,4.104348e-001
1.623838e+003,4.321811e-001
1.627695e+003,4.526569e-001
1.631552e+003,4.663675e-001
1.635409e+003,4.730601e-001
1.639266e+003,4.735512e-001
1.643123e+003,4.711779e-001
1.646980e+003,4.678178e-001
1.650837e+003,4.572191e-001
1.654694e+003,4.428653e-001
1.658551e+003,4.317611e-001
1.662409e+003,4.187984e-001
1.666266e+003,4.025368e-001
1.670123e+003,3.896505e-001
1.673980e+003,3.760345e-001
1.677837e+003,3.642579e-001
1.681694e+003,3.525391e-001
1.685551e+003,3.404887e-001
1.689408e+003,3.288950e-001
1.693265e+003,3.200064e-001
1.697122e+003,3.101380e-001
1.700979e+003,2.994382e-001
1.704837e+003,2.926456e-001
1.708694e+003,2.851972e-001
1.712551e+003,2.774216e-001
1.716408e+003,2.718829e-001
1.720265e+003,2.661320e-001
1.724122e+003,2.588472e-001
1.727979e+003,2.545653e-001
1.731836e+003,2.518620e-001
1.735693e+003,2.494657e-001
1.739550e+003,2.472732e-001
1.743408e+003,2.477026e-001
1.747265e+003,2.489672e-001
1.751122e+003,2.500728e-001
1.754979e+003,2.521856e-001
1.758836e+003,2.544151e-001
1.762693e+003,2.563994e-001
1.766550e+003,2.587845e-001
1.770407e+003,2.616667e-001
1.774264e+003,2.675755e-001
1.778121e+003,2.693807e-001
1.781979e+003,2.671744e-001
1.785836e+003,2.675502e-001
1.789693e+003,2.689101e-001
1.793550e+003,2.682337e-001
1.797407e+003,2.671969e-001
1.801264e+003,2.665140e-001
1.805121e+003,2.657257e-001
1.808978e+003,2.633213e-001
1.812835e+003,2.617444e-001
1.816692e+003,2.585250e-001
1.820549e+003,2.557512e-001
1.824407e+003,2.514510e-001
1.828264e+003,2.487151e-001
1.832121e+003,2.461220e-001
1.835978e+003,2.421050e-001
1.839835e+003,2.397707e-001
1.843692e+003,2.352860e-001
1.847549e+003,2.317621e-001
1.851406e+003,2.294754e-001
1.855263e+003,2.275897e-001
1.859120e+003,2.266705e-001
1.862978e+003,2.265000e-001
1.866835e+003,2.268600e-001
1.870692e+003,2.273000e-001
1.874549e+003,2.266488e-001
1.878406e+003,2.274127e-001
1.882263e+003,2.309238e-001
1.886120e+003,2.349055e-001
1.889977e+003,2.367261e-001
1.893834e+003,2.374001e-001
1.897691e+003,2.395937e-001
1.901548e+003,2.422090e-001
1.905406e+003,2.447826e-001
1.909263e+003,2.481567e-001
1.913120e+003,2.495732e-001
1.916977e+003,2.503906e-001
1.920834e+003,2.517146e-001
1.924691e+003,2.510287e-001
1.928548e+003,2.500719e-001
1.932405e+003,2.503205e-001
1.936262e+003,2.487708e-001
1.940119e+003,2.454121e-001
1.943977e+003,2.410863e-001
1.947834e+003,2.380789e-001
1.951691e+003,2.356283e-001
1.955548e+003,2.312785e-001
1.959405e+003,2.268975e-001
1.963262e+003,2.236576e-001
1.967119e+003,2.214402e-001
1.970976e+003,2.187418e-001
1.974833e+003,2.163179e-001
1.978690e+003,2.120942e-001
1.982547e+003,2.094587e-001
1.986405e+003,2.081659e-001
1.990262e+003,2.067749e-001
1.994119e+003,2.068862e-001
1.997976e+003,2.063104e-001
2.001833e+003,2.078563e-001
2.005690e+003,2.100386e-001
2.009547e+003,2.112741e-001
2.013404e+003,2.135749e-001
2.017261e+003,2.161171e-001
2.021118e+003,2.207146e-001
2.024976e+003,2.239019e-001
2.028833e+003,2.252620e-001
2.032690e+003,2.271262e-001
2.036547e+003,2.274615e-001
2.040404e+003,2.277796e-001
2.044261e+003,2.299229e-001
2.048118e+003,2.331687e-001
2.051975e+003,2.333335e-001
2.055832e+003,2.327256e-001
2.059689e+003,2.330501e-001
2.063546e+003,2.319724e-001
2.067404e+003,2.290490e-001
2.071261e+003,2.270825e-001
2.075118e+003,2.228113e-001
2.078975e+003,2.195995e-001
2.082832e+003,2.177866e-001
2.086689e+003,2.149552e-001
2.090546e+003,2.125110e-001
2.094403e+003,2.099224e-001
2.098260e+003,2.068953e-001
2.102117e+003,2.029246e-001
2.105975e+003,2.001977e-001
2.109832e+003,2.000186e-001
2.113689e+003,1.992687e-001
2.117546e+003,1.995009e-001
2.121403e+003,1.995275e-001
2.125260e+003,1.993764e-001
2.129117e+003,1.996387e-001
2.132974e+003,2.014409e-001
2.136831e+003,2.050685e-001
2.140688e+003,2.088379e-001
2.144545e+003,2.120373e-001
2.148403e+003,2.124106e-001
2.152260e+003,2.157471e-001
2.156117e+003,2.203578e-001
2.159974e+003,2.250883e-001
2.163831e+003,2.286797e-001
2.167688e+003,2.293434e-001
2.171545e+003,2.287620e-001
2.175402e+003,2.301604e-001
2.179259e+003,2.319106e-001
2.183116e+003,2.325866e-001
2.186974e+003,2.336239e-001
2.190831e+003,2.330121e-001
2.194688e+003,2.313830e-001
2.198545e+003,2.312434e-001
2.202402e+003,2.294838e-001
2.206259e+003,2.294902e-001
2.210116e+003,2.285746e-001
2.213973e+003,2.233929e-001
2.217830e+003,2.204708e-001
2.221688e+003,2.173841e-001
2.225544e+003,2.141657e-001
2.229402e+003,2.152175e-001
2.233259e+003,2.142153e-001
2.237116e+003,2.117540e-001
2.240973e+003,2.116491e-001
2.244830e+003,2.120409e-001
2.248687e+003,2.107902e-001
2.252544e+003,2.109722e-001
2.256401e+003,2.116319e-001
2.260258e+003,2.121257e-001
2.264115e+003,2.146696e-001
2.267973e+003,2.160265e-001
2.271830e+003,2.190607e-001
2.275687e+003,2.238604e-001
2.279544e+003,2.277930e-001
2.283401e+003,2.296541e-001
2.287258e+003,2.326380e-001
2.291115e+003,2.356702e-001
2.294972e+003,2.384750e-001
2.298829e+003,2.403983e-001
2.302687e+003,2.397546e-001
2.306543e+003,2.408447e-001
2.310401e+003,2.419446e-001
2.314258e+003,2.421364e-001
2.318115e+003,2.421483e-001
2.321972e+003,2.396159e-001
2.325829e+003,2.379626e-001
2.329686e+003,2.358123e-001
2.333543e+003,2.342686e-001
2.337400e+003,2.322443e-001
2.341257e+003,2.294908e-001
2.345115e+003,2.301962e-001
2.348972e+003,2.282785e-001
2.352829e+003,2.242207e-001
2.356686e+003,2.204585e-001
2.360543e+003,2.179835e-001
2.364400e+003,2.145904e-001
2.368257e+003,2.130598e-001
2.372114e+003,2.149394e-001
2.375971e+003,2.189632e-001
2.379828e+003,2.226067e-001
2.383686e+003,2.237539e-001
2.387542e+003,2.237632e-001
2.391400e+003,2.243505e-001
2.395257e+003,2.269850e-001
2.399114e+003,2.279895e-001
2.402971e+003,2.272060e-001
2.406828e+003,2.291054e-001
2.410685e+003,2.329796e-001
2.414542e+003,2.359757e-001
2.418399e+003,2.376006e-001
2.422256e+003,2.384270e-001
2.426114e+003,2.410000e-001
2.429971e+003,2.450280e-001
2.433828e+003,2.464966e-001
2.437685e+003,2.459194e-001
2.441542e+003,2.438469e-001
2.445399e+003,2.434044e-001
2.449256e+003,2.438891e-001
2.453113e+003,2.432837e-001
2.456970e+003,2.446949e-001
2.460827e+003,2.427208e-001
2.464684e+003,2.384017e-001
2.468542e+003,2.348456e-001
2.472399e+003,2.329533e-001
2.476256e+003,2.315852e-001
2.480113e+003,2.298435e-001
2.483970e+003,2.289056e-001
2.487827e+003,2.254159e-001
2.491684e+003,2.225279e-001
2.495541e+003,2.229223e-001
2.499398e+003,2.224810e-001
2.503255e+003,2.206576e-001
2.507113e+003,2.207915e-001
2.510969e+003,2.214451e-001
2.514827e+003,2.217819e-001
2.518684e+003,2.223379e-001
2.522541e+003,2.230016e-001
2.526398e+003,2.239396e-001
2.530255e+003,2.254902e-001
2.534112e+003,2.276765e-001
2.537969e+003,2.297619e-001
2.541826e+003,2.309905e-001
2.545683e+003,2.343330e-001
2.549541e+003,2.377937e-001
2.553398e+003,2.401693e-001
2.557255e+003,2.426184e-001
2.561112e+003,2.461145e-001
2.564969e+003,2.483052e-001
2.568826e+003,2.485703e-001
2.572683e+003,2.505913e-001
2.576540e+003,2.524659e-001
2.580397e+003,2.529622e-001
2.584254e+003,2.548009e-001
2.588112e+003,2.561312e-001
2.591969e+003,2.546448e-001
2.595826e+003,2.520823e-001
2.599683e+003,2.505683e-001
2.603540e+003,2.510504e-001
2.607397e+003,2.523039e-001
2.611254e+003,2.534092e-001
2.615111e+003,2.534102e-001
2.618968e+003,2.539403e-001
2.622825e+003,2.529369e-001
2.626682e+003,2.522076e-001
2.630540e+003,2.522169e-001
2.634397e+003,2.530929e-001
2.638254e+003,2.529243e-001
2.642111e+003,2.530718e-001
2.645968e+003,2.562824e-001
2.649825e+003,2.597373e-001
2.653682e+003,2.610784e-001
2.657539e+003,2.636133e-001
2.661396e+003,2.672434e-001
2.665253e+003,2.686702e-001
2.669111e+003,2.703022e-001
2.672968e+003,2.742347e-001
2.676825e+003,2.782938e-001
2.680682e+003,2.818965e-001
2.684539e+003,2.846333e-001
2.688396e+003,2.880312e-001
2.692253e+003,2.931532e-001
2.696110e+003,2.939531e-001
2.699967e+003,2.955134e-001
2.703824e+003,2.967184e-001
2.707681e+003,2.994761e-001
2.711539e+003,3.049739e-001
2.715396e+003,3.058220e-001
2.719253e+003,3.071664e-001
2.723110e+003,3.088876e-001
2.726967e+003,3.075771e-001
2.730824e+003,3.068144e-001
2.734681e+003,3.099557e-001
2.738538e+003,3.100643e-001
2.742395e+003,3.100629e-001
2.746252e+003,3.117396e-001
2.750110e+003,3.113980e-001
2.753967e+003,3.139884e-001
2.757824e+003,3.176575e-001
2.761681e+003,3.167361e-001
2.765538e+003,3.181894e-001
2.769395e+003,3.217766e-001
2.773252e+003,3.246195e-001
2.777109e+003,3.272341e-001
2.780966e+003,3.287926e-001
2.784823e+003,3.324290e-001
2.788680e+003,3.357199e-001
2.792538e+003,3.377484e-001
2.796395e+003,3.426688e-001
2.800252e+003,3.478976e-001
2.804109e+003,3.498761e-001
2.807966e+003,3.532264e-001
2.811823e+003,3.578006e-001
2.815680e+003,3.627806e-001
2.819537e+003,3.668428e-001
2.823394e+003,3.666032e-001
2.827251e+003,3.694644e-001
2.831109e+003,3.770928e-001
2.834966e+003,3.801021e-001
2.838823e+003,3.811858e-001
2.842680e+003,3.847459e-001
2.846537e+003,3.901707e-001
2.850394e+003,3.925844e-001
2.854251e+003,3.910608e-001
2.858108e+003,3.933032e-001
2.861965e+003,3.986631e-001
2.865823e+003,4.009415e-001
2.869679e+003,3.990955e-001
2.873537e+003,4.004145e-001
2.877394e+003,4.061489e-001
2.881251e+003,4.096461e-001
2.885108e+003,4.104562e-001
2.888965e+003,4.095548e-001
2.892822e+003,4.122510e-001
2.896679e+003,4.169486e-001
2.900536e+003,4.203092e-001
2.904393e+003,4.230067e-001
2.908250e+003,4.261593e-001
2.912108e+003,4.304144e-001
2.915965e+003,4.354372e-001
2.919822e+003,4.417331e-001
2.923679e+003,4.477282e-001
2.927536e+003,4.501101e-001
2.931393e+003,4.527360e-001
2.935250e+003,4.564590e-001
2.939107e+003,4.582917e-001
2.942964e+003,4.590700e-001
2.946822e+003,4.641534e-001
2.950678e+003,4.706390e-001
2.954536e+003,4.767461e-001
2.958393e+003,4.798140e-001
2.962250e+003,4.820413e-001
2.966107e+003,4.866090e-001
2.969964e+003,4.901088e-001
2.973821e+003,4.941031e-001
2.977678e+003,4.996912e-001
2.981535e+003,5.019944e-001
2.985392e+003,5.048676e-001
2.989250e+003,5.076770e-001
2.993107e+003,5.098116e-001
2.996964e+003,5.117073e-001
3.000821e+003,5.146917e-001
3.004678e+003,5.165442e-001
3.008535e+003,5.198798e-001
3.012392e+003,5.266109e-001
3.016249e+003,5.278278e-001
3.020106e+003,5.269555e-001
3.023963e+003,5.308142e-001
3.027821e+003,5.373058e-001
3.031677e+003,5.416521e-001
3.035535e+003,5.459577e-001
3.039392e+003,5.471981e-001
3.043249e+003,5.495463e-001
3.047106e+003,5.569506e-001
3.050963e+003,5.656514e-001
3.054820e+003,5.706975e-001
3.058677e+003,5.710919e-001
3.062534e+003,5.732729e-001
3.066391e+003,5.794411e-001
3.070249e+003,5.855176e-001
3.074106e+003,5.935309e-001
3.077963e+003,6.005647e-001
3.081820e+003,6.031162e-001
3.085677e+003,6.025345e-001
3.089534e+003,6.055729e-001
3.093391e+003,6.111729e-001
3.097248e+003,6.195040e-001
3.101105e+003,6.317956e-001
3.104962e+003,6.360405e-001
3.108820e+003,6.350940e-001
3.112677e+003,6.396124e-001
3.116534e+003,6.421137e-001
3.120391e+003,6.448418e-001
3.124248e+003,6.502904e-001
3.128105e+003,6.528614e-001
3.131962e+003,6.571391e-001
3.135819e+003,6.592772e-001
3.139676e+003,6.640036e-001
3.143533e+003,6.718124e-001
3.147390e+003,6.746799e-001
3.151248e+003,6.772382e-001
3.155105e+003,6.793509e-001
3.158962e+003,6.875209e-001
3.162819e+003,6.946688e-001
3.166676e+003,6.994768e-001
3.170533e+003,7.086104e-001
3.174390e+003,7.122160e-001
3.178247e+003,7.133352e-001
3.182104e+003,7.219948e-001
3.185961e+003,7.309062e-001
3.189819e+003,7.303158e-001
3.193676e+003,7.318032e-001
3.197533e+003,7.389711e-001
3.201390e+003,7.491781e-001
3.205247e+003,7.592239e-001
3.209104e+003,7.652630e-001
3.212961e+003,7.694412e-001
3.216818e+003,7.766728e-001
3.220675e+003,7.798162e-001
3.224532e+003,7.753730e-001
3.228389e+003,7.808686e-001
3.232247e+003,7.849188e-001
3.236104e+003,7.903560e-001
3.239961e+003,7.928040e-001
3.243818e+003,7.946069e-001
3.247675e+003,7.987459e-001
3.251532e+003,7.992802e-001
3.255389e+003,8.030624e-001
3.259246e+003,8.109617e-001
3.263103e+003,8.200786e-001
3.266960e+003,8.190533e-001
3.270818e+003,8.157756e-001
3.274675e+003,8.144748e-001
3.278532e+003,8.207993e-001
3.282389e+003,8.342291e-001
3.286246e+003,8.444970e-001
3.290103e+003,8.467184e-001
3.293960e+003,8.443738e-001
3.297817e+003,8.396462e-001
3.301674e+003,8.388084e-001
3.305531e+003,8.458809e-001
3.309388e+003,8.531072e-001
3.313246e+003,8.556612e-001
3.317103e+003,8.652204e-001
3.320960e+003,8.690350e-001
3.324817e+003,8.716274e-001
3.328674e+003,8.725210e-001
3.332531e+003,8.774402e-001
3.336388e+003,8.895931e-001
3.340245e+003,8.984619e-001
3.344102e+003,9.101021e-001
3.347959e+003,9.135538e-001
3.351817e+003,9.100708e-001
3.355674e+003,9.171880e-001
3.359531e+003,9.183331e-001
3.363388e+003,9.239403e-001
3.367245e+003,9.297821e-001
3.371102e+003,9.297647e-001
3.374959e+003,9.408814e-001
3.378816e+003,9.511469e-001
3.382673e+003,9.465877e-001
3.386530e+003,9.446867e-001
3.390387e+003,9.553259e-001
3.394245e+003,9.685371e-001
3.398102e+003,9.674278e-001
3.401959e+003,9.604587e-001
3.405816e+003,9.555356e-001
3.409673e+003,9.611991e-001
3.413530e+003,9.698831e-001
3.417387e+003,9.686258e-001
3.421244e+003,9.716622e-001
3.425101e+003,9.746404e-001
3.428958e+003,9.683995e-001
3.432815e+003,9.645309e-001
3.436673e+003,9.623807e-001
3.440530e+003,9.686229e-001
3.444387e+003,9.724856e-001
3.448244e+003,9.723486e-001
3.452101e+003,9.745610e-001
3.455958e+003,9.730824e-001
3.459815e+003,9.846474e-001
3.463672e+003,1.000773e+000
3.467529e+003,1.005033e+000
3.471386e+003,1.001080e+000
3.475244e+003,9.992392e-001
3.479101e+003,1.012756e+000
3.482958e+003,1.011360e+000
3.486815e+003,1.010547e+000
3.490672e+003,1.011170e+000
3.494529e+003,1.001899e+000
3.498386e+003,9.933758e-001
3.502243e+003,9.979831e-001
3.506100e+003,1.008823e+000
3.509958e+003,1.006636e+000
3.513814e+003,1.011035e+000
3.517672e+003,1.020548e+000
3.521529e+003,1.024038e+000
3.525386e+003,1.014270e+000
3.529243e+003,1.006717e+000
3.533100e+003,1.011304e+000
3.536957e+003,1.004263e+000
3.540814e+003,9.976495e-001
3.544671e+003,9.928835e-001
3.548528e+003,9.784544e-001
3.552385e+003,9.709848e-001
3.556243e+003,9.757592e-001
3.560100e+003,9.714140e-001
3.563957e+003,9.631740e-001
3.567814e+003,9.539638e-001
3.571671e+003,9.466959e-001
3.575528e+003,9.387687e-001
3.579385e+003,9.311442e-001
3.583242e+003,9.129453e-001
3.587099e+003,9.022346e-001
3.590957e+003,8.812979e-001
3.594813e+003,8.518593e-001
3.598671e+003,8.283951e-001
3.602528e+003,8.035491e-001
3.606385e+003,7.822868e-001
3.610242e+003,7.543676e-001
3.614099e+003,7.199813e-001
3.617956e+003,6.887608e-001
3.621813e+003,6.562822e-001
3.625670e+003,6.219324e-001
3.629527e+003,5.872890e-001
3.633385e+003,5.481832e-001
3.637242e+003,5.099528e-001
3.641099e+003,4.756007e-001
3.644956e+003,4.429073e-001
3.648813e+003,4.092654e-001
3.652670e+003,3.767055e-001
3.656527e+003,3.476282e-001
3.660384e+003,3.212324e-001
3.664241e+003,2.965001e-001
3.668098e+003,2.727048e-001
3.671956e+003,2.552314e-001
3.675813e+003,2.401784e-001
3.679670e+003,2.265696e-001
3.683527e+003,2.150621e-001
3.687384e+003,2.043412e-001
3.691241e+003,1.935436e-001
3.695098e+003,1.844224e-001
3.698955e+003,1.779110e-001
3.702812e+003,1.709329e-001
3.706669e+003,1.652883e-001
3.710526e+003,1.603237e-001
3.714384e+003,1.552134e-001
3.718241e+003,1.509702e-001
3.722098e+003,1.460529e-001
3.725955e+003,1.438836e-001
3.729812e+003,1.396025e-001
3.733669e+003,1.333858e-001
3.737526e+003,1.326145e-001
3.741383e+003,1.322803e-001
3.745240e+003,1.288460e-001
3.749097e+003,1.240320e-001
3.752955e+003,1.216054e-001
3.756812e+003,1.240386e-001
3.760669e+003,1.260004e-001
3.764526e+003,1.251415e-001
3.768383e+003,1.239807e-001
3.772240e+003,1.244954e-001
3.776097e+003,1.274889e-001
3.779954e+003,1.287209e-001
3.783811e+003,1.276365e-001
3.787668e+003,1.254247e-001
3.791525e+003,1.261246e-001
3.795383e+003,1.284806e-001
3.799240e+003,1.310329e-001
3.803097e+003,1.322672e-001
3.806954e+003,1.333622e-001
3.810811e+003,1.301945e-001
3.814668e+003,1.293735e-001
3.818525e+003,1.290363e-001
3.822382e+003,1.295673e-001
3.826239e+003,1.287784e-001
3.830096e+003,1.252648e-001
3.833954e+003,1.252519e-001
3.837811e+003,1.263853e-001
3.841668e+003,1.262231e-001
3.845525e+003,1.243606e-001
3.849382e+003,1.206359e-001
3.853239e+003,1.189504e-001
3.857096e+003,1.193068e-001
3.860953e+003,1.177687e-001
3.864810e+003,1.141480e-001
3.868667e+003,1.119932e-001
3.872524e+003,1.128510e-001
3.876382e+003,1.125040e-001
3.880239e+003,1.121441e-001
3.884096e+003,1.121477e-001
3.887953e+003,1.134442e-001
3.891810e+003,1.153689e-001
3.895667e+003,1.155834e-001
3.899524e+003,1.130622e-001
3.903381e+003,1.131513e-001
3.907238e+003,1.169296e-001
3.911095e+003,1.207629e-001
3.914953e+003,1.202834e-001
3.918810e+003,1.179807e-001
3.922667e+003,1.204286e-001
3.926524e+003,1.252318e-001
3.930381e+003,1.246013e-001
3.934238e+003,1.255727e-001
3.938095e+003,1.258716e-001
3.941952e+003,1.237752e-001
3.945809e+003,1.246294e-001
3.949667e+003,1.254702e-001
3.953523e+003,1.234580e-001
3.957381e+003,1.219003e-001
3.961238e+003,1.227990e-001
3.965095e+003,1.217644e-001
3.968952e+003,1.203832e-001
3.972809e+003,1.184896e-001
3.976666e+003,1.167087e-001
3.980523e+003,1.162762e-001
3.984380e+003,1.169052e-001
3.988237e+003,1.141144e-001
3.992094e+003,1.124439e-001
3.995952e+003,1.132383e-001
3.999809e+003,1.114372e-001
4.003666e+003,1.071666e-001
4.007523e+003,1.070657e-001
4.011380e+003,1.093356e-001
4.015237e+003,1.082675e-001
4.019094e+003,1.068886e-001
4.022951e+003,1.064381e-001
4.026808e+003,1.084345e-001
4.030666e+003,1.109592e-001
4.034522e+003,1.093800e-001
4.038380e+003,1.095906e-001
4.042237e+003,1.108795e-001
4.046094e+003,1.119206e-001
4.049951e+003,1.130351e-001
4.053808e+003,1.154172e-001
4.057665e+003,1.173598e-001
4.061522e+003,1.176477e-001
4.065379e+003,1.164505e-001
4.069236e+003,1.162143e-001
4.073094e+003,1.186997e-001
4.076951e+003,1.185832e-001
4.080808e+003,1.165716e-001
4.084665e+003,1.152646e-001
4.088522e+003,1.157348e-001
4.092379e+003,1.162176e-001
4.096236e+003,1.126521e-001
4.100093e+003,1.078980e-001
4.103950e+003,1.081253e-001
4.107808e+003,1.100244e-001
4.111665e+003,1.100180e-001
4.115521e+003,1.078250e-001
4.119379e+003,1.060072e-001
4.123236e+003,1.042827e-001
4.127093e+003,1.054081e-001
4.130950e+003,1.059855e-001
4.134807e+003,1.036003e-001
4.138664e+003,1.032800e-001
4.142521e+003,1.025472e-001
4.146378e+003,1.005272e-001
4.150235e+003,9.963895e-002
4.154093e+003,9.962396e-002
4.157950e+003,1.005965e-001
4.161807e+003,1.020134e-001
4.165664e+003,1.023764e-001
4.169521e+003,1.034642e-001
4.173378e+003,1.053512e-001
4.177235e+003,1.034495e-001
4.181092e+003,1.028369e-001
4.184949e+003,1.038115e-001
4.188807e+003,1.047068e-001
4.192664e+003,1.055918e-001
4.196521e+003,1.049266e-001
4.200378e+003,1.048896e-001
4.204235e+003,1.051796e-001
4.208092e+003,1.057574e-001
4.211949e+003,1.091606e-001
4.215806e+003,1.100523e-001
4.219663e+003,1.075348e-001
4.223521e+003,1.063942e-001
4.227377e+003,1.068856e-001
4.231234e+003,1.083969e-001
4.235092e+003,1.072406e-001
4.238949e+003,1.053881e-001
4.242806e+003,1.049203e-001
4.246663e+003,1.023484e-001
4.250520e+003,1.006627e-001
4.254377e+003,1.038166e-001
4.258234e+003,1.066289e-001
4.262091e+003,1.037778e-001
4.265948e+003,9.864797e-002
4.269806e+003,9.445626e-002
4.273663e+003,9.099823e-002
4.277520e+003,9.208944e-002
4.281377e+003,9.455177e-002
4.285234e+003,9.397340e-002
4.289091e+003,9.168093e-002
4.292948e+003,9.151441e-002
4.296805e+003,9.141600e-002
4.300662e+003,9.114669e-002
4.304520e+003,9.288217e-002
4.308376e+003,9.521066e-002
4.312233e+003,9.534460e-002
4.316091e+003,9.756644e-002
4.319948e+003,1.001751e-001
4.323805e+003,9.905868e-002
4.327662e+003,9.784515e-002
4.331519e+003,9.819337e-002
4.335376e+003,1.003221e-001
4.339233e+003,1.016947e-001
4.343090e+003,1.042136e-001
4.346947e+003,1.056011e-001
4.350805e+003,1.037207e-001
4.354662e+003,1.035656e-001
4.358519e+003,1.041504e-001
4.362376e+003,1.040655e-001
4.366233e+003,1.033817e-001
4.370090e+003,1.052109e-001
4.373947e+003,1.050534e-001
4.377804e+003,1.030182e-001
4.381661e+003,9.968060e-002
4.385519e+003,9.759793e-002
4.389375e+003,9.944228e-002
4.393232e+003,9.926497e-002
4.397090e+003,9.605476e-002
4.400947e+003,9.575339e-002
4.404804e+003,9.639587e-002
4.408661e+003,9.485795e-002
4.412518e+003,9.536821e-002
4.416375e+003,9.527677e-002
4.420232e+003,9.610073e-002
4.424089e+003,9.810506e-002
4.427946e+003,9.756295e-002
4.431804e+003,9.212233e-002
4.435661e+003,8.940440e-002
4.439518e+003,9.427512e-002
4.443375e+003,9.806237e-002
4.447232e+003,1.004803e-001
4.451089e+003,1.001646e-001
4.454946e+003,1.006861e-001
4.458803e+003,1.009797e-001
4.462660e+003,9.977264e-002
4.466518e+003,9.815403e-002
4.470375e+003,9.916533e-002
4.474231e+003,1.011466e-001
4.478089e+003,1.003246e-001
4.481946e+003,1.001317e-001
4.485803e+003,1.013729e-001
4.489660e+003,1.008675e-001
4.493517e+003,9.870940e-002
4.497375e+003,9.922487e-002
4.501231e+003,1.008456e-001
4.505088e+003,9.883846e-002
4.508946e+003,9.707824e-002
4.512803e+003,9.931599e-002
4.516660e+003,1.018305e-001
4.520517e+003,9.821559e-002
4.524374e+003,9.635007e-002
4.528231e+003,9.739508e-002
4.532088e+003,9.799020e-002
4.535945e+003,9.665119e-002
4.539802e+003,9.514990e-002
4.543660e+003,9.630834e-002
4.547517e+003,9.744538e-002
4.551374e+003,9.404934e-002
4.555231e+003,8.821703e-002
4.559088e+003,8.797425e-002
4.562945e+003,9.117261e-002
4.566802e+003,9.244237e-002
4.570659e+003,9.193480e-002
4.574516e+003,9.219611e-002
4.578374e+003,9.443472e-002
4.582230e+003,9.468493e-002
4.586087e+003,9.346099e-002
4.589945e+003,9.398154e-002
4.593802e+003,9.345216e-002
4.597659e+003,9.115450e-002
4.601516e+003,9.280573e-002
4.605373e+003,9.201612e-002
4.609230e+003,9.053022e-002
4.613087e+003,9.384864e-002
4.616944e+003,9.949515e-002
4.620801e+003,9.965596e-002
4.624659e+003,9.449135e-002
4.628516e+003,9.519565e-002
4.632373e+003,9.975751e-002
4.636230e+003,9.968247e-002
4.640087e+003,9.978669e-002
4.643944e+003,9.938741e-002
4.647801e+003,9.321288e-002
4.651658e+003,9.495957e-002
4.655515e+003,9.947719e-002
4.659373e+003,9.541002e-002
4.663229e+003,9.345540e-002
4.667086e+003,9.197833e-002
4.670944e+003,9.367783e-002
4.674801e+003,9.274218e-002
4.678658e+003,8.715458e-002
4.682515e+003,8.410636e-002
4.686372e+003,8.472840e-002
4.690229e+003,8.698934e-002
4.694086e+003,8.787007e-002
4.697943e+003,8.856817e-002
4.701800e+003,8.963850e-002
4.705658e+003,9.067231e-002
4.709515e+003,8.821294e-002
4.713372e+003,8.401214e-002
4.717229e+003,8.393596e-002
4.721086e+003,8.733293e-002
4.724943e+003,8.852954e-002
4.728800e+003,8.897987e-002
4.732657e+003,8.960906e-002
4.736514e+003,8.793956e-002
4.740372e+003,8.455382e-002
4.744229e+003,8.999833e-002
4.748085e+003,9.243786e-002
4.751943e+003,9.057911e-002
4.755800e+003,9.186757e-002
4.759657e+003,9.415090e-002
4.763514e+003,9.568801e-002
4.767371e+003,9.752073e-002
4.771228e+003,9.253486e-002
4.775085e+003,9.136447e-002
4.778942e+003,9.241237e-002
4.782799e+003,9.186032e-002
4.786657e+003,9.578062e-002
4.790514e+003,9.671129e-002
4.794371e+003,9.314003e-002
4.798228e+003,9.196068e-002
4.802085e+003,9.291685e-002
4.805942e+003,9.013011e-002
4.809799e+003,8.636434e-002
4.813656e+003,8.854233e-002
4.817513e+003,8.756968e-002
4.821371e+003,8.303424e-002
4.825228e+003,8.252504e-002
4.829084e+003,8.370400e-002
4.832942e+003,8.442948e-002
4.836799e+003,8.836528e-002
4.840656e+003,9.046329e-002
4.844513e+003,9.258268e-002
4.848370e+003,9.249473e-002
4.852227e+003,9.200449e-002
4.856084e+003,9.081560e-002
4.859941e+003,8.576115e-002
4.863798e+003,8.010502e-002
4.867656e+003,8.242668e-002
4.871513e+003,8.730753e-002
4.875370e+003,8.890488e-002
4.879227e+003,8.777520e-002
4.883084e+003,8.840203e-002
4.886941e+003,9.273709e-002
4.890798e+003,9.719037e-002
4.894655e+003,9.452005e-002
4.898512e+003,9.141412e-002
4.902370e+003,9.492094e-002
4.906227e+003,9.654172e-002
4.910083e+003,9.463438e-002
4.913941e+003,9.242946e-002
4.917798e+003,9.357474e-002
4.921655e+003,9.412510e-002
4.925512e+003,8.875044e-002
4.929369e+003,8.730032e-002
4.933226e+003,8.999837e-002
4.937083e+003,9.375780e-002
4.940940e+003,9.378498e-002
4.944797e+003,8.935833e-002
4.948655e+003,8.732174e-002
4.952512e+003,8.830096e-002
4.956369e+003,8.563054e-002
4.960226e+003,9.054361e-002
4.964083e+003,9.159938e-002
4.967940e+003,8.666633e-002
4.971797e+003,8.150773e-002
4.975654e+003,8.126988e-002
4.979511e+003,8.204249e-002
4.983369e+003,8.581521e-002
4.987226e+003,8.930110e-002
4.991083e+003,8.951771e-002
4.994940e+003,8.922016e-002
4.998797e+003,9.137572e-002
5.002654e+003,9.191065e-002
5.006511e+003,9.203313e-002
5.010368e+003,9.198590e-002
5.014225e+003,9.002919e-002
5.018083e+003,9.635331e-002
5.021939e+003,9.198807e-002
5.025796e+003,8.347449e-002
5.029654e+003,8.620138e-002
5.033511e+003,9.019466e-002
5.037368e+003,9.208678e-002
5.041225e+003,9.264161e-002
5.045082e+003,9.449320e-002
5.048939e+003,9.485292e-002
5.052796e+003,9.168973e-002
5.056653e+003,8.794196e-002
5.060510e+003,8.986469e-002
5.064368e+003,9.394542e-002
5.068225e+003,9.325612e-002
5.072082e+003,9.031196e-002
5.075939e+003,8.948807e-002
5.079796e+003,8.823502e-002
5.083653e+003,9.160801e-002
5.087510e+003,9.251445e-002
5.091367e+003,8.761686e-002
5.095224e+003,8.695606e-002
5.099082e+003,8.841722e-002
5.102938e+003,9.048394e-002
5.106795e+003,9.205405e-002
5.110653e+003,9.562974e-002
5.114510e+003,9.874733e-002
5.118367e+003,9.616154e-002
5.122224e+003,9.139711e-002
5.126081e+003,9.475549e-002
5.129938e+003,9.786478e-002
5.133795e+003,9.398113e-002
5.137652e+003,8.976079e-002
5.141509e+003,9.097535e-002
5.145367e+003,9.091734e-002
5.149224e+003,9.364051e-002
5.153081e+003,9.345573e-002
5.156938e+003,8.938218e-002
5.160795e+003,8.826673e-002
5.164652e+003,8.961093e-002
5.168509e+003,9.503532e-002
5.172366e+003,1.001531e-001
5.176223e+003,1.005353e-001
5.180081e+003,9.872998e-002
5.183938e+003,9.700371e-002
5.187794e+003,9.466112e-002
5.191652e+003,8.987562e-002
5.195509e+003,9.151474e-002
5.199366e+003,9.613951e-002
5.203223e+003,9.619971e-002
5.207080e+003,1.000959e-001
5.210937e+003,9.880128e-002
5.214794e+003,9.628332e-002
5.218651e+003,9.445782e-002
5.222508e+003,9.339533e-002
5.226366e+003,9.155458e-002
5.230223e+003,9.334707e-002
5.234080e+003,9.523736e-002
5.237937e+003,8.800878e-002
5.241794e+003,8.628116e-002
5.245651e+003,9.344044e-002
5.249508e+003,9.785955e-002
5.253365e+003,9.804679e-002
5.257222e+003,9.946340e-002
5.261080e+003,9.443929e-002
5.264937e+003,8.542021e-002
5.268793e+003,8.209444e-002
5.272651e+003,8.191803e-002
5.276508e+003,8.559264e-002
5.280365e+003,8.684076e-002
5.284222e+003,8.696517e-002
5.288079e+003,8.806856e-002
5.291936e+003,8.385710e-002
5.295793e+003,8.199966e-002
5.299650e+003,8.224794e-002
5.303507e+003,8.278143e-002
5.307365e+003,8.354959e-002
5.311222e+003,8.194292e-002
5.315079e+003,8.512001e-002
5.318936e+003,8.597261e-002
5.322793e+003,8.367913e-002
5.326650e+003,8.416504e-002
5.330507e+003,8.622890e-002
5.334364e+003,8.633823e-002
5.338221e+003,8.651482e-002
5.342079e+003,8.431552e-002
5.345936e+003,8.294981e-002
5.349792e+003,8.608539e-002
5.353650e+003,8.906125e-002
5.357507e+003,8.946991e-002
5.361364e+003,8.783397e-002
5.365221e+003,8.908704e-002
5.369078e+003,9.263857e-002
5.372935e+003,9.381261e-002
5.376792e+003,9.392062e-002
5.380649e+003,9.172954e-002
5.384506e+003,8.306397e-002
5.388364e+003,7.872128e-002
5.392221e+003,8.324903e-002
5.396078e+003,9.136447e-002
5.399935e+003,9.340905e-002
5.403792e+003,9.226695e-002
5.407649e+003,8.506326e-002
5.411506e+003,8.595035e-002
5.415363e+003,9.108184e-002
5.419220e+003,8.865607e-002
5.423078e+003,8.427513e-002
5.426935e+003,7.917260e-002
5.430792e+003,8.069175e-002
5.434649e+003,8.571638e-002
5.438506e+003,8.710533e-002
5.442363e+003,8.196764e-002
5.446220e+003,8.409972e-002
5.450077e+003,9.171444e-002
5.453934e+003,8.944777e-002
5.457792e+003,8.383512e-002
5.461648e+003,8.241018e-002
5.465505e+003,8.368869e-002
5.469363e+003,7.832142e-002
5.473220e+003,7.704854e-002
5.477077e+003,8.157722e-002
5.480934e+003,8.369492e-002
5.484791e+003,8.047646e-002
5.488648e+003,8.096654e-002
5.492505e+003,8.565015e-002
5.496362e+003,8.828727e-002
5.500219e+003,9.012350e-002
5.504077e+003,8.684800e-002
5.507934e+003,8.185485e-002
5.511791e+003,8.144031e-002
5.515648e+003,8.405207e-002
5.519505e+003,8.572510e-002
5.523362e+003,8.565217e-002
5.527219e+003,7.992285e-002
5.531076e+003,7.775822e-002
5.534933e+003,8.176653e-002
5.538791e+003,8.053868e-002
5.542647e+003,7.959697e-002
5.546504e+003,8.066414e-002
5.550362e+003,8.230840e-002
5.554219e+003,7.862236e-002
5.558076e+003,8.156778e-002
5.561933e+003,8.683202e-002
5.565790e+003,8.556573e-002
5.569647e+003,8.365362e-002
5.573504e+003,8.701901e-002
5.577361e+003,8.414002e-002
5.581218e+003,7.977591e-002
5.585076e+003,8.346244e-002
5.588933e+003,8.372445e-002
5.592790e+003,7.839464e-002
5.596647e+003,7.800110e-002
5.600504e+003,8.120735e-002
5.604361e+003,8.272262e-002
5.608218e+003,7.969234e-002
5.612075e+003,7.926040e-002
5.615932e+003,8.568192e-002
5.619790e+003,9.204451e-002
5.623646e+003,8.944691e-002
5.627503e+003,8.381189e-002
5.631361e+003,8.074270e-002
5.635218e+003,8.474434e-002
5.639075e+003,8.182129e-002
5.642932e+003,7.820080e-002
5.646789e+003,8.107795e-002
5.650646e+003,8.089923e-002
5.654503e+003,8.192163e-002
5.658360e+003,8.210313e-002
5.662217e+003,7.962583e-002
5.666075e+003,7.769604e-002
5.669932e+003,7.999749e-002
5.673789e+003,8.330005e-002
5.677646e+003,8.726025e-002
5.681503e+003,8.630120e-002
5.685360e+003,8.338294e-002
5.689217e+003,7.740193e-002
5.693074e+003,7.674015e-002
5.696931e+003,8.190419e-002
5.700789e+003,8.197701e-002
5.704646e+003,7.660673e-002
5.708502e+003,7.746671e-002
5.712360e+003,7.692958e-002
5.716217e+003,7.153893e-002
5.720074e+003,7.289386e-002
5.723931e+003,8.085353e-002
5.727788e+003,8.194656e-002
5.731645e+003,7.917058e-002
5.735502e+003,7.696138e-002
5.739359e+003,7.913002e-002
5.743216e+003,8.364032e-002
5.747074e+003,8.454375e-002
5.750931e+003,8.368588e-002
5.754788e+003,8.387913e-002
5.758645e+003,8.290585e-002
5.762502e+003,8.361803e-002
5.766359e+003,8.470730e-002
5.770216e+003,7.982644e-002
5.774073e+003,7.488874e-002
5.777930e+003,7.546349e-002
5.781788e+003,7.735932e-002
5.785645e+003,8.528394e-002
5.789501e+003,8.819775e-002
5.793359e+003,8.126108e-002
5.797216e+003,7.794888e-002
5.801073e+003,7.923348e-002
5.804930e+003,7.434185e-002
5.808787e+003,6.894352e-002
5.812644e+003,6.965268e-002
5.816501e+003,7.425351e-002
5.820358e+003,7.523758e-002
5.824215e+003,7.763011e-002
5.828073e+003,8.025634e-002
5.831930e+003,7.847784e-002
5.835787e+003,7.760365e-002
5.839644e+003,7.625481e-002
5.843501e+003,8.037020e-002
5.847358e+003,8.144131e-002
5.851215e+003,7.616383e-002
5.855072e+003,7.248225e-002
5.858929e+003,7.452681e-002
5.862787e+003,7.557187e-002
5.866644e+003,8.072007e-002
5.870500e+003,8.253557e-002
5.874358e+003,8.069083e-002
5.878215e+003,7.895450e-002
5.882072e+003,7.864237e-002
5.885929e+003,7.858348e-002
5.889786e+003,8.302458e-002
5.893643e+003,8.228946e-002
5.897500e+003,8.222947e-002
5.901357e+003,8.576389e-002
5.905214e+003,8.111560e-002
5.909072e+003,7.513318e-002
5.912929e+003,7.847494e-002
5.916786e+003,8.372260e-002
5.920643e+003,8.590904e-002
5.924500e+003,8.595011e-002
5.928357e+003,9.024221e-002
5.932214e+003,8.966461e-002
5.936071e+003,7.935450e-002
5.939928e+003,7.109437e-002
5.943786e+003,7.389772e-002
5.947643e+003,8.246093e-002
5.951500e+003,8.337098e-002
5.955357e+003,7.989716e-002
5.959214e+003,7.823179e-002
5.963071e+003,8.102300e-002
5.966928e+003,7.917427e-002
5.970785e+003,7.984248e-002
5.974642e+003,7.896904e-002
5.978500e+003,7.387886e-002
5.982356e+003,7.372005e-002
5.986213e+003,7.323604e-002
5.990071e+003,7.617011e-002
5.993928e+003,7.534548e-002
5.997785e+003,7.474861e-002
6.001642e+003,8.218479e-002
6.005499e+003,8.653706e-002
6.009356e+003,8.917874e-002
6.013213e+003,8.791827e-002
6.017070e+003,8.262309e-002
6.020927e+003,8.490692e-002
6.024785e+003,8.043671e-002
6.028642e+003,8.222295e-002
6.032499e+003,8.650488e-002
6.036356e+003,8.213763e-002
6.040213e+003,8.505831e-002
6.044070e+003,8.641803e-002
6.047927e+003,8.274250e-002
6.051784e+003,8.699161e-002
6.055641e+003,8.477169e-002
6.059499e+003,7.863439e-002
6.063355e+003,7.611665e-002
6.067212e+003,7.781478e-002
6.071070e+003,7.727230e-002
6.074927e+003,7.153677e-002
6.078784e+003,7.058376e-002
6.082641e+003,7.296824e-002
6.086498e+003,6.947728e-002
6.090355e+003,7.046293e-002
6.094212e+003,7.674106e-002
6.098069e+003,7.788637e-002
6.101926e+003,7.690007e-002
6.105784e+003,7.652346e-002
6.109641e+003,8.079881e-002
6.113498e+003,8.531652e-002
6.117355e+003,8.389199e-002
6.121212e+003,8.398803e-002
6.125069e+003,8.445480e-002
6.128926e+003,8.269180e-002
6.132783e+003,8.436236e-002
6.136640e+003,7.823104e-002
6.140498e+003,7.836761e-002
6.144354e+003,7.887713e-002
6.148211e+003,6.621563e-002
6.152069e+003,7.048161e-002
6.155926e+003,8.277445e-002
6.159783e+003,7.649986e-002
6.163640e+003,7.682785e-002
6.167497e+003,8.077766e-002
6.171354e+003,7.826801e-002
6.175211e+003,7.406449e-002
6.179068e+003,7.873320e-002
6.182925e+003,8.627731e-002
6.186783e+003,8.145909e-002
6.190640e+003,7.659633e-002
6.194497e+003,8.306244e-002
6.198354e+003,8.875353e-002
6.202211e+003,8.772382e-002
6.206068e+003,8.817084e-002
6.209925e+003,8.312086e-002
6.213782e+003,7.965552e-002
6.217639e+003,7.963108e-002
6.221497e+003,8.069964e-002
6.225354e+003,7.872565e-002
6.229210e+003,7.372971e-002
6.233068e+003,7.078187e-002
6.236925e+003,7.420220e-002
6.240782e+003,7.740612e-002
6.244639e+003,7.569184e-002
6.248496e+003,7.273223e-002
6.252353e+003,6.785380e-002
6.256210e+003,7.657424e-002
6.260067e+003,8.702383e-002
6.263924e+003,8.804230e-002
6.267782e+003,8.165047e-002
6.271639e+003,7.575791e-002
6.275496e+003,7.830980e-002
6.279353e+003,8.316568e-002
6.283210e+003,8.785742e-002
6.287067e+003,8.646533e-002
6.290924e+003,8.238486e-002
6.294781e+003,8.062240e-002
6.298638e+003,8.982529e-002
6.302496e+003,9.003205e-002
6.306353e+003,8.485805e-002
6.310209e+003,8.398987e-002
6.314067e+003,8.381020e-002
6.317924e+003,8.020078e-002
6.321781e+003,7.690850e-002
6.325638e+003,8.249346e-002
6.329495e+003,8.352634e-002
6.333352e+003,8.740156e-002
6.337209e+003,9.403461e-002
6.341066e+003,9.308843e-002
6.344923e+003,8.873829e-002
6.348780e+003,8.129369e-002
6.352638e+003,7.698413e-002
6.356495e+003,7.747832e-002
6.360352e+003,8.857017e-002
6.364209e+003,8.925414e-002
6.368066e+003,7.604796e-002
6.371923e+003,7.250684e-002
6.375780e+003,7.873018e-002
6.379637e+003,8.207458e-002
6.383494e+003,8.023506e-002
6.387352e+003,8.441008e-002
6.391208e+003,8.519254e-002
6.395065e+003,8.398236e-002
6.398923e+003,7.752129e-002
6.402780e+003,7.339671e-002
6.406637e+003,8.291464e-002
6.410494e+003,9.198025e-002
6.414351e+003,1.004945e-001
6.418208e+003,9.671912e-002
6.422065e+003,9.289736e-002
6.425922e+003,9.185860e-002
6.429779e+003,9.273143e-002
6.433637e+003,9.239839e-002
6.437494e+003,8.646771e-002
6.441351e+003,8.882227e-002
6.445208e+003,9.846143e-002
6.449065e+003,9.636985e-002
6.452922e+003,8.324140e-002
6.456779e+003,8.387937e-002
6.460636e+003,8.430245e-002
6.464493e+003,8.773003e-002
6.468351e+003,9.442624e-002
6.472208e+003,8.833551e-002
6.476064e+003,8.204645e-002
6.479922e+003,7.782049e-002
6.483779e+003,7.412426e-002
6.487636e+003,7.995176e-002
6.491493e+003,8.809201e-002
6.495350e+003,9.830949e-002
6.499207e+003,1.071458e-001
6.503064e+003,1.035726e-001
6.506921e+003,8.739156e-002
6.510778e+003,7.981158e-002
6.514636e+003,7.364074e-002
6.518493e+003,8.209400e-002
6.522350e+003,8.794954e-002
6.526207e+003,8.669720e-002
6.530064e+003,8.402529e-002
6.533921e+003,9.565464e-002
6.537778e+003,9.977364e-002
6.541635e+003,9.459478e-002
6.545492e+003,9.468386e-002
6.549350e+003,9.455726e-002
6.553207e+003,1.031805e-001
6.557063e+003,1.005119e-001
6.560921e+003,9.195875e-002
6.564778e+003,9.390659e-002
6.568635e+003,9.725363e-002
6.572492e+003,1.016903e-001
6.576349e+003,9.570949e-002
6.580206e+003,8.922769e-002
6.584063e+003,9.008692e-002
6.587920e+003,9.025089e-002
6.591777e+003,1.009826e-001
6.595635e+003,1.051983e-001
6.599492e+003,1.003888e-001
6.603349e+003,9.531060e-002
6.607206e+003,7.929719e-002
6.611063e+003,7.440355e-002
6.614920e+003,8.306060e-002
6.618777e+003,8.266177e-002
6.622634e+003,8.359766e-002
6.626491e+003,8.683784e-002
6.630349e+003,9.329214e-002
6.634206e+003,9.805273e-002
6.638063e+003,9.699273e-002
6.641920e+003,8.235474e-002
6.645777e+003,8.162796e-002
6.649634e+003,9.256046e-002
6.653491e+003,9.030902e-002
6.657348e+003,9.698188e-002
6.661205e+003,1.007642e-001
6.665063e+003,9.089108e-002
6.668919e+003,8.409671e-002
6.672776e+003,9.002675e-002
6.676634e+003,9.660947e-002
6.680491e+003,9.101205e-002
6.684348e+003,9.013765e-002
6.688205e+003,9.729102e-002
6.692062e+003,1.074775e-001
6.695919e+003,1.008250e-001
6.699776e+003,8.633535e-002
6.703633e+003,9.002218e-002
6.707490e+003,9.973595e-002
6.711348e+003,9.660839e-002
6.715205e+003,9.694161e-002
6.719062e+003,1.104478e-001
6.722919e+003,1.021563e-001
6.726776e+003,1.023556e-001
6.730633e+003,1.109862e-001
6.734490e+003,1.067205e-001
6.738347e+003,9.919623e-002
6.742204e+003,9.077150e-002
6.746062e+003,1.038016e-001
6.749918e+003,1.148269e-001
6.753775e+003,1.108919e-001
6.757633e+003,9.968764e-002
6.761490e+003,9.966217e-002
6.765347e+003,9.634623e-002
6.769204e+003,8.998941e-002
6.773061e+003,8.741465e-002
6.776918e+003,9.716763e-002
6.780775e+003,1.010884e-001
6.784632e+003,1.063803e-001
6.788489e+003,1.124704e-001
6.792347e+003,1.120106e-001
6.796204e+003,9.403898e-002
6.800061e+003,8.311957e-002
6.803918e+003,8.915652e-002
6.807775e+003,8.855245e-002
6.811632e+003,8.733228e-002
6.815489e+003,1.011845e-001
6.819346e+003,1.080857e-001
6.823203e+003,1.056158e-001
6.827061e+003,1.051452e-001
6.830917e+003,1.084405e-001
6.834774e+003,1.129862e-001
6.838632e+003,1.005475e-001
6.842489e+003,1.021892e-001
6.846346e+003,1.044655e-001
6.850203e+003,1.037966e-001
6.854060e+003,9.912961e-002
6.857917e+003,9.867746e-002
6.861774e+003,1.060439e-001
6.865631e+003,1.019735e-001
6.869488e+003,9.599441e-002
6.873346e+003,1.037453e-001
6.877203e+003,1.092687e-001
6.881060e+003,1.064932e-001
6.884917e+003,1.080756e-001
6.888774e+003,1.106354e-001
6.892631e+003,1.131895e-001
6.896488e+003,1.103793e-001
6.900345e+003,1.204738e-001
6.904202e+003,1.182904e-001
6.908060e+003,1.027182e-001
6.911917e+003,1.020224e-001
6.915773e+003,1.198668e-001
6.919631e+003,1.207622e-001
6.923488e+003,9.594465e-002
6.927345e+003,8.639021e-002
6.931202e+003,1.051882e-001
6.935059e+003,1.203041e-001
6.938916e+003,1.032592e-001
6.942773e+003,9.971473e-002
6.946630e+003,1.055098e-001
6.950487e+003,9.987217e-002
6.954345e+003,1.040710e-001
6.958202e+003,1.148285e-001
6.962059e+003,1.281716e-001
6.965916e+003,1.248981e-001
6.969773e+003,1.106235e-001
6.973630e+003,1.045212e-001
6.977487e+003,1.111499e-001
6.981344e+003,1.267650e-001
6.985201e+003,1.253262e-001
6.989059e+003,1.050284e-001
6.992916e+003,1.055096e-001
6.996772e+003,1.228649e-001
7.000630e+003,1.310486e-001
7.004487e+003,1.400876e-001
7.008344e+003,1.244808e-001
7.012201e+003,1.097165e-001
7.016058e+003,1.163876e-001
7.019915e+003,1.292819e-001
7.023772e+003,1.312627e-001
7.027629e+003,1.318818e-001
7.031486e+003,1.252673e-001
7.035344e+003,1.041408e-001
7.039201e+003,1.046883e-001
7.043058e+003,1.142144e-001
7.046915e+003,1.077098e-001
7.050772e+003,1.286582e-001
7.054629e+003,1.431378e-001
7.058486e+003,1.430145e-001
7.062343e+003,1.418502e-001
7.066200e+003,1.280713e-001
7.070058e+003,1.131883e-001
7.073915e+003,1.051422e-001
7.077771e+003,1.122206e-001
7.081629e+003,1.226412e-001
7.085486e+003,1.189537e-001
7.089343e+003,1.064644e-001
7.093200e+003,1.065587e-001
7.097057e+003,1.161724e-001
7.100914e+003,1.198286e-001
7.104771e+003,1.068603e-001
7.108628e+003,1.009737e-001
7.112485e+003,9.534407e-002
7.116343e+003,1.055095e-001
7.120200e+003,1.050826e-001
7.124057e+003,9.403428e-002
7.127914e+003,9.979302e-002
7.131771e+003,1.130152e-001
7.135628e+003,1.208833e-001
7.139485e+003,1.216458e-001
7.143342e+003,1.163396e-001
7.147199e+003,1.221799e-001
7.151057e+003,1.350043e-001
7.154914e+003,1.415359e-001
7.158771e+003,1.362282e-001
7.162628e+003,1.212283e-001
7.166485e+003,1.126864e-001
7.170342e+003,1.133277e-001
7.174199e+003,1.263872e-001
7.178056e+003,1.366722e-001
7.181913e+003,1.216020e-001
7.185771e+003,1.122119e-001
7.189627e+003,1.198136e-001
7.193484e+003,1.319296e-001
7.197342e+003,1.361478e-001
7.201199e+003,1.212960e-001
7.205056e+003,1.175200e-001
7.208913e+003,9.327658e-002
7.212770e+003,1.047241e-001
7.216627e+003,1.355878e-001
7.220484e+003,1.236194e-001
7.224341e+003,1.219095e-001
7.228198e+003,1.335133e-001
7.232056e+003,1.519441e-001
7.235913e+003,1.686537e-001
7.239770e+003,1.661244e-001
7.243627e+003,1.555560e-001
7.247484e+003,1.382781e-001
7.251341e+003,1.258333e-001
7.255198e+003,1.208344e-001
7.259055e+003,1.294222e-001
7.262912e+003,1.323474e-001
7.266770e+003,1.119525e-001
7.270626e+003,1.210638e-001
7.274483e+003,1.568321e-001
7.278341e+003,1.471330e-001
7.282198e+003,1.362850e-001
7.286055e+003,1.337716e-001
7.289912e+003,1.382782e-001
7.293769e+003,1.421341e-001
7.297626e+003,1.354037e-001
7.301483e+003,1.254525e-001
7.305340e+003,1.271158e-001
7.309197e+003,1.423057e-001
7.313055e+003,1.423443e-001
7.316912e+003,1.413528e-001
7.320769e+003,1.317843e-001
7.324626e+003,1.184184e-001
7.328483e+003,1.354237e-001
7.332340e+003,1.427530e-001
7.336197e+003,1.229762e-001
7.340054e+003,1.173534e-001
7.343911e+003,1.366156e-001
7.347769e+003,1.234997e-001
7.351625e+003,1.153717e-001
7.355482e+003,1.143319e-001
7.359340e+003,1.082207e-001
7.363197e+003,1.064008e-001
7.367054e+003,1.185467e-001
7.370911e+003,1.341967e-001
7.374768e+003,1.437016e-001
7.378625e+003,1.519504e-001
7.382482e+003,1.505354e-001
7.386339e+003,1.229257e-001
7.390196e+003,9.127060e-002
7.394054e+003,8.618408e-002
7.397911e+003,9.811711e-002
7.401768e+003,1.010253e-001
7.405625e+003,1.116770e-001
7.409482e+003,1.196851e-001
7.413339e+003,1.345241e-001
7.417196e+003,1.450653e-001
7.421053e+003,1.434310e-001
7.424910e+003,1.570876e-001
7.428768e+003,1.408816e-001
7.432625e+003,1.198236e-001
7.436481e+003,1.139790e-001
7.440339e+003,1.139757e-001
7.444196e+003,1.104443e-001
7.448053e+003,1.176621e-001
7.451910e+003,1.207434e-001
7.455767e+003,9.930433e-002
7.459624e+003,6.963085e-002
7.463481e+003,8.628536e-002
7.467338e+003,1.344281e-001
7.471195e+003,1.377907e-001
7.475053e+003,1.086667e-001
7.478910e+003,1.207020e-001
7.482767e+003,1.208704e-001
7.486624e+003,1.178539e-001
7.490481e+003,1.095353e-001
7.494338e+003,9.913810e-002
7.498195e+003,1.073629e-001
7.502052e+003,1.067789e-001
7.505909e+003,9.474225e-002
7.509767e+003,1.193485e-001
7.513624e+003,1.261957e-001
7.517480e+003,1.272464e-001
7.521338e+003,1.433342e-001
7.525195e+003,1.476086e-001
7.529052e+003,1.342117e-001
7.532909e+003,1.223531e-001
7.536766e+003,1.451580e-001
7.540623e+003,1.426461e-001
7.544480e+003,1.400132e-001
7.548337e+003,1.351502e-001
7.552194e+003,1.206214e-001
7.556052e+003,1.150363e-001
7.559909e+003,1.082907e-001
7.563766e+003,9.121017e-002
7.567623e+003,1.045699e-001
7.571480e+003,1.045430e-001
7.575337e+003,9.032155e-002
7.579194e+003,1.134541e-001
7.583051e+003,1.344768e-001
7.586908e+003,1.684811e-001
7.590766e+003,1.403622e-001
7.594623e+003,1.200804e-001
7.598479e+003,1.430049e-001
7.602337e+003,1.234215e-001
7.606194e+003,1.147967e-001
7.610051e+003,1.392385e-001
7.613908e+003,1.648168e-001
7.617765e+003,1.522476e-001
7.621622e+003,1.249000e-001
7.625479e+003,1.311537e-001
7.629336e+003,1.135971e-001
7.633193e+003,1.247670e-001
7.637051e+003,1.515023e-001
7.640908e+003,1.373082e-001
7.644765e+003,1.187442e-001
7.648622e+003,9.296671e-002
7.652479e+003,1.001041e-001
7.656336e+003,1.395982e-001
7.660193e+003,1.577908e-001
7.664050e+003,1.438379e-001
7.667907e+003,1.427534e-001
7.671765e+003,1.448195e-001
7.675622e+003,1.427706e-001
7.679479e+003,1.620493e-001
7.683336e+003,1.450247e-001
7.687193e+003,1.379753e-001
7.691050e+003,1.418629e-001
7.694907e+003,1.343916e-001
7.698764e+003,1.450210e-001
7.702621e+003,1.369687e-001
7.706479e+003,1.087056e-001
7.710335e+003,1.227168e-001
7.714192e+003,1.302385e-001
7.718050e+003,1.182811e-001
7.721907e+003,1.402734e-001
7.725764e+003,1.135532e-001
7.729621e+003,9.990916e-002
7.733478e+003,1.420990e-001
7.737335e+003,1.561691e-001
7.741192e+003,1.701773e-001
7.745049e+003,1.412558e-001
7.748906e+003,1.087167e-001
7.752764e+003,1.179493e-001
7.756621e+003,1.251233e-001
7.760478e+003,1.239540e-001
7.764335e+003,1.366279e-001
7.768192e+003,1.548320e-001
7.772049e+003,1.162646e-001
7.775906e+003,9.243860e-002
7.779763e+003,1.025838e-001
7.783620e+003,1.170413e-001
7.787478e+003,1.476797e-001
7.791334e+003,1.424663e-001
7.795191e+003,1.080170e-001
7.799049e+003,1.345689e-001
7.802906e+003,1.820894e-001
7.806763e+003,1.312700e-001
7.810620e+003,5.985371e-002
7.814477e+003,9.601796e-002
7.818334e+003,1.190009e-001
7.822191e+003,8.551691e-002
7.826048e+003,7.152185e-002
7.829905e+003,7.713836e-002
7.833763e+003,5.972112e-002
7.837620e+003,9.718408e-002
7.841477e+003,1.175570e-001
7.845334e+003,9.658985e-002
7.849191e+003,1.089982e-001
7.853048e+003,1.303960e-001
7.856905e+003,1.395546e-001
7.860762e+003,1.090804e-001
7.864619e+003,1.184373e-001
7.868477e+003,1.057632e-001
7.872333e+003,1.003058e-001
7.876190e+003,9.869134e-002
7.880048e+003,7.619064e-002
7.883905e+003,4.517395e-002
7.887762e+003,4.209017e-002
7.891619e+003,9.809098e-002
7.895476e+003,1.765815e-001
7.899333e+003,2.106404e-001
7.903190e+003,1.527340e-001
7.907047e+003,1.060362e-001
7.910904e+003,1.183843e-001
7.914762e+003,8.327054e-002
7.918619e+003,7.979155e-002
7.922476e+003,1.508615e-001
7.926333e+003,1.732323e-001
7.930190e+003,1.591980e-001
7.934047e+003,1.362097e-001
7.937904e+003,1.156179e-001
7.941761e+003,1.377444e-001
7.945618e+003,1.732295e-001
7.949476e+003,2.039340e-001
7.953333e+003,1.534246e-001
7.957189e+003,1.534697e-001
7.961047e+003,1.620464e-001
7.964904e+003,1.802757e-001
7.968761e+003,1.814625e-001
7.972618e+003,1.050032e-001
7.976475e+003,9.978385e-002
7.980332e+003,1.786105e-001
7.984189e+003,2.056154e-001
7.988046e+003,1.782894e-001
7.991903e+003,1.212701e-001
7.995761e+003,9.154493e-002
7.999618e+003,5.695342e-002
