4.011380e+002,1.036080e+000
4.049951e+002,6.000000e+000
4.088522e+002,6.000000e+000
4.127093e+002,7.283788e-001
4.165664e+002,6.000000e+000
4.204235e+002,-9.534974e-001
4.242806e+002,6.000000e+000
4.281377e+002,6.000000e+000
4.319948e+002,6.000000e+000
4.358519e+002,2.602538e-001
4.397090e+002,6.000000e+000
4.435661e+002,-1.077142e-001
4.474232e+002,1.330156e-001
4.512803e+002,1.242298e+000
4.551374e+002,6.000000e+000
4.589945e+002,6.000000e+000
4.628516e+002,6.000000e+000
4.667087e+002,2.767279e-001
4.705658e+002,8.667070e-001
4.744229e+002,6.000000e+000
4.782800e+002,6.000000e+000
4.821371e+002,6.000000e+000
4.859941e+002,6.000000e+000
4.898513e+002,-2.780953e-001
4.937083e+002,-1.303108e-001
4.975654e+002,3.123482e-001
5.014225e+002,-6.168494e-001
5.052796e+002,6.000000e+000
5.091367e+002,6.000000e+000
5.129938e+002,-4.676525e-001
5.168509e+002,-2.228384e-002
5.207080e+002,7.117705e-001
5.245651e+002,6.000000e+000
5.284222e+002,6.000000e+000
5.322793e+002,6.000000e+000
5.361364e+002,2.508908e-001
5.399935e+002,5.455393e-001
5.438506e+002,-2.075523e-001
5.477077e+002,6.000000e+000
5.515648e+002,6.000000e+000
5.554219e+002,6.000000e+000
5.592790e+002,6.000000e+000
5.631361e+002,6.000000e+000
5.669932e+002,1.069747e+000
5.708503e+002,-3.658615e-001
5.747074e+002,6.000000e+000
5.785645e+002,6.000000e+000
5.824216e+002,-8.850076e-001
5.862787e+002,-2.264364e-001
5.901357e+002,6.000000e+000
5.939929e+002,6.000000e+000
5.978499e+002,6.000000e+000
6.017070e+002,6.625693e-001
6.055641e+002,9.108397e-001
6.094212e+002,-2.693304e-001
6.132783e+002,6.000000e+000
6.171354e+002,-7.524930e-001
6.209925e+002,-1.027491e-001
6.248496e+002,6.000000e+000
6.287067e+002,-5.158955e-003
6.325638e+002,6.000000e+000
6.364209e+002,6.000000e+000
6.402780e+002,2.225574e+000
6.441351e+002,6.000000e+000
6.479922e+002,6.000000e+000
6.518493e+002,4.395461e-001
6.557064e+002,4.009823e-001
6.595635e+002,1.062492e-002
6.634205e+002,-5.541986e-002
6.672777e+002,6.000000e+000
6.711348e+002,8.131545e-001
6.749918e+002,-4.283106e-001
6.788490e+002,6.000000e+000
6.827061e+002,6.000000e+000
6.865631e+002,6.000000e+000
6.904203e+002,6.534323e-001
6.942773e+002,-1.076036e+000
6.981344e+002,6.000000e+000
7.019916e+002,3.711107e-001
7.058486e+002,-1.278664e+000
7.097057e+002,6.000000e+000
7.135629e+002,2.157947e-001
7.174199e+002,5.933415e-001
7.212770e+002,2.481305e-001
7.251342e+002,7.763185e-002
7.289912e+002,-4.470429e-001
7.328483e+002,-5.502904e-001
7.367054e+002,7.551461e-001
7.405625e+002,6.000000e+000
7.444196e+002,6.000000e+000
7.482767e+002,1.763194e-001
7.521338e+002,9.647746e-002
7.559908e+002,3.488998e-001
7.598480e+002,6.000000e+000
7.637051e+002,1.033908e+000
7.675621e+002,6.000000e+000
7.714193e+002,6.000000e+000
7.752764e+002,6.835299e-001
7.791334e+002,6.024536e-001
7.829905e+002,-9.926446e-002
7.868477e+002,6.000000e+000
7.907047e+002,6.000000e+000
7.945618e+002,6.650646e-001
7.984189e+002,6.000000e+000
8.022760e+002,1.816937e+000
8.061331e+002,6.000000e+000
8.099902e+002,6.000000e+000
8.138473e+002,-4.322162e-002
8.177044e+002,-9.089617e-001
8.215615e+002,1.793502e+000
8.254186e+002,3.650125e-001
8.292757e+002,6.000000e+000
8.331328e+002,6.000000e+000
8.369899e+002,6.000000e+000
8.408470e+002,1.360317e+000
8.447041e+002,6.000000e+000
8.485612e+002,6.000000e+000
8.524183e+002,6.000000e+000
8.562754e+002,6.670135e-001
8.601324e+002,3.979298e-001
8.639896e+002,5.684827e-001
8.678467e+002,9.871929e-001
8.717037e+002,6.000000e+000
8.755609e+002,6.000000e+000
8.794180e+002,7.550381e-001
8.832750e+002,2.477213e+000
8.871321e+002,1.516199e+000
8.909893e+002,1.358711e+000
8.948463e+002,1.221718e+000
8.987034e+002,8.396073e-001
9.025605e+002,8.064312e-001
9.064176e+002,1.364814e+000
9.102747e+002,6.000000e+000
9.141318e+002,6.000000e+000
9.179889e+002,1.815181e+000
9.218461e+002,2.694594e+000
9.257031e+002,1.739018e+000
9.295602e+002,2.360172e+000
9.334174e+002,2.463805e+000
9.372744e+002,1.157939e+000
9.411315e+002,1.193617e+000
9.449886e+002,1.717735e+000
9.488457e+002,2.190940e+000
9.527028e+002,1.496652e+000
9.565599e+002,1.240910e+000
9.604170e+002,1.866980e+000
9.642740e+002,6.000000e+000
9.681312e+002,6.000000e+000
9.719883e+002,1.513005e+000
9.758453e+002,1.889438e+000
9.797025e+002,6.000000e+000
9.835596e+002,1.763699e+000
9.874166e+002,1.710246e+000
9.912738e+002,6.000000e+000
9.951309e+002,2.287934e+000
9.989879e+002,1.518449e+000
1.002845e+003,1.526624e+000
1.006702e+003,1.747167e+000
1.010559e+003,2.511536e+000
1.014416e+003,2.119285e+000
1.018273e+003,1.572349e+000
1.022130e+003,1.619615e+000
1.025988e+003,2.272835e+000
1.029845e+003,2.459090e+000
1.033702e+003,1.674860e+000
1.037559e+003,1.594233e+000
1.041416e+003,1.533224e+000
1.045273e+003,1.685428e+000
1.049130e+003,1.666852e+000
1.052987e+003,1.501028e+000
1.056844e+003,1.582193e+000
1.060702e+003,1.742216e+000
1.064559e+003,1.453875e+000
1.068416e+003,1.428955e+000
1.072273e+003,1.394926e+000
1.076130e+003,1.386085e+000
1.079987e+003,1.310995e+000
1.083844e+003,1.300680e+000
1.087701e+003,1.351412e+000
1.091558e+003,1.217360e+000
1.095415e+003,1.234732e+000
1.099272e+003,1.330554e+000
1.103130e+003,1.232092e+000
1.106987e+003,1.175161e+000
1.110844e+003,1.198696e+000
1.114701e+003,1.198712e+000
1.118558e+003,1.339843e+000
1.122415e+003,1.378261e+000
1.126272e+003,1.212059e+000
1.130129e+003,1.094588e+000
1.133986e+003,1.074350e+000
1.137843e+003,1.094560e+000
1.141701e+003,1.104264e+000
1.145558e+003,1.107925e+000
1.149415e+003,1.081290e+000
1.153272e+003,1.081896e+000
1.157129e+003,1.080586e+000
1.160986e+003,1.098140e+000
1.164843e+003,1.069007e+000
1.168700e+003,1.038523e+000
1.172557e+003,1.057904e+000
1.176414e+003,1.099485e+000
1.180271e+003,1.029987e+000
1.184129e+003,9.868221e-001
1.187986e+003,1.004876e+000
1.191843e+003,1.022440e+000
1.195700e+003,1.034738e+000
1.199557e+003,1.012582e+000
1.203414e+003,9.625631e-001
1.207271e+003,9.000567e-001
1.211128e+003,8.707326e-001
1.214985e+003,8.285321e-001
1.218842e+003,7.311867e-001
1.222699e+003,6.683083e-001
1.226557e+003,6.389930e-001
1.230414e+003,5.976492e-001
1.234271e+003,5.529764e-001
1.238128e+003,5.160039e-001
1.241985e+003,4.733162e-001
1.245842e+003,4.428926e-001
1.249699e+003,4.186212e-001
1.253556e+003,4.105214e-001
1.257413e+003,3.997233e-001
1.261271e+003,3.749674e-001
1.265128e+003,3.553259e-001
1.268985e+003,3.447362e-001
1.272842e+003,3.324810e-001
1.276699e+003,3.174770e-001
1.280556e+003,3.060749e-001
1.284413e+003,2.987478e-001
1.288270e+003,2.923687e-001
1.292127e+003,2.830859e-001
1.295984e+003,2.784196e-001
1.299841e+003,2.737205e-001
1.303698e+003,2.688451e-001
1.307556e+003,2.647958e-001
1.311413e+003,2.595325e-001
1.315270e+003,2.455620e-001
1.319127e+003,2.418231e-001
1.322984e+003,2.403445e-001
1.326841e+003,2.304372e-001
1.330698e+003,2.288666e-001
1.334555e+003,2.319639e-001
1.338412e+003,2.344970e-001
1.342270e+003,2.291027e-001
1.346127e+003,2.271474e-001
1.349984e+003,2.308629e-001
1.353841e+003,2.315651e-001
1.357698e+003,2.320766e-001
1.361555e+003,2.452444e-001
1.365412e+003,2.500228e-001
1.369269e+003,2.545702e-001
1.373126e+003,2.648143e-001
1.376983e+003,2.699369e-001
1.380840e+003,2.769968e-001
1.384698e+003,2.825542e-001
1.388555e+003,2.745731e-001
1.392412e+003,2.772133e-001
1.396269e+003,2.908930e-001
1.400126e+003,3.015189e-001
1.403983e+003,3.003969e-001
1.407840e+003,3.022759e-001
1.411697e+003,3.039328e-001
1.415554e+003,3.163319e-001
1.419411e+003,3.370141e-001
1.423269e+003,3.509891e-001
1.427126e+003,3.472747e-001
1.430983e+003,3.470738e-001
1.434840e+003,3.491205e-001
1.438697e+003,3.463497e-001
1.442554e+003,3.405430e-001
1.446411e+003,3.396422e-001
1.450268e+003,3.421803e-001
1.454125e+003,3.383263e-001
1.457982e+003,3.299353e-001
1.461839e+003,3.311942e-001
1.465697e+003,3.226989e-001
1.469554e+003,3.117361e-001
1.473411e+003,3.205841e-001
1.477268e+003,3.354415e-001
1.481125e+003,3.447443e-001
1.484982e+003,3.569783e-001
1.488839e+003,3.654388e-001
1.492696e+003,3.657147e-001
1.496553e+003,3.673294e-001
1.500411e+003,3.739633e-001
1.504268e+003,3.774408e-001
1.508125e+003,3.753579e-001
1.511982e+003,3.745367e-001
1.515839e+003,3.651926e-001
1.519696e+003,3.593912e-001
1.523553e+003,3.541652e-001
1.527410e+003,3.418398e-001
1.531267e+003,3.382826e-001
1.535124e+003,3.353783e-001
1.538981e+003,3.254359e-001
1.542839e+003,3.157007e-001
1.546696e+003,3.094507e-001
1.550553e+003,2.982451e-001
1.554410e+003,2.909496e-001
1.558267e+003,2.907928e-001
1.562124e+003,2.891932e-001
1.565981e+003,2.855350e-001
1.569838e+003,2.798781e-001
1.573695e+003,2.794116e-001
1.577552e+003,2.773109e-001
1.581410e+003,2.739665e-001
1.585267e+003,2.754798e-001
1.589124e+003,2.780973e-001
1.592981e+003,2.845002e-001
1.596838e+003,2.992180e-001
1.600695e+003,3.137737e-001
1.604552e+003,3.176032e-001
1.608409e+003,3.245992e-001
1.612266e+003,3.460003e-001
1.616123e+003,3.649057e-001
1.619980e+003,3.812750e-001
1.623838e+003,3.941391e-001
1.627695e+003,4.049879e-001
1.631552e+003,4.144752e-001
1.635409e+003,4.208522e-001
1.639266e+003,4.248820e-001
1.643123e+003,4.181027e-001
1.646980e+003,4.144360e-001
1.650837e+003,4.112496e-001
1.654694e+003,3.984730e-001
1.658551e+003,3.799854e-001
1.662409e+003,3.710034e-001
1.666266e+003,3.627194e-001
1.670123e+003,3.460094e-001
1.673980e+003,3.317153e-001
1.677837e+003,3.167724e-001
1.681694e+003,2.973232e-001
1.685551e+003,2.868471e-001
1.689408e+003,2.843703e-001
1.693265e+003,2.779291e-001
1.697122e+003,2.626738e-001
1.700979e+003,2.592743e-001
1.704837e+003,2.538680e-001
1.708694e+003,2.456732e-001
1.712551e+003,2.449502e-001
1.716408e+003,2.442872e-001
1.720265e+003,2.399743e-001
1.724122e+003,2.447487e-001
1.727979e+003,2.452303e-001
1.731836e+003,2.438532e-001
1.735693e+003,2.490781e-001
1.739550e+003,2.511166e-001
1.743408e+003,2.503738e-001
1.747265e+003,2.523641e-001
1.751122e+003,2.534051e-001
1.754979e+003,2.602990e-001
1.758836e+003,2.658953e-001
1.762693e+003,2.632812e-001
1.766550e+003,2.636367e-001
1.770407e+003,2.652743e-001
1.774264e+003,2.691382e-001
1.778121e+003,2.742568e-001
1.781979e+003,2.713823e-001
1.785836e+003,2.690148e-001
1.789693e+003,2.592059e-001
1.793550e+003,2.530014e-001
1.797407e+003,2.543588e-001
1.801264e+003,2.548552e-001
1.805121e+003,2.549391e-001
1.808978e+003,2.526788e-001
1.812835e+003,2.479359e-001
1.816692e+003,2.421357e-001
1.820549e+003,2.376564e-001
1.824407e+003,2.375372e-001
1.828264e+003,2.369192e-001
1.832121e+003,2.298982e-001
1.835978e+003,2.249778e-001
1.839835e+003,2.225130e-001
1.843692e+003,2.207128e-001
1.847549e+003,2.167186e-001
1.851406e+003,2.171675e-001
1.855263e+003,2.145174e-001
1.859120e+003,2.108091e-001
1.862978e+003,2.145912e-001
1.866835e+003,2.213503e-001
1.870692e+003,2.223025e-001
1.874549e+003,2.179081e-001
1.878406e+003,2.178482e-001
1.882263e+003,2.188531e-001
1.886120e+003,2.243235e-001
1.889977e+003,2.325220e-001
1.893834e+003,2.355849e-001
1.897691e+003,2.342415e-001
1.901548e+003,2.351577e-001
1.905406e+003,2.355520e-001
1.909263e+003,2.386345e-001
1.913120e+003,2.428206e-001
1.916977e+003,2.426691e-001
1.920834e+003,2.445853e-001
1.924691e+003,2.471012e-001
1.928548e+003,2.445219e-001
1.932405e+003,2.378218e-001
1.936262e+003,2.385804e-001
1.940119e+003,2.422616e-001
1.943977e+003,2.425706e-001
1.947834e+003,2.375584e-001
1.951691e+003,2.300532e-001
1.955548e+003,2.258203e-001
1.959405e+003,2.251866e-001
1.963262e+003,2.259729e-001
1.967119e+003,2.245417e-001
1.970976e+003,2.199188e-001
1.974833e+003,2.165443e-001
1.978690e+003,2.126557e-001
1.982547e+003,2.089067e-001
1.986405e+003,2.073813e-001
1.990262e+003,2.078334e-001
1.994119e+003,2.135541e-001
1.997976e+003,2.099749e-001
2.001833e+003,2.016378e-001
2.005690e+003,2.019067e-001
2.009547e+003,2.016589e-001
2.013404e+003,2.002628e-001
2.017261e+003,2.018858e-001
2.021118e+003,2.005367e-001
2.024976e+003,2.026334e-001
2.028833e+003,2.058484e-001
2.032690e+003,2.061971e-001
2.036547e+003,2.101722e-001
2.040404e+003,2.174472e-001
2.044261e+003,2.209647e-001
2.048118e+003,2.211443e-001
2.051975e+003,2.178178e-001
2.055832e+003,2.162326e-001
2.059689e+003,2.153415e-001
2.063546e+003,2.154367e-001
2.067404e+003,2.214833e-001
2.071261e+003,2.271366e-001
2.075118e+003,2.285316e-001
2.078975e+003,2.269563e-001
2.082832e+003,2.245240e-001
2.086689e+003,2.265956e-001
2.090546e+003,2.294901e-001
2.094403e+003,2.291396e-001
2.098260e+003,2.228880e-001
2.102117e+003,2.179632e-001
2.105975e+003,2.170103e-001
2.109832e+003,2.160528e-001
2.113689e+003,2.159927e-001
2.117546e+003,2.137603e-001
2.121403e+003,2.079825e-001
2.125260e+003,2.047349e-001
2.129117e+003,2.045815e-001
2.132974e+003,2.057680e-001
2.136831e+003,2.029763e-001
2.140688e+003,1.987970e-001
2.144545e+003,1.961703e-001
2.148403e+003,1.954553e-001
2.152260e+003,1.938239e-001
2.156117e+003,1.919768e-001
2.159974e+003,1.899257e-001
2.163831e+003,1.916984e-001
2.167688e+003,1.927177e-001
2.171545e+003,1.960254e-001
2.175402e+003,1.980277e-001
2.179259e+003,1.978310e-001
2.183116e+003,2.017529e-001
2.186974e+003,2.085883e-001
2.190831e+003,2.070975e-001
2.194688e+003,2.078949e-001
2.198545e+003,2.132140e-001
2.202402e+003,2.163373e-001
2.206259e+003,2.210937e-001
2.210116e+003,2.213403e-001
2.213973e+003,2.187417e-001
2.217830e+003,2.200710e-001
2.221688e+003,2.248106e-001
2.225544e+003,2.273038e-001
2.229402e+003,2.293185e-001
2.233259e+003,2.301670e-001
2.237116e+003,2.339124e-001
2.240973e+003,2.338264e-001
2.244830e+003,2.311995e-001
2.248687e+003,2.352995e-001
2.252544e+003,2.359725e-001
2.256401e+003,2.306896e-001
2.260258e+003,2.221907e-001
2.264115e+003,2.232984e-001
2.267973e+003,2.268998e-001
2.271830e+003,2.220833e-001
2.275687e+003,2.220954e-001
2.279544e+003,2.221368e-001
2.283401e+003,2.187824e-001
2.287258e+003,2.162858e-001
2.291115e+003,2.145381e-001
2.294972e+003,2.120420e-001
2.298829e+003,2.136344e-001
2.302687e+003,2.098089e-001
2.306543e+003,2.067651e-001
2.310401e+003,2.081764e-001
2.314258e+003,2.095897e-001
2.318115e+003,2.143673e-001
2.321972e+003,2.154433e-001
2.325829e+003,2.136212e-001
2.329686e+003,2.162832e-001
2.333543e+003,2.188473e-001
2.337400e+003,2.172683e-001
2.341257e+003,2.142134e-001
2.345115e+003,2.143228e-001
2.348972e+003,2.170811e-001
2.352829e+003,2.208389e-001
2.356686e+003,2.275931e-001
2.360543e+003,2.281605e-001
2.364400e+003,2.273833e-001
2.368257e+003,2.288394e-001
2.372114e+003,2.280082e-001
2.375971e+003,2.310895e-001
2.379828e+003,2.347493e-001
2.383686e+003,2.344758e-001
2.387542e+003,2.357921e-001
2.391400e+003,2.348134e-001
2.395257e+003,2.346865e-001
2.399114e+003,2.353123e-001
2.402971e+003,2.339079e-001
2.406828e+003,2.350039e-001
2.410685e+003,2.341071e-001
2.414542e+003,2.314353e-001
2.418399e+003,2.294630e-001
2.422256e+003,2.239781e-001
2.426114e+003,2.241770e-001
2.429971e+003,2.257919e-001
2.433828e+003,2.242807e-001
2.437685e+003,2.204150e-001
2.441542e+003,2.187981e-001
2.445399e+003,2.159159e-001
2.449256e+003,2.116825e-001
2.453113e+003,2.109191e-001
2.456970e+003,2.094816e-001
2.460827e+003,2.055921e-001
2.464684e+003,2.054578e-001
2.468542e+003,2.073083e-001
2.472399e+003,2.108728e-001
2.476256e+003,2.107329e-001
2.480113e+003,2.129542e-001
2.483970e+003,2.122470e-001
2.487827e+003,2.153203e-001
2.491684e+003,2.169570e-001
2.495541e+003,2.131042e-001
2.499398e+003,2.121815e-001
2.503255e+003,2.145279e-001
2.507113e+003,2.148102e-001
2.510969e+003,2.199423e-001
2.514827e+003,2.270891e-001
2.518684e+003,2.306412e-001
2.522541e+003,2.311927e-001
2.526398e+003,2.330114e-001
2.530255e+003,2.335316e-001
2.534112e+003,2.335884e-001
2.537969e+003,2.345595e-001
2.541826e+003,2.349620e-001
2.545683e+003,2.388143e-001
2.549541e+003,2.387302e-001
2.553398e+003,2.381438e-001
2.557255e+003,2.371403e-001
2.561112e+003,2.381117e-001
2.564969e+003,2.391007e-001
2.568826e+003,2.417074e-001
2.572683e+003,2.395262e-001
2.576540e+003,2.350693e-001
2.580397e+003,2.324686e-001
2.584254e+003,2.308738e-001
2.588112e+003,2.342569e-001
2.591969e+003,2.365176e-001
2.595826e+003,2.345362e-001
2.599683e+003,2.331996e-001
2.603540e+003,2.320733e-001
2.607397e+003,2.280751e-001
2.611254e+003,2.250622e-001
2.615111e+003,2.251249e-001
2.618968e+003,2.256175e-001
2.622825e+003,2.275019e-001
2.626682e+003,2.318862e-001
2.630540e+003,2.380955e-001
2.634397e+003,2.411700e-001
2.638254e+003,2.442668e-001
2.642111e+003,2.451665e-001
2.645968e+003,2.398774e-001
2.649825e+003,2.362127e-001
2.653682e+003,2.424328e-001
2.657539e+003,2.476978e-001
2.661396e+003,2.501209e-001
2.665253e+003,2.566536e-001
2.669111e+003,2.602645e-001
2.672968e+003,2.618797e-001
2.676825e+003,2.668031e-001
2.680682e+003,2.683298e-001
2.684539e+003,2.653170e-001
2.688396e+003,2.694331e-001
2.692253e+003,2.790232e-001
2.696110e+003,2.821251e-001
2.699967e+003,2.803105e-001
2.703824e+003,2.815441e-001
2.707681e+003,2.845535e-001
2.711539e+003,2.871237e-001
2.715396e+003,2.889443e-001
2.719253e+003,2.904878e-001
2.723110e+003,2.945074e-001
2.726967e+003,2.932631e-001
2.730824e+003,2.902826e-001
2.734681e+003,2.893842e-001
2.738538e+003,2.890854e-001
2.742395e+003,2.873662e-001
2.746252e+003,2.912732e-001
2.750110e+003,2.930979e-001
2.753967e+003,2.921264e-001
2.757824e+003,2.927394e-001
2.761681e+003,2.926749e-001
2.765538e+003,2.913444e-001
2.769395e+003,2.939578e-001
2.773252e+003,2.940790e-001
2.777109e+003,2.969003e-001
2.780966e+003,3.013364e-001
2.784823e+003,2.988409e-001
2.788680e+003,2.944846e-001
2.792538e+003,2.988877e-001
2.796395e+003,3.062983e-001
2.800252e+003,3.093522e-001
2.804109e+003,3.112977e-001
2.807966e+003,3.162697e-001
2.811823e+003,3.256174e-001
2.815680e+003,3.306271e-001
2.819537e+003,3.357309e-001
2.823394e+003,3.338168e-001
2.827251e+003,3.341101e-001
2.831109e+003,3.395914e-001
2.834966e+003,3.425632e-001
2.838823e+003,3.487919e-001
2.842680e+003,3.541782e-001
2.846537e+003,3.503760e-001
2.850394e+003,3.524213e-001
2.854251e+003,3.612271e-001
2.858108e+003,3.630586e-001
2.861965e+003,3.634236e-001
2.865823e+003,3.637958e-001
2.869679e+003,3.633015e-001
2.873537e+003,3.689387e-001
2.877394e+003,3.718005e-001
2.881251e+003,3.714443e-001
2.885108e+003,3.681805e-001
2.888965e+003,3.668176e-001
2.892822e+003,3.689279e-001
2.896679e+003,3.708623e-001
2.900536e+003,3.775992e-001
2.904393e+003,3.802980e-001
2.908250e+003,3.808571e-001
2.912108e+003,3.801335e-001
2.915965e+003,3.779257e-001
2.919822e+003,3.784919e-001
2.923679e+003,3.818742e-001
2.927536e+003,3.850514e-001
2.931393e+003,3.902559e-001
2.935250e+003,3.912282e-001
2.939107e+003,3.950796e-001
2.942964e+003,4.007980e-001
2.946822e+003,4.024286e-001
2.950678e+003,4.011854e-001
2.954536e+003,4.074379e-001
2.958393e+003,4.136135e-001
2.962250e+003,4.197364e-001
2.966107e+003,4.212920e-001
2.969964e+003,4.256396e-001
2.973821e+003,4.191054e-001
2.977678e+003,4.175317e-001
2.981535e+003,4.330740e-001
2.985392e+003,4.489870e-001
2.989250e+003,4.507068e-001
2.993107e+003,4.449542e-001
2.996964e+003,4.489642e-001
3.000821e+003,4.579592e-001
3.004678e+003,4.643224e-001
3.008535e+003,4.649636e-001
3.012392e+003,4.576339e-001
3.016249e+003,4.616382e-001
3.020106e+003,4.704550e-001
3.023963e+003,4.736582e-001
3.027821e+003,4.710441e-001
3.031677e+003,4.766501e-001
3.035535e+003,4.879942e-001
3.039392e+003,4.991474e-001
3.043249e+003,5.010657e-001
3.047106e+003,4.969967e-001
3.050963e+003,4.978321e-001
3.054820e+003,4.999598e-001
3.058677e+003,5.019522e-001
3.062534e+003,5.005990e-001
3.066391e+003,4.959931e-001
3.070249e+003,4.997677e-001
3.074106e+003,5.017944e-001
3.077963e+003,5.071039e-001
3.081820e+003,5.054309e-001
3.085677e+003,5.099918e-001
3.089534e+003,5.153402e-001
3.093391e+003,5.172545e-001
3.097248e+003,5.219640e-001
3.101105e+003,5.197564e-001
3.104962e+003,5.214762e-001
3.108820e+003,5.238436e-001
3.112677e+003,5.302426e-001
3.116534e+003,5.385441e-001
3.120391e+003,5.467681e-001
3.124248e+003,5.631742e-001
3.128105e+003,5.660502e-001
3.131962e+003,5.617514e-001
3.135819e+003,5.640436e-001
3.139676e+003,5.722339e-001
3.143533e+003,5.781960e-001
3.147390e+003,5.830795e-001
3.151248e+003,5.905974e-001
3.155105e+003,5.983460e-001
3.158962e+003,5.947880e-001
3.162819e+003,5.939465e-001
3.166676e+003,6.071063e-001
3.170533e+003,6.109067e-001
3.174390e+003,6.088326e-001
3.178247e+003,6.149845e-001
3.182104e+003,6.273575e-001
3.185961e+003,6.345729e-001
3.189819e+003,6.346891e-001
3.193676e+003,6.354019e-001
3.197533e+003,6.417148e-001
3.201390e+003,6.478444e-001
3.205247e+003,6.440979e-001
3.209104e+003,6.431326e-001
3.212961e+003,6.544082e-001
3.216818e+003,6.586122e-001
3.220675e+003,6.513096e-001
3.224532e+003,6.500056e-001
3.228389e+003,6.628505e-001
3.232247e+003,6.650732e-001
3.236104e+003,6.596265e-001
3.239961e+003,6.711648e-001
3.243818e+003,6.718057e-001
3.247675e+003,6.524861e-001
3.251532e+003,6.531121e-001
3.255389e+003,6.704903e-001
3.259246e+003,6.789283e-001
3.263103e+003,6.809723e-001
3.266960e+003,6.847467e-001
3.270818e+003,6.900963e-001
3.274675e+003,6.856775e-001
3.278532e+003,6.880734e-001
3.282389e+003,6.974483e-001
3.286246e+003,7.013559e-001
3.290103e+003,6.943825e-001
3.293960e+003,6.981938e-001
3.297817e+003,7.088693e-001
3.301674e+003,7.232834e-001
3.305531e+003,7.276473e-001
3.309388e+003,7.289139e-001
3.313246e+003,7.448649e-001
3.317103e+003,7.527537e-001
3.320960e+003,7.449332e-001
3.324817e+003,7.499422e-001
3.328674e+003,7.564729e-001
3.332531e+003,7.569572e-001
3.336388e+003,7.612820e-001
3.340245e+003,7.560071e-001
3.344102e+003,7.585009e-001
3.347959e+003,7.761579e-001
3.351817e+003,7.831448e-001
3.355674e+003,7.803249e-001
3.359531e+003,7.786902e-001
3.363388e+003,7.749510e-001
3.367245e+003,7.811809e-001
3.371102e+003,7.804767e-001
3.374959e+003,7.716179e-001
3.378816e+003,7.816917e-001
3.382673e+003,7.914693e-001
3.386530e+003,7.834998e-001
3.390387e+003,7.899725e-001
3.394245e+003,7.840012e-001
3.398102e+003,7.773743e-001
3.401959e+003,7.692549e-001
3.405816e+003,7.716519e-001
3.409673e+003,8.078550e-001
3.413530e+003,8.174100e-001
3.417387e+003,7.901066e-001
3.421244e+003,7.988589e-001
3.425101e+003,8.192976e-001
3.428958e+003,8.367863e-001
3.432815e+003,8.485968e-001
3.436673e+003,8.465528e-001
3.440530e+003,8.261795e-001
3.444387e+003,8.213645e-001
3.448244e+003,8.344064e-001
3.452101e+003,8.423558e-001
3.455958e+003,8.387226e-001
3.459815e+003,8.291438e-001
3.463672e+003,8.313359e-001
3.467529e+003,8.363565e-001
3.471386e+003,8.341490e-001
3.475244e+003,8.435172e-001
3.479101e+003,8.515117e-001
3.482958e+003,8.564231e-001
3.486815e+003,8.548909e-001
3.490672e+003,8.485124e-001
3.494529e+003,8.494455e-001
3.498386e+003,8.442681e-001
3.502243e+003,8.484040e-001
3.506100e+003,8.663927e-001
3.509958e+003,8.585608e-001
3.513814e+003,8.387060e-001
3.517672e+003,8.390401e-001
3.521529e+003,8.350714e-001
3.525386e+003,8.410339e-001
3.529243e+003,8.480079e-001
3.533100e+003,8.480690e-001
3.536957e+003,8.519649e-001
3.540814e+003,8.361002e-001
3.544671e+003,8.082073e-001
3.548528e+003,8.057832e-001
3.552385e+003,8.062304e-001
3.556243e+003,8.052239e-001
3.560100e+003,8.102315e-001
3.563957e+003,8.116763e-001
3.567814e+003,7.986613e-001
3.571671e+003,7.946860e-001
3.575528e+003,7.889262e-001
3.579385e+003,7.749435e-001
3.583242e+003,7.487563e-001
3.587099e+003,7.289713e-001
3.590957e+003,7.118643e-001
3.594813e+003,6.981601e-001
3.598671e+003,6.867937e-001
3.602528e+003,6.648917e-001
3.606385e+003,6.371858e-001
3.610242e+003,6.292935e-001
3.614099e+003,6.125107e-001
3.617956e+003,5.869540e-001
3.621813e+003,5.576438e-001
3.625670e+003,5.311406e-001
3.629527e+003,4.903593e-001
3.633385e+003,4.507048e-001
3.637242e+003,4.246960e-001
3.641099e+003,3.989390e-001
3.644956e+003,3.691891e-001
3.648813e+003,3.423818e-001
3.652670e+003,3.205763e-001
3.656527e+003,2.923657e-001
3.660384e+003,2.744403e-001
3.664241e+003,2.606479e-001
3.668098e+003,2.428516e-001
3.671956e+003,2.225707e-001
3.675813e+003,2.102225e-001
3.679670e+003,2.023270e-001
3.683527e+003,1.938852e-001
3.687384e+003,1.885777e-001
3.691241e+003,1.805786e-001
3.695098e+003,1.711723e-001
3.698955e+003,1.687010e-001
3.702812e+003,1.663281e-001
3.706669e+003,1.565129e-001
3.710526e+003,1.501398e-001
3.714384e+003,1.534686e-001
3.718241e+003,1.544785e-001
3.722098e+003,1.517874e-001
3.725955e+003,1.503728e-001
3.729812e+003,1.504119e-001
3.733669e+003,1.475449e-001
3.737526e+003,1.410063e-001
3.741383e+003,1.380893e-001
3.745240e+003,1.386390e-001
3.749097e+003,1.350802e-001
3.752955e+003,1.350711e-001
3.756812e+003,1.336171e-001
3.760669e+003,1.300818e-001
3.764526e+003,1.281930e-001
3.768383e+003,1.300035e-001
3.772240e+003,1.308158e-001
3.776097e+003,1.272991e-001
3.779954e+003,1.257053e-001
3.783811e+003,1.263670e-001
3.787668e+003,1.230338e-001
3.791525e+003,1.229212e-001
3.795383e+003,1.242173e-001
3.799240e+003,1.224530e-001
3.803097e+003,1.231716e-001
3.806954e+003,1.254150e-001
3.810811e+003,1.221586e-001
3.814668e+003,1.191123e-001
3.818525e+003,1.181766e-001
3.822382e+003,1.241418e-001
3.826239e+003,1.304875e-001
3.830096e+003,1.267058e-001
3.833954e+003,1.207432e-001
3.837811e+003,1.254539e-001
3.841668e+003,1.262985e-001
3.845525e+003,1.230208e-001
3.849382e+003,1.242409e-001
3.853239e+003,1.295419e-001
3.857096e+003,1.296265e-001
3.860953e+003,1.283529e-001
3.864810e+003,1.298470e-001
3.868667e+003,1.314827e-001
3.872524e+003,1.290213e-001
3.876382e+003,1.254095e-001
3.880239e+003,1.277083e-001
3.884096e+003,1.298226e-001
3.887953e+003,1.279790e-001
3.891810e+003,1.252295e-001
3.895667e+003,1.197102e-001
3.899524e+003,1.187538e-001
3.903381e+003,1.241547e-001
3.907238e+003,1.215238e-001
3.911095e+003,1.191784e-001
3.914953e+003,1.176660e-001
3.918810e+003,1.144996e-001
3.922667e+003,1.115018e-001
3.926524e+003,1.151683e-001
3.930381e+003,1.186209e-001
3.934238e+003,1.230816e-001
3.938095e+003,1.202827e-001
3.941952e+003,1.147602e-001
3.945809e+003,1.134246e-001
3.949667e+003,1.107379e-001
3.953523e+003,1.126722e-001
3.957381e+003,1.154654e-001
3.961238e+003,1.137859e-001
3.965095e+003,1.153670e-001
3.968952e+003,1.170771e-001
3.972809e+003,1.117102e-001
3.976666e+003,1.099154e-001
3.980523e+003,1.170759e-001
3.984380e+003,1.196964e-001
3.988237e+003,1.166909e-001
3.992094e+003,1.140006e-001
3.995952e+003,1.128149e-001
3.999809e+003,1.119118e-001
4.003666e+003,1.172378e-001
4.007523e+003,1.211048e-001
4.011380e+003,1.210399e-001
4.015237e+003,1.224749e-001
4.019094e+003,1.202994e-001
4.022951e+003,1.159191e-001
4.026808e+003,1.192331e-001
4.030666e+003,1.197363e-001
4.034522e+003,1.192418e-001
4.038380e+003,1.218634e-001
4.042237e+003,1.211177e-001
4.046094e+003,1.159005e-001
4.049951e+003,1.124336e-001
4.053808e+003,1.106060e-001
4.057665e+003,1.106841e-001
4.061522e+003,1.141507e-001
4.065379e+003,1.110276e-001
4.069236e+003,1.078085e-001
4.073094e+003,1.092746e-001
4.076951e+003,1.107101e-001
4.080808e+003,1.079160e-001
4.084665e+003,1.096558e-001
4.088522e+003,1.117931e-001
4.092379e+003,1.056527e-001
4.096236e+003,1.041939e-001
4.100093e+003,1.035024e-001
4.103950e+003,1.005327e-001
4.107808e+003,1.012904e-001
4.111665e+003,1.046303e-001
4.115521e+003,1.036069e-001
4.119379e+003,1.012148e-001
4.123236e+003,1.009659e-001
4.127093e+003,9.850108e-002
4.130950e+003,9.211037e-002
4.134807e+003,9.278411e-002
4.138664e+003,9.758274e-002
4.142521e+003,1.013739e-001
4.146378e+003,1.049774e-001
4.150235e+003,1.070834e-001
4.154093e+003,1.060024e-001
4.157950e+003,1.060083e-001
4.161807e+003,1.065332e-001
4.165664e+003,1.054065e-001
4.169521e+003,1.076465e-001
4.173378e+003,1.066307e-001
4.177235e+003,1.049188e-001
4.181092e+003,1.075919e-001
4.184949e+003,1.093697e-001
4.188807e+003,1.080791e-001
4.192664e+003,1.075359e-001
4.196521e+003,1.116836e-001
4.200378e+003,1.088478e-001
4.204235e+003,9.978123e-002
4.208092e+003,1.024836e-001
4.211949e+003,1.041089e-001
4.215806e+003,1.087826e-001
4.219663e+003,1.076022e-001
4.223521e+003,1.015562e-001
4.227377e+003,9.925647e-002
4.231234e+003,1.017227e-001
4.235092e+003,1.072866e-001
4.238949e+003,1.043010e-001
4.242806e+003,9.719850e-002
4.246663e+003,9.137036e-002
4.250520e+003,8.910067e-002
4.254377e+003,8.996838e-002
4.258234e+003,8.894245e-002
4.262091e+003,9.135895e-002
4.265948e+003,9.730934e-002
4.269806e+003,9.288739e-002
4.273663e+003,9.260732e-002
4.277520e+003,1.006336e-001
4.281377e+003,9.585197e-002
4.285234e+003,8.901431e-002
4.289091e+003,8.811621e-002
4.292948e+003,9.076316e-002
4.296805e+003,9.075630e-002
4.300662e+003,8.788338e-002
4.304520e+003,8.506741e-002
4.308376e+003,8.906626e-002
4.312233e+003,9.512597e-002
4.316091e+003,9.549629e-002
4.319948e+003,9.839085e-002
4.323805e+003,9.518962e-002
4.327662e+003,9.427179e-002
4.331519e+003,9.880747e-002
4.335376e+003,9.965496e-002
4.339233e+003,1.011854e-001
4.343090e+003,9.844255e-002
4.346947e+003,9.083328e-002
4.350805e+003,9.209030e-002
4.354662e+003,9.425849e-002
4.358519e+003,9.752641e-002
4.362376e+003,1.023260e-001
4.366233e+003,1.030243e-001
4.370090e+003,1.025087e-001
4.373947e+003,1.019899e-001
4.377804e+003,1.058832e-001
4.381661e+003,1.052098e-001
4.385519e+003,1.042770e-001
4.389375e+003,1.065343e-001
4.393232e+003,1.023418e-001
4.397090e+003,9.252699e-002
4.400947e+003,9.233146e-002
4.404804e+003,1.025399e-001
4.408661e+003,9.960216e-002
4.412518e+003,9.309950e-002
4.416375e+003,9.753665e-002
4.420232e+003,9.374275e-002
4.424089e+003,8.395908e-002
4.427946e+003,8.655890e-002
4.431804e+003,9.243110e-002
4.435661e+003,9.074630e-002
4.439518e+003,8.522043e-002
4.443375e+003,8.588162e-002
4.447232e+003,8.956442e-002
4.451089e+003,9.362666e-002
4.454946e+003,9.622716e-002
4.458803e+003,9.516975e-002
4.462660e+003,9.629370e-002
4.466518e+003,9.483231e-002
4.470375e+003,9.732447e-002
4.474231e+003,9.255180e-002
4.478089e+003,8.860194e-002
4.481946e+003,9.230154e-002
4.485803e+003,8.834420e-002
4.489660e+003,8.950102e-002
4.493517e+003,9.521760e-002
4.497375e+003,9.762140e-002
4.501231e+003,9.713306e-002
4.505088e+003,9.161901e-002
4.508946e+003,9.252695e-002
4.512803e+003,9.331851e-002
4.516660e+003,9.211295e-002
4.520517e+003,8.616404e-002
4.524374e+003,8.611229e-002
4.528231e+003,9.030939e-002
4.532088e+003,9.588102e-002
4.535945e+003,9.914339e-002
4.539802e+003,9.341653e-002
4.543660e+003,9.484430e-002
4.547517e+003,9.785005e-002
4.551374e+003,9.513501e-002
4.555231e+003,9.034818e-002
4.559088e+003,8.573196e-002
4.562945e+003,8.631644e-002
4.566802e+003,9.036054e-002
4.570659e+003,9.507710e-002
4.574516e+003,9.020770e-002
4.578374e+003,7.758681e-002
4.582230e+003,7.539261e-002
4.586087e+003,8.497731e-002
4.589945e+003,9.511847e-002
4.593802e+003,9.377602e-002
4.597659e+003,8.705796e-002
4.601516e+003,9.087008e-002
4.605373e+003,9.231216e-002
4.609230e+003,8.409240e-002
4.613087e+003,8.389609e-002
4.616944e+003,8.513557e-002
4.620801e+003,8.255309e-002
4.624659e+003,8.379682e-002
4.628516e+003,7.743792e-002
4.632373e+003,7.332139e-002
4.636230e+003,8.466433e-002
4.640087e+003,8.553858e-002
4.643944e+003,8.404242e-002
4.647801e+003,8.661694e-002
4.651658e+003,7.846831e-002
4.655515e+003,7.805646e-002
4.659373e+003,8.678523e-002
4.663229e+003,8.421092e-002
4.667086e+003,8.217146e-002
4.670944e+003,8.426861e-002
4.674801e+003,7.911146e-002
4.678658e+003,8.009765e-002
4.682515e+003,8.521645e-002
4.686372e+003,9.061442e-002
4.690229e+003,8.701869e-002
4.694086e+003,8.586228e-002
4.697943e+003,9.105057e-002
4.701800e+003,9.066639e-002
4.705658e+003,8.469424e-002
4.709515e+003,8.762533e-002
4.713372e+003,9.885453e-002
4.717229e+003,9.712697e-002
4.721086e+003,8.697582e-002
4.724943e+003,8.301783e-002
4.728800e+003,8.267263e-002
4.732657e+003,8.211578e-002
4.736514e+003,8.800156e-002
4.740372e+003,9.239376e-002
4.744229e+003,9.080073e-002
4.748085e+003,8.674789e-002
4.751943e+003,8.188754e-002
4.755800e+003,8.267720e-002
4.759657e+003,8.589135e-002
4.763514e+003,9.107730e-002
4.767371e+003,8.728581e-002
4.771228e+003,8.327785e-002
4.775085e+003,7.976930e-002
4.778942e+003,8.271023e-002
4.782799e+003,8.822231e-002
4.786657e+003,9.552730e-002
4.790514e+003,9.373798e-002
4.794371e+003,8.496626e-002
4.798228e+003,8.290605e-002
4.802085e+003,7.954942e-002
4.805942e+003,8.227160e-002
4.809799e+003,9.309064e-002
4.813656e+003,9.187601e-002
4.817513e+003,8.670824e-002
4.821371e+003,8.170166e-002
4.825228e+003,7.982134e-002
4.829084e+003,8.491820e-002
4.832942e+003,8.950131e-002
4.836799e+003,8.587553e-002
4.840656e+003,8.621516e-002
4.844513e+003,8.749396e-002
4.848370e+003,8.224065e-002
4.852227e+003,8.424375e-002
4.856084e+003,8.964510e-002
4.859941e+003,8.464355e-002
4.863798e+003,8.397645e-002
4.867656e+003,8.408525e-002
4.871513e+003,7.809644e-002
4.875370e+003,7.921817e-002
4.879227e+003,8.871613e-002
4.883084e+003,8.830108e-002
4.886941e+003,9.232531e-002
4.890798e+003,9.334829e-002
4.894655e+003,9.224528e-002
4.898512e+003,9.424216e-002
4.902370e+003,8.898247e-002
4.906227e+003,8.417553e-002
4.910083e+003,8.620974e-002
4.913941e+003,8.956556e-002
4.917798e+003,9.027835e-002
4.921655e+003,9.102688e-002
4.925512e+003,8.488090e-002
4.929369e+003,8.415449e-002
4.933226e+003,8.155107e-002
4.937083e+003,7.795634e-002
4.940940e+003,7.600904e-002
4.944797e+003,7.576600e-002
4.948655e+003,7.997853e-002
4.952512e+003,7.459018e-002
4.956369e+003,7.375209e-002
4.960226e+003,8.172301e-002
4.964083e+003,7.963637e-002
4.967940e+003,8.539694e-002
4.971797e+003,8.576184e-002
4.975654e+003,8.584193e-002
4.979511e+003,8.289029e-002
4.983369e+003,7.832158e-002
4.987226e+003,8.177429e-002
4.991083e+003,8.363120e-002
4.994940e+003,8.828427e-002
4.998797e+003,9.327354e-002
5.002654e+003,9.004607e-002
5.006511e+003,9.181689e-002
5.010368e+003,9.746569e-002
5.014225e+003,9.537581e-002
5.018083e+003,9.101499e-002
5.021939e+003,8.534818e-002
5.025796e+003,8.473738e-002
5.029654e+003,8.410595e-002
5.033511e+003,8.071445e-002
5.037368e+003,7.904269e-002
5.041225e+003,8.524076e-002
5.045082e+003,1.008151e-001
5.048939e+003,9.769907e-002
5.052796e+003,8.877634e-002
5.056653e+003,9.093209e-002
5.060510e+003,9.633887e-002
5.064368e+003,9.617556e-002
5.068225e+003,9.204983e-002
5.072082e+003,8.740594e-002
5.075939e+003,9.510870e-002
5.079796e+003,1.104520e-001
5.083653e+003,1.131596e-001
5.087510e+003,1.029312e-001
5.091367e+003,9.313605e-002
5.095224e+003,8.908765e-002
5.099082e+003,8.139742e-002
5.102938e+003,7.670236e-002
5.106795e+003,7.704660e-002
5.110653e+003,8.468293e-002
5.114510e+003,9.000546e-002
5.118367e+003,9.123736e-002
5.122224e+003,8.891366e-002
5.126081e+003,8.679458e-002
5.129938e+003,8.443153e-002
5.133795e+003,8.143935e-002
5.137652e+003,7.661412e-002
5.141509e+003,8.088043e-002
5.145367e+003,9.086849e-002
5.149224e+003,1.016053e-001
5.153081e+003,1.018066e-001
5.156938e+003,9.089108e-002
5.160795e+003,8.625105e-002
5.164652e+003,8.626192e-002
5.168509e+003,8.755804e-002
5.172366e+003,9.107910e-002
5.176223e+003,9.218828e-002
5.180081e+003,9.534085e-002
5.183938e+003,9.042770e-002
5.187794e+003,8.916414e-002
5.191652e+003,9.405074e-002
5.195509e+003,9.178513e-002
5.199366e+003,9.832353e-002
5.203223e+003,1.089631e-001
5.207080e+003,1.129691e-001
5.210937e+003,1.031450e-001
5.214794e+003,9.047512e-002
5.218651e+003,1.024246e-001
5.222508e+003,1.076632e-001
5.226366e+003,9.681095e-002
5.230223e+003,8.837625e-002
5.234080e+003,8.079414e-002
5.237937e+003,8.024343e-002
5.241794e+003,8.673150e-002
5.245651e+003,8.854453e-002
5.249508e+003,9.181967e-002
5.253365e+003,9.377334e-002
5.257222e+003,9.821326e-002
5.261080e+003,9.086281e-002
5.264937e+003,7.217909e-002
5.268793e+003,7.188610e-002
5.272651e+003,7.793073e-002
5.276508e+003,7.787499e-002
5.280365e+003,7.786655e-002
5.284222e+003,7.795087e-002
5.288079e+003,7.594901e-002
5.291936e+003,7.828587e-002
5.295793e+003,8.546834e-002
5.299650e+003,8.690203e-002
5.303507e+003,8.477709e-002
5.307365e+003,8.352778e-002
5.311222e+003,8.538230e-002
5.315079e+003,9.153911e-002
5.318936e+003,9.194786e-002
5.322793e+003,8.347417e-002
5.326650e+003,7.422221e-002
5.330507e+003,7.582553e-002
5.334364e+003,8.009215e-002
5.338221e+003,8.562315e-002
5.342079e+003,9.698921e-002
5.345936e+003,1.042639e-001
5.349792e+003,9.784598e-002
5.353650e+003,9.004582e-002
5.357507e+003,8.605230e-002
5.361364e+003,8.289799e-002
5.365221e+003,8.889037e-002
5.369078e+003,9.111380e-002
5.372935e+003,8.977371e-002
5.376792e+003,9.667950e-002
5.380649e+003,1.013257e-001
5.384506e+003,1.070099e-001
5.388364e+003,1.076826e-001
5.392221e+003,9.820629e-002
5.396078e+003,8.731060e-002
5.399935e+003,8.540953e-002
5.403792e+003,8.766397e-002
5.407649e+003,8.915836e-002
5.411506e+003,9.115295e-002
5.415363e+003,9.390742e-002
5.419220e+003,9.790306e-002
5.423078e+003,9.481685e-002
5.426935e+003,9.277402e-002
5.430792e+003,9.241274e-002
5.434649e+003,8.978397e-002
5.438506e+003,9.195568e-002
5.442363e+003,9.931120e-002
5.446220e+003,9.806806e-002
5.450077e+003,9.314989e-002
5.453934e+003,8.926143e-002
5.457792e+003,8.169974e-002
5.461648e+003,6.896737e-002
5.465505e+003,6.711381e-002
5.469363e+003,7.692546e-002
5.473220e+003,8.812493e-002
5.477077e+003,9.365136e-002
5.480934e+003,9.316561e-002
5.484791e+003,9.412691e-002
5.488648e+003,9.224799e-002
5.492505e+003,9.304486e-002
5.496362e+003,9.287199e-002
5.500219e+003,9.311847e-002
5.504077e+003,9.547351e-002
5.507934e+003,9.136333e-002
5.511791e+003,8.258687e-002
5.515648e+003,8.531636e-002
5.519505e+003,9.528493e-002
5.523362e+003,9.858352e-002
5.527219e+003,1.093574e-001
5.531076e+003,1.078978e-001
5.534933e+003,8.863372e-002
5.538791e+003,8.452407e-002
5.542647e+003,9.799074e-002
5.546504e+003,1.039915e-001
5.550362e+003,1.022215e-001
5.554219e+003,9.115478e-002
5.558076e+003,8.428201e-002
5.561933e+003,8.085944e-002
5.565790e+003,8.570347e-002
5.569647e+003,9.873755e-002
5.573504e+003,1.123487e-001
5.577361e+003,1.115336e-001
5.581218e+003,1.073735e-001
5.585076e+003,1.112533e-001
5.588933e+003,1.095406e-001
5.592790e+003,1.067787e-001
5.596647e+003,9.897473e-002
5.600504e+003,9.104162e-002
5.604361e+003,8.490015e-002
5.608218e+003,8.517008e-002
5.612075e+003,9.196760e-002
5.615932e+003,1.031080e-001
5.619790e+003,1.085317e-001
5.623646e+003,9.936346e-002
5.627503e+003,8.523491e-002
5.631361e+003,9.388841e-002
5.635218e+003,1.119829e-001
5.639075e+003,9.433462e-002
5.642932e+003,8.594676e-002
5.646789e+003,9.516838e-002
5.650646e+003,1.095907e-001
5.654503e+003,1.006508e-001
5.658360e+003,9.147690e-002
5.662217e+003,9.882524e-002
5.666075e+003,9.307098e-002
5.669932e+003,8.027963e-002
5.673789e+003,9.234695e-002
5.677646e+003,1.024019e-001
5.681503e+003,1.036821e-001
5.685360e+003,1.021888e-001
5.689217e+003,9.580945e-002
5.693074e+003,9.864951e-002
5.696931e+003,9.280893e-002
5.700789e+003,9.066337e-002
5.704646e+003,9.099096e-002
5.708502e+003,9.483416e-002
5.712360e+003,9.887770e-002
5.716217e+003,9.209837e-002
5.720074e+003,9.881188e-002
5.723931e+003,1.081332e-001
5.727788e+003,1.183399e-001
5.731645e+003,1.133730e-001
5.735502e+003,1.087151e-001
5.739359e+003,1.040449e-001
5.743216e+003,9.673432e-002
5.747074e+003,9.340750e-002
5.750931e+003,1.032771e-001
5.754788e+003,9.900802e-002
5.758645e+003,9.111837e-002
5.762502e+003,9.590564e-002
5.766359e+003,1.090523e-001
5.770216e+003,1.139618e-001
5.774073e+003,1.096914e-001
5.777930e+003,1.170109e-001
5.781788e+003,1.220882e-001
5.785645e+003,1.106728e-001
5.789501e+003,9.487192e-002
5.793359e+003,8.600556e-002
5.797216e+003,8.404737e-002
5.801073e+003,8.858707e-002
5.804930e+003,9.790937e-002
5.808787e+003,9.824213e-002
5.812644e+003,9.058932e-002
5.816501e+003,9.316085e-002
5.820358e+003,9.486730e-002
5.824215e+003,9.108821e-002
5.828073e+003,9.338178e-002
5.831930e+003,1.062149e-001
5.835787e+003,1.158538e-001
5.839644e+003,1.087774e-001
5.843501e+003,1.029587e-001
5.847358e+003,1.053749e-001
5.851215e+003,1.116047e-001
5.855072e+003,1.003153e-001
5.858929e+003,9.181988e-002
5.862787e+003,1.023859e-001
5.866644e+003,1.056867e-001
5.870500e+003,1.006128e-001
5.874358e+003,1.012645e-001
5.878215e+003,1.064267e-001
5.882072e+003,1.075135e-001
5.885929e+003,9.790251e-002
5.889786e+003,1.068149e-001
5.893643e+003,1.239902e-001
5.897500e+003,1.190960e-001
5.901357e+003,1.163706e-001
5.905214e+003,1.136104e-001
5.909072e+003,1.075166e-001
5.912929e+003,1.075653e-001
5.916786e+003,1.005536e-001
5.920643e+003,1.016651e-001
5.924500e+003,1.086556e-001
5.928357e+003,1.122084e-001
5.932214e+003,1.141210e-001
5.936071e+003,1.058108e-001
5.939928e+003,1.001916e-001
5.943786e+003,1.017744e-001
5.947643e+003,9.757718e-002
5.951500e+003,1.047044e-001
5.955357e+003,1.173697e-001
5.959214e+003,1.151672e-001
5.963071e+003,1.057269e-001
5.966928e+003,1.027014e-001
5.970785e+003,1.052887e-001
5.974642e+003,9.492164e-002
5.978500e+003,1.051242e-001
5.982356e+003,1.125831e-001
5.986213e+003,1.095921e-001
5.990071e+003,1.088795e-001
5.993928e+003,1.133166e-001
5.997785e+003,1.173586e-001
6.001642e+003,1.045878e-001
6.005499e+003,1.008476e-001
6.009356e+003,1.049104e-001
6.013213e+003,1.113703e-001
6.017070e+003,1.214956e-001
6.020927e+003,1.268825e-001
6.024785e+003,1.218971e-001
6.028642e+003,1.310649e-001
6.032499e+003,1.303908e-001
6.036356e+003,1.186492e-001
6.040213e+003,1.150455e-001
6.044070e+003,1.223457e-001
6.047927e+003,1.260734e-001
6.051784e+003,1.303847e-001
6.055641e+003,1.280851e-001
6.059499e+003,1.127781e-001
6.063355e+003,1.097079e-001
6.067212e+003,1.091242e-001
6.071070e+003,1.156479e-001
6.074927e+003,1.222029e-001
6.078784e+003,1.219428e-001
6.082641e+003,1.113474e-001
6.086498e+003,1.028489e-001
6.090355e+003,1.063651e-001
6.094212e+003,1.052803e-001
6.098069e+003,9.226138e-002
6.101926e+003,9.767886e-002
6.105784e+003,1.094242e-001
6.109641e+003,1.227471e-001
6.113498e+003,1.479450e-001
6.117355e+003,1.403492e-001
6.121212e+003,1.174701e-001
6.125069e+003,1.160280e-001
6.128926e+003,1.254740e-001
6.132783e+003,1.297295e-001
6.136640e+003,1.289107e-001
6.140498e+003,1.264667e-001
6.144354e+003,1.030691e-001
6.148211e+003,9.823977e-002
6.152069e+003,1.182743e-001
6.155926e+003,1.200584e-001
6.159783e+003,1.090978e-001
6.163640e+003,1.130988e-001
6.167497e+003,1.264739e-001
6.171354e+003,1.359473e-001
6.175211e+003,1.418568e-001
6.179068e+003,1.219723e-001
6.182925e+003,1.040616e-001
6.186783e+003,1.135194e-001
6.190640e+003,1.110106e-001
6.194497e+003,1.122629e-001
6.198354e+003,1.377616e-001
6.202211e+003,1.592411e-001
6.206068e+003,1.255142e-001
6.209925e+003,1.188547e-001
6.213782e+003,1.308025e-001
6.217639e+003,1.349282e-001
6.221497e+003,1.363217e-001
6.225354e+003,1.315009e-001
6.229210e+003,1.417495e-001
6.233068e+003,1.617228e-001
6.236925e+003,1.506644e-001
6.240782e+003,1.310773e-001
6.244639e+003,1.042277e-001
6.248496e+003,9.548283e-002
6.252353e+003,1.066692e-001
6.256210e+003,1.088256e-001
6.260067e+003,1.213163e-001
6.263924e+003,1.349412e-001
6.267782e+003,1.137089e-001
6.271639e+003,1.003635e-001
6.275496e+003,1.141665e-001
6.279353e+003,1.342187e-001
6.283210e+003,1.307735e-001
6.287067e+003,1.097026e-001
6.290924e+003,1.081891e-001
6.294781e+003,1.305928e-001
6.298638e+003,1.444233e-001
6.302496e+003,1.398011e-001
6.306353e+003,1.181724e-001
6.310209e+003,1.039850e-001
6.314067e+003,1.236436e-001
6.317924e+003,1.521399e-001
6.321781e+003,1.514287e-001
6.325638e+003,1.286823e-001
6.329495e+003,1.370710e-001
6.333352e+003,1.539112e-001
6.337209e+003,1.399307e-001
6.341066e+003,1.334697e-001
6.344923e+003,1.157097e-001
6.348780e+003,1.273825e-001
6.352638e+003,1.578592e-001
6.356495e+003,1.494853e-001
6.360352e+003,1.276781e-001
6.364209e+003,1.271171e-001
6.368066e+003,1.369436e-001
6.371923e+003,1.358550e-001
6.375780e+003,1.362032e-001
6.379637e+003,1.334272e-001
6.383494e+003,1.215807e-001
6.387352e+003,1.141088e-001
6.391208e+003,1.134532e-001
6.395065e+003,1.269733e-001
6.398923e+003,1.305820e-001
6.402780e+003,1.447373e-001
6.406637e+003,1.336615e-001
6.410494e+003,1.235901e-001
6.414351e+003,1.266012e-001
6.418208e+003,1.404673e-001
6.422065e+003,1.432636e-001
6.425922e+003,1.126751e-001
6.429779e+003,1.056703e-001
6.433637e+003,1.328188e-001
6.437494e+003,1.577962e-001
6.441351e+003,1.437467e-001
6.445208e+003,1.313522e-001
6.449065e+003,1.433449e-001
6.452922e+003,1.300082e-001
6.456779e+003,1.048226e-001
6.460636e+003,1.064709e-001
6.464493e+003,1.227142e-001
6.468351e+003,1.377941e-001
6.472208e+003,1.349072e-001
6.476064e+003,1.251847e-001
6.479922e+003,1.488730e-001
6.483779e+003,1.635432e-001
6.487636e+003,1.536236e-001
6.491493e+003,1.396719e-001
6.495350e+003,1.306021e-001
6.499207e+003,1.162281e-001
6.503064e+003,1.371868e-001
6.506921e+003,1.579971e-001
6.510778e+003,1.305717e-001
6.514636e+003,1.201049e-001
6.518493e+003,1.304803e-001
6.522350e+003,1.449492e-001
6.526207e+003,1.546998e-001
6.530064e+003,1.444383e-001
6.533921e+003,1.293948e-001
6.537778e+003,1.370948e-001
6.541635e+003,1.614238e-001
6.545492e+003,1.995760e-001
6.549350e+003,2.182955e-001
6.553207e+003,2.047117e-001
6.557063e+003,1.692318e-001
6.560921e+003,1.597834e-001
6.564778e+003,1.677130e-001
6.568635e+003,1.431068e-001
6.572492e+003,1.283435e-001
6.576349e+003,1.281375e-001
6.580206e+003,1.473076e-001
6.584063e+003,1.508725e-001
6.587920e+003,1.194285e-001
6.591777e+003,1.038017e-001
6.595635e+003,1.140506e-001
6.599492e+003,1.408900e-001
6.603349e+003,1.495878e-001
6.607206e+003,1.400230e-001
6.611063e+003,1.430079e-001
6.614920e+003,1.500188e-001
6.618777e+003,1.243293e-001
6.622634e+003,1.037995e-001
6.626491e+003,1.101380e-001
6.630349e+003,1.317847e-001
6.634206e+003,1.441507e-001
6.638063e+003,1.293033e-001
6.641920e+003,1.165265e-001
6.645777e+003,1.340361e-001
6.649634e+003,1.716968e-001
6.653491e+003,1.914600e-001
6.657348e+003,1.727116e-001
6.661205e+003,1.478298e-001
6.665063e+003,1.349781e-001
6.668919e+003,1.639399e-001
6.672776e+003,1.894430e-001
6.676634e+003,1.854887e-001
6.680491e+003,1.639558e-001
6.684348e+003,1.415069e-001
6.688205e+003,1.707541e-001
6.692062e+003,1.889682e-001
6.695919e+003,1.669737e-001
6.699776e+003,1.306312e-001
6.703633e+003,1.319643e-001
6.707490e+003,1.716285e-001
6.711348e+003,1.958849e-001
6.715205e+003,1.689138e-001
6.719062e+003,1.604787e-001
6.722919e+003,1.799859e-001
6.726776e+003,1.823372e-001
6.730633e+003,1.775152e-001
6.734490e+003,1.489266e-001
6.738347e+003,1.375516e-001
6.742204e+003,1.652908e-001
6.746062e+003,1.763958e-001
6.749918e+003,1.639941e-001
6.753775e+003,1.561507e-001
6.757633e+003,1.592771e-001
6.761490e+003,1.269436e-001
6.765347e+003,9.664784e-002
6.769204e+003,1.138960e-001
6.773061e+003,1.218781e-001
6.776918e+003,1.341847e-001
6.780775e+003,1.386314e-001
6.784632e+003,1.472842e-001
6.788489e+003,1.166304e-001
6.792347e+003,1.234306e-001
6.796204e+003,1.576163e-001
6.800061e+003,1.611479e-001
6.803918e+003,1.297086e-001
6.807775e+003,1.580106e-001
6.811632e+003,1.793566e-001
6.815489e+003,1.401687e-001
6.819346e+003,1.186000e-001
6.823203e+003,1.463990e-001
6.827061e+003,1.615774e-001
6.830917e+003,1.511021e-001
6.834774e+003,1.462600e-001
6.838632e+003,1.488014e-001
6.842489e+003,1.790508e-001
6.846346e+003,1.856162e-001
6.850203e+003,1.598131e-001
6.854060e+003,1.601217e-001
6.857917e+003,1.518251e-001
6.861774e+003,1.710134e-001
6.865631e+003,1.590668e-001
6.869488e+003,1.071639e-001
6.873346e+003,1.257769e-001
6.877203e+003,1.721104e-001
6.881060e+003,1.592546e-001
6.884917e+003,1.618664e-001
6.888774e+003,1.667264e-001
6.892631e+003,1.559958e-001
6.896488e+003,1.762702e-001
6.900345e+003,1.796200e-001
6.904202e+003,1.784943e-001
6.908060e+003,1.967031e-001
6.911917e+003,1.956045e-001
6.915773e+003,1.972554e-001
6.919631e+003,1.855006e-001
6.923488e+003,1.437677e-001
6.927345e+003,1.395651e-001
6.931202e+003,1.673907e-001
6.935059e+003,1.855798e-001
6.938916e+003,1.631540e-001
6.942773e+003,1.402792e-001
6.946630e+003,1.489349e-001
6.950487e+003,1.304963e-001
6.954345e+003,1.451246e-001
6.958202e+003,1.721327e-001
6.962059e+003,1.721278e-001
6.965916e+003,1.706505e-001
6.969773e+003,1.425580e-001
6.973630e+003,1.105541e-001
6.977487e+003,1.221747e-001
6.981344e+003,1.497425e-001
6.985201e+003,1.898361e-001
6.989059e+003,1.972359e-001
6.992916e+003,1.489091e-001
6.996772e+003,1.117481e-001
7.000630e+003,1.420217e-001
7.004487e+003,1.619325e-001
7.008344e+003,1.500302e-001
7.012201e+003,1.367952e-001
7.016058e+003,1.683056e-001
7.019915e+003,1.885401e-001
7.023772e+003,1.652520e-001
7.027629e+003,1.423566e-001
7.031486e+003,1.326665e-001
7.035344e+003,1.559174e-001
7.039201e+003,1.568172e-001
7.043058e+003,1.434694e-001
7.046915e+003,1.514228e-001
7.050772e+003,1.451626e-001
7.054629e+003,1.392626e-001
7.058486e+003,1.273933e-001
7.062343e+003,8.438505e-002
7.066200e+003,1.282207e-001
7.070058e+003,1.870289e-001
7.073915e+003,1.509120e-001
7.077771e+003,1.631241e-001
7.081629e+003,1.813681e-001
7.085486e+003,1.554158e-001
7.089343e+003,1.690766e-001
7.093200e+003,1.995527e-001
7.097057e+003,2.092529e-001
7.100914e+003,1.998380e-001
7.104771e+003,1.746634e-001
7.108628e+003,1.481937e-001
7.112485e+003,1.866980e-001
7.116343e+003,2.211094e-001
7.120200e+003,1.757674e-001
7.124057e+003,1.497748e-001
7.127914e+003,1.501734e-001
7.131771e+003,1.613212e-001
7.135628e+003,1.679328e-001
7.139485e+003,1.409849e-001
7.143342e+003,1.138768e-001
7.147199e+003,1.640990e-001
7.151057e+003,2.130365e-001
7.154914e+003,2.231125e-001
7.158771e+003,2.038847e-001
7.162628e+003,1.714875e-001
7.166485e+003,1.280394e-001
7.170342e+003,1.161616e-001
7.174199e+003,1.421057e-001
7.178056e+003,1.499736e-001
7.181913e+003,1.519997e-001
7.185771e+003,1.916787e-001
7.189627e+003,1.679012e-001
7.193484e+003,1.483572e-001
7.197342e+003,1.718571e-001
7.201199e+003,1.889547e-001
7.205056e+003,2.181958e-001
7.208913e+003,2.490145e-001
7.212770e+003,2.701206e-001
7.216627e+003,2.924683e-001
7.220484e+003,2.755924e-001
7.224341e+003,2.190085e-001
7.228198e+003,2.280467e-001
7.232056e+003,1.847224e-001
7.235913e+003,1.566186e-001
7.239770e+003,1.964392e-001
7.243627e+003,1.764825e-001
7.247484e+003,1.735623e-001
7.251341e+003,1.873840e-001
7.255198e+003,1.794947e-001
7.259055e+003,1.847543e-001
7.262912e+003,1.814740e-001
7.266770e+003,1.658973e-001
7.270626e+003,1.487551e-001
7.274483e+003,1.620235e-001
7.278341e+003,1.906534e-001
7.282198e+003,2.021597e-001
7.286055e+003,2.318582e-001
7.289912e+003,2.107654e-001
7.293769e+003,1.990627e-001
7.297626e+003,1.655867e-001
7.301483e+003,1.769805e-001
7.305340e+003,2.007060e-001
7.309197e+003,1.836286e-001
7.313055e+003,1.447377e-001
7.316912e+003,1.472065e-001
7.320769e+003,1.916237e-001
7.324626e+003,2.743728e-001
7.328483e+003,2.562987e-001
7.332340e+003,1.767067e-001
7.336197e+003,1.643935e-001
7.340054e+003,1.690640e-001
7.343911e+003,1.192954e-001
7.347769e+003,1.273728e-001
7.351625e+003,1.669538e-001
7.355482e+003,1.757630e-001
7.359340e+003,1.490392e-001
7.363197e+003,8.665630e-002
7.367054e+003,9.235208e-002
7.370911e+003,1.128790e-001
7.374768e+003,1.512035e-001
7.378625e+003,1.655268e-001
7.382482e+003,1.846313e-001
7.386339e+003,1.480552e-001
7.390196e+003,8.475462e-002
7.394054e+003,9.398944e-002
7.397911e+003,1.447899e-001
7.401768e+003,1.628092e-001
7.405625e+003,1.587981e-001
7.409482e+003,1.408332e-001
7.413339e+003,1.103563e-001
7.417196e+003,9.930769e-002
7.421053e+003,1.680759e-001
7.424910e+003,2.248449e-001
7.428768e+003,1.906327e-001
7.432625e+003,1.107745e-001
7.436481e+003,1.187028e-001
7.440339e+003,1.201477e-001
7.444196e+003,9.321485e-002
7.448053e+003,9.849684e-002
7.451910e+003,1.162786e-001
7.455767e+003,1.342709e-001
7.459624e+003,1.433632e-001
7.463481e+003,7.466809e-002
7.467338e+003,2.281570e-002
7.471195e+003,5.996782e-002
7.475053e+003,1.166621e-001
7.478910e+003,1.692018e-001
7.482767e+003,1.967982e-001
7.486624e+003,1.642041e-001
7.490481e+003,1.152029e-001
7.494338e+003,1.121103e-001
7.498195e+003,1.352941e-001
7.502052e+003,1.651640e-001
7.505909e+003,1.689754e-001
7.509767e+003,1.405775e-001
7.513624e+003,1.365101e-001
7.517480e+003,1.812957e-001
7.521338e+003,2.258943e-001
7.525195e+003,1.852381e-001
7.529052e+003,1.503220e-001
7.532909e+003,1.478650e-001
7.536766e+003,1.181658e-001
7.540623e+003,6.684610e-002
7.544480e+003,1.091544e-001
7.548337e+003,1.932956e-001
7.552194e+003,1.973608e-001
7.556052e+003,1.487733e-001
7.559909e+003,1.040978e-001
7.563766e+003,9.604942e-002
7.567623e+003,1.532473e-001
7.571480e+003,2.007740e-001
7.575337e+003,1.569991e-001
7.579194e+003,8.752225e-002
7.583051e+003,8.216321e-002
7.586908e+003,1.008324e-001
7.590766e+003,1.693392e-001
7.594623e+003,2.461107e-001
7.598479e+003,2.008436e-001
7.602337e+003,1.804258e-001
7.606194e+003,1.697338e-001
7.610051e+003,1.963294e-001
7.613908e+003,2.404440e-001
7.617765e+003,1.696371e-001
7.621622e+003,5.124630e-002
7.625479e+003,5.325831e-002
7.629336e+003,1.475803e-001
7.633193e+003,1.550492e-001
7.637051e+003,1.434191e-001
7.640908e+003,1.363617e-001
7.644765e+003,1.278895e-001
7.648622e+003,1.083628e-001
7.652479e+003,7.741959e-002
7.656336e+003,1.422475e-001
7.660193e+003,2.012954e-001
7.664050e+003,2.956595e-001
7.667907e+003,3.340724e-001
7.671765e+003,2.629561e-001
7.675622e+003,1.912486e-001
7.679479e+003,2.247785e-001
7.683336e+003,2.202251e-001
7.687193e+003,1.326985e-001
7.691050e+003,1.525172e-001
7.694907e+003,1.746162e-001
7.698764e+003,8.882394e-002
7.702621e+003,7.960401e-003
7.706479e+003,4.869483e-002
7.710335e+003,8.362260e-002
7.714192e+003,2.247572e-001
7.718050e+003,3.621471e-001
7.721907e+003,2.741945e-001
7.725764e+003,1.304758e-001
7.729621e+003,1.211514e-001
7.733478e+003,1.819531e-001
7.737335e+003,1.787429e-001
7.741192e+003,1.819647e-001
7.745049e+003,1.959960e-001
7.748906e+003,9.243225e-002
7.752764e+003,-5.966378e-002
7.756621e+003,-5.776539e-002
7.760478e+003,3.441081e-003
7.764335e+003,6.184722e-002
7.768192e+003,1.116205e-001
7.772049e+003,2.167586e-001
7.775906e+003,2.012281e-001
7.779763e+003,1.259803e-001
7.783620e+003,1.056444e-001
7.787478e+003,1.074450e-001
7.791334e+003,5.564228e-002
7.795191e+003,1.003657e-001
7.799049e+003,1.716931e-001
7.802906e+003,1.112255e-001
7.806763e+003,7.986733e-002
7.810620e+003,1.224448e-001
7.814477e+003,1.348027e-001
7.818334e+003,1.759166e-001
7.822191e+003,1.350216e-001
7.826048e+003,8.790066e-002
7.829905e+003,2.220898e-001
7.833763e+003,3.153695e-001
7.837620e+003,2.884090e-001
7.841477e+003,1.801180e-001
7.845334e+003,1.074208e-001
7.849191e+003,8.969431e-002
7.853048e+003,5.086941e-002
7.856905e+003,1.478547e-001
7.860762e+003,2.875309e-001
7.864619e+003,2.637233e-001
7.868477e+003,1.560795e-001
7.872333e+003,2.307470e-001
7.876190e+003,3.067859e-001
7.880048e+003,1.564683e-001
7.883905e+003,1.207938e-001
7.887762e+003,6.288542e-002
7.891619e+003,-3.591329e-002
7.895476e+003,3.048460e-002
7.899333e+003,1.375234e-001
7.903190e+003,1.202796e-001
7.907047e+003,1.493457e-002
7.910904e+003,4.027760e-002
7.914762e+003,7.800341e-002
7.918619e+003,1.965475e-001
7.922476e+003,2.451949e-001
7.926333e+003,1.403683e-001
7.930190e+003,1.261050e-001
7.934047e+003,1.825158e-001
7.937904e+003,2.540767e-001
7.941761e+003,2.689418e-001
7.945618e+003,3.091767e-001
7.949476e+003,2.549571e-001
7.953333e+003,1.888914e-001
7.957189e+003,1.972741e-001
7.961047e+003,3.092279e-001
7.964904e+003,2.809329e-001
7.968761e+003,1.933497e-001
7.972618e+003,1.539953e-001
7.976475e+003,9.794038e-002
7.980332e+003,-3.243948e-002
7.984189e+003,2.843140e-002
7.988046e+003,1.964489e-001
7.991903e+003,9.014258e-002
7.995761e+003,-3.212456e-002
7.999618e+003,4.017913e-002
