4.011380e+002,6.000000e+000
4.049951e+002,-8.692172e-001
4.088522e+002,6.000000e+000
4.127093e+002,6.000000e+000
4.165664e+002,6.000000e+000
4.204235e+002,4.642422e-002
4.242806e+002,1.484628e-001
4.281377e+002,6.000000e+000
4.319948e+002,6.000000e+000
4.358519e+002,6.000000e+000
4.397090e+002,6.000000e+000
4.435661e+002,6.000000e+000
4.474232e+002,-1.869571e-001
4.512803e+002,2.694684e-001
4.551374e+002,6.000000e+000
4.589945e+002,6.000000e+000
4.628516e+002,-1.012539e+000
4.667087e+002,6.000000e+000
4.705658e+002,6.000000e+000
4.744229e+002,6.000000e+000
4.782800e+002,6.000000e+000
4.821371e+002,8.911725e-001
4.859941e+002,-1.832722e-001
4.898513e+002,5.087494e-003
4.937083e+002,-6.259397e-001
4.975654e+002,6.000000e+000
5.014225e+002,-3.993327e-001
5.052796e+002,-2.096640e+000
5.091367e+002,6.000000e+000
5.129938e+002,6.541291e-001
5.168509e+002,5.894603e-001
5.207080e+002,6.000000e+000
5.245651e+002,6.000000e+000
5.284222e+002,6.000000e+000
5.322793e+002,-7.347416e-001
5.361364e+002,6.000000e+000
5.399935e+002,6.000000e+000
5.438506e+002,1.932235e-001
5.477077e+002,2.110526e-001
5.515648e+002,9.645871e-002
5.554219e+002,-3.210437e-001
5.592790e+002,6.000000e+000
5.631361e+002,6.000000e+000
5.669932e+002,6.000000e+000
5.708503e+002,6.000000e+000
5.747074e+002,6.000000e+000
5.785645e+002,6.000000e+000
5.824216e+002,6.000000e+000
5.862787e+002,6.000000e+000
5.901357e+002,2.974389e-001
5.939929e+002,9.926275e-001
5.978499e+002,2.152511e-001
6.017070e+002,6.000000e+000
6.055641e+002,6.000000e+000
6.094212e+002,-1.279966e+000
6.132783e+002,5.188022e-001
6.171354e+002,6.000000e+000
6.209925e+002,-6.199725e-001
6.248496e+002,-4.767927e-001
6.287067e+002,6.000000e+000
6.325638e+002,6.000000e+000
6.364209e+002,-5.600283e-001
6.402780e+002,1.024270e+000
6.441351e+002,6.000000e+000
6.479922e+002,6.000000e+000
6.518493e+002,6.000000e+000
6.557064e+002,3.373927e-001
6.595635e+002,-2.378610e-001
6.634205e+002,-3.904946e-001
6.672777e+002,6.000000e+000
6.711348e+002,6.000000e+000
6.749918e+002,6.000000e+000
6.788490e+002,5.080023e-001
6.827061e+002,6.000000e+000
6.865631e+002,6.000000e+000
6.904203e+002,-8.060523e-001
6.942773e+002,1.124222e+000
6.981344e+002,-5.991853e-001
7.019916e+002,-1.739003e-001
7.058486e+002,-1.862067e-001
7.097057e+002,1.894168e-001
7.135629e+002,1.757181e-001
7.174199e+002,6.000000e+000
7.212770e+002,2.042330e-001
7.251342e+002,-3.462364e-001
7.289912e+002,1.736410e-003
7.328483e+002,6.000000e+000
7.367054e+002,6.000000e+000
7.405625e+002,6.000000e+000
7.444196e+002,6.000000e+000
7.482767e+002,3.459652e-001
7.521338e+002,4.864254e-001
7.559908e+002,6.000000e+000
7.598480e+002,-5.761563e-001
7.637051e+002,-3.647200e-001
7.675621e+002,-2.485494e-001
7.714193e+002,-4.577118e-001
7.752764e+002,-7.707273e-002
7.791334e+002,6.000000e+000
7.829905e+002,6.000000e+000
7.868477e+002,6.000000e+000
7.907047e+002,7.567906e-001
7.945618e+002,6.000000e+000
7.984189e+002,6.000000e+000
8.022760e+002,6.000000e+000
8.061331e+002,1.054526e-001
8.099902e+002,6.000000e+000
8.138473e+002,6.000000e+000
8.177044e+002,-3.738238e-001
8.215615e+002,-5.528591e-001
8.254186e+002,3.308161e-001
8.292757e+002,6.922722e-001
8.331328e+002,1.310851e+000
8.369899e+002,1.053125e+000
8.408470e+002,7.914552e-001
8.447041e+002,9.765565e-001
8.485612e+002,8.787499e-001
8.524183e+002,1.291505e+000
8.562754e+002,6.000000e+000
8.601324e+002,6.000000e+000
8.639896e+002,6.000000e+000
8.678467e+002,7.276455e-001
8.717037e+002,8.215528e-001
8.755609e+002,1.136967e+000
8.794180e+002,6.000000e+000
8.832750e+002,6.000000e+000
8.871321e+002,1.838804e+000
8.909893e+002,1.068528e+000
8.948463e+002,1.102387e+000
8.987034e+002,1.391959e+000
9.025605e+002,1.440173e+000
9.064176e+002,1.183234e+000
9.102747e+002,1.416400e+000
9.141318e+002,1.398505e+000
9.179889e+002,1.278490e+000
9.218461e+002,1.106530e+000
9.257031e+002,1.216701e+000
9.295602e+002,1.253853e+000
9.334174e+002,1.160854e+000
9.372744e+002,1.501384e+000
9.411315e+002,6.000000e+000
9.449886e+002,6.000000e+000
9.488457e+002,1.351076e+000
9.527028e+002,1.425345e+000
9.565599e+002,1.702154e+000
9.604170e+002,1.675654e+000
9.642740e+002,2.509184e+000
9.681312e+002,6.000000e+000
9.719883e+002,1.823048e+000
9.758453e+002,1.838910e+000
9.797025e+002,1.769630e+000
9.835596e+002,1.553728e+000
9.874166e+002,1.985935e+000
9.912738e+002,1.984241e+000
9.951309e+002,1.753967e+000
9.989879e+002,1.739120e+000
1.002845e+003,1.956799e+000
1.006702e+003,2.469440e+000
1.010559e+003,2.227215e+000
1.014416e+003,2.312475e+000
1.018273e+003,1.620049e+000
1.022130e+003,1.458346e+000
1.025988e+003,1.601256e+000
1.029845e+003,1.701680e+000
1.033702e+003,1.509883e+000
1.037559e+003,1.343277e+000
1.041416e+003,1.454733e+000
1.045273e+003,1.430189e+000
1.049130e+003,1.361243e+000
1.052987e+003,1.436173e+000
1.056844e+003,1.557826e+000
1.060702e+003,1.353505e+000
1.064559e+003,1.212997e+000
1.068416e+003,1.196166e+000
1.072273e+003,1.257075e+000
1.076130e+003,1.285817e+000
1.079987e+003,1.252896e+000
1.083844e+003,1.258988e+000
1.087701e+003,1.218264e+000
1.091558e+003,1.191653e+000
1.095415e+003,1.207006e+000
1.099272e+003,1.136444e+000
1.103130e+003,1.030394e+000
1.106987e+003,1.017450e+000
1.110844e+003,1.048471e+000
1.114701e+003,1.024648e+000
1.118558e+003,9.332582e-001
1.122415e+003,9.222164e-001
1.126272e+003,9.623796e-001
1.130129e+003,9.367934e-001
1.133986e+003,8.965738e-001
1.137843e+003,8.864326e-001
1.141701e+003,8.551379e-001
1.145558e+003,8.319376e-001
1.149415e+003,8.236933e-001
1.153272e+003,8.550689e-001
1.157129e+003,8.857248e-001
1.160986e+003,9.153898e-001
1.164843e+003,8.989882e-001
1.168700e+003,8.518330e-001
1.172557e+003,8.186570e-001
1.176414e+003,8.285204e-001
1.180271e+003,8.327429e-001
1.184129e+003,8.002978e-001
1.187986e+003,7.664392e-001
1.191843e+003,7.673565e-001
1.195700e+003,7.908324e-001
1.199557e+003,7.839702e-001
1.203414e+003,7.649633e-001
1.207271e+003,7.430797e-001
1.211128e+003,7.396443e-001
1.214985e+003,7.174207e-001
1.218842e+003,6.701397e-001
1.222699e+003,6.250185e-001
1.226557e+003,5.816296e-001
1.230414e+003,5.530868e-001
1.234271e+003,5.310067e-001
1.238128e+003,5.125411e-001
1.241985e+003,4.905296e-001
1.245842e+003,4.580396e-001
1.249699e+003,4.348795e-001
1.253556e+003,4.225049e-001
1.257413e+003,4.016773e-001
1.261271e+003,3.806678e-001
1.265128e+003,3.733222e-001
1.268985e+003,3.547044e-001
1.272842e+003,3.384853e-001
1.276699e+003,3.305420e-001
1.280556e+003,3.216320e-001
1.284413e+003,3.080753e-001
1.288270e+003,3.009564e-001
1.292127e+003,3.017121e-001
1.295984e+003,2.928344e-001
1.299841e+003,2.785919e-001
1.303698e+003,2.654113e-001
1.307556e+003,2.577309e-001
1.311413e+003,2.593238e-001
1.315270e+003,2.641170e-001
1.319127e+003,2.616016e-001
1.322984e+003,2.547468e-001
1.326841e+003,2.442779e-001
1.330698e+003,2.342941e-001
1.334555e+003,2.273248e-001
1.338412e+003,2.265930e-001
1.342270e+003,2.273163e-001
1.346127e+003,2.208567e-001
1.349984e+003,2.137194e-001
1.353841e+003,2.113384e-001
1.357698e+003,2.101812e-001
1.361555e+003,2.088529e-001
1.365412e+003,2.061471e-001
1.369269e+003,2.087914e-001
1.373126e+003,2.179487e-001
1.376983e+003,2.222204e-001
1.380840e+003,2.219976e-001
1.384698e+003,2.231814e-001
1.388555e+003,2.249818e-001
1.392412e+003,2.280833e-001
1.396269e+003,2.364987e-001
1.400126e+003,2.472994e-001
1.403983e+003,2.503050e-001
1.407840e+003,2.486646e-001
1.411697e+003,2.535945e-001
1.415554e+003,2.599369e-001
1.419411e+003,2.695187e-001
1.423269e+003,2.728323e-001
1.427126e+003,2.693562e-001
1.430983e+003,2.696833e-001
1.434840e+003,2.726388e-001
1.438697e+003,2.696871e-001
1.442554e+003,2.647730e-001
1.446411e+003,2.614310e-001
1.450268e+003,2.524960e-001
1.454125e+003,2.513978e-001
1.457982e+003,2.541994e-001
1.461839e+003,2.464224e-001
1.465697e+003,2.398510e-001
1.469554e+003,2.384001e-001
1.473411e+003,2.433531e-001
1.477268e+003,2.495269e-001
1.481125e+003,2.486418e-001
1.484982e+003,2.498394e-001
1.488839e+003,2.558662e-001
1.492696e+003,2.580152e-001
1.496553e+003,2.612983e-001
1.500411e+003,2.650625e-001
1.504268e+003,2.682767e-001
1.508125e+003,2.673366e-001
1.511982e+003,2.697206e-001
1.515839e+003,2.696533e-001
1.519696e+003,2.690219e-001
1.523553e+003,2.705297e-001
1.527410e+003,2.693381e-001
1.531267e+003,2.666617e-001
1.535124e+003,2.612820e-001
1.538981e+003,2.604034e-001
1.542839e+003,2.591102e-001
1.546696e+003,2.517228e-001
1.550553e+003,2.473074e-001
1.554410e+003,2.426102e-001
1.558267e+003,2.375488e-001
1.562124e+003,2.306116e-001
1.565981e+003,2.242179e-001
1.569838e+003,2.215275e-001
1.573695e+003,2.214035e-001
1.577552e+003,2.214936e-001
1.581410e+003,2.158003e-001
1.585267e+003,2.112325e-001
1.589124e+003,2.123786e-001
1.592981e+003,2.143349e-001
1.596838e+003,2.192709e-001
1.600695e+003,2.213128e-001
1.604552e+003,2.243677e-001
1.608409e+003,2.279019e-001
1.612266e+003,2.375653e-001
1.616123e+003,2.494252e-001
1.619980e+003,2.584201e-001
1.623838e+003,2.714252e-001
1.627695e+003,2.811405e-001
1.631552e+003,2.872081e-001
1.635409e+003,2.939505e-001
1.639266e+003,2.999702e-001
1.643123e+003,3.026316e-001
1.646980e+003,3.012190e-001
1.650837e+003,2.929301e-001
1.654694e+003,2.860689e-001
1.658551e+003,2.804474e-001
1.662409e+003,2.765561e-001
1.666266e+003,2.700882e-001
1.670123e+003,2.656316e-001
1.673980e+003,2.613423e-001
1.677837e+003,2.546144e-001
1.681694e+003,2.454512e-001
1.685551e+003,2.389927e-001
1.689408e+003,2.365483e-001
1.693265e+003,2.350361e-001
1.697122e+003,2.340079e-001
1.700979e+003,2.319935e-001
1.704837e+003,2.267494e-001
1.708694e+003,2.189276e-001
1.712551e+003,2.176304e-001
1.716408e+003,2.212748e-001
1.720265e+003,2.218064e-001
1.724122e+003,2.171174e-001
1.727979e+003,2.137960e-001
1.731836e+003,2.103796e-001
1.735693e+003,2.073685e-001
1.739550e+003,2.077007e-001
1.743408e+003,2.082128e-001
1.747265e+003,2.068069e-001
1.751122e+003,2.079480e-001
1.754979e+003,2.126381e-001
1.758836e+003,2.158717e-001
1.762693e+003,2.173645e-001
1.766550e+003,2.191025e-001
1.770407e+003,2.178745e-001
1.774264e+003,2.164743e-001
1.778121e+003,2.139857e-001
1.781979e+003,2.106710e-001
1.785836e+003,2.071466e-001
1.789693e+003,2.029660e-001
1.793550e+003,1.984617e-001
1.797407e+003,1.968136e-001
1.801264e+003,1.971335e-001
1.805121e+003,1.981184e-001
1.808978e+003,1.983827e-001
1.812835e+003,1.969248e-001
1.816692e+003,2.004327e-001
1.820549e+003,2.002542e-001
1.824407e+003,1.985049e-001
1.828264e+003,1.999715e-001
1.832121e+003,2.009134e-001
1.835978e+003,1.990570e-001
1.839835e+003,1.986720e-001
1.843692e+003,2.035681e-001
1.847549e+003,2.037076e-001
1.851406e+003,2.007902e-001
1.855263e+003,1.995468e-001
1.859120e+003,1.991536e-001
1.862978e+003,1.967631e-001
1.866835e+003,1.964638e-001
1.870692e+003,1.978450e-001
1.874549e+003,1.969691e-001
1.878406e+003,1.948240e-001
1.882263e+003,1.938356e-001
1.886120e+003,1.920673e-001
1.889977e+003,1.924775e-001
1.893834e+003,1.891752e-001
1.897691e+003,1.879391e-001
1.901548e+003,1.886413e-001
1.905406e+003,1.821828e-001
1.909263e+003,1.793270e-001
1.913120e+003,1.801122e-001
1.916977e+003,1.790750e-001
1.920834e+003,1.753335e-001
1.924691e+003,1.711838e-001
1.928548e+003,1.699325e-001
1.932405e+003,1.707160e-001
1.936262e+003,1.692829e-001
1.940119e+003,1.650842e-001
1.943977e+003,1.629529e-001
1.947834e+003,1.634074e-001
1.951691e+003,1.665593e-001
1.955548e+003,1.655236e-001
1.959405e+003,1.626624e-001
1.963262e+003,1.642523e-001
1.967119e+003,1.651781e-001
1.970976e+003,1.686092e-001
1.974833e+003,1.737403e-001
1.978690e+003,1.727183e-001
1.982547e+003,1.708609e-001
1.986405e+003,1.712477e-001
1.990262e+003,1.730416e-001
1.994119e+003,1.724842e-001
1.997976e+003,1.750758e-001
2.001833e+003,1.780348e-001
2.005690e+003,1.789778e-001
2.009547e+003,1.804141e-001
2.013404e+003,1.806607e-001
2.017261e+003,1.812808e-001
2.021118e+003,1.827636e-001
2.024976e+003,1.820842e-001
2.028833e+003,1.811793e-001
2.032690e+003,1.825256e-001
2.036547e+003,1.807734e-001
2.040404e+003,1.762834e-001
2.044261e+003,1.724437e-001
2.048118e+003,1.696858e-001
2.051975e+003,1.648736e-001
2.055832e+003,1.614199e-001
2.059689e+003,1.620659e-001
2.063546e+003,1.612707e-001
2.067404e+003,1.576380e-001
2.071261e+003,1.542873e-001
2.075118e+003,1.544217e-001
2.078975e+003,1.541097e-001
2.082832e+003,1.526449e-001
2.086689e+003,1.491996e-001
2.090546e+003,1.468671e-001
2.094403e+003,1.477458e-001
2.098260e+003,1.461077e-001
2.102117e+003,1.438845e-001
2.105975e+003,1.442741e-001
2.109832e+003,1.469857e-001
2.113689e+003,1.460468e-001
2.117546e+003,1.441309e-001
2.121403e+003,1.448499e-001
2.125260e+003,1.458616e-001
2.129117e+003,1.473293e-001
2.132974e+003,1.516264e-001
2.136831e+003,1.555093e-001
2.140688e+003,1.545918e-001
2.144545e+003,1.552866e-001
2.148403e+003,1.569912e-001
2.152260e+003,1.589524e-001
2.156117e+003,1.625995e-001
2.159974e+003,1.631334e-001
2.163831e+003,1.656125e-001
2.167688e+003,1.665569e-001
2.171545e+003,1.642910e-001
2.175402e+003,1.647136e-001
2.179259e+003,1.647909e-001
2.183116e+003,1.650474e-001
2.186974e+003,1.663087e-001
2.190831e+003,1.672925e-001
2.194688e+003,1.704732e-001
2.198545e+003,1.706621e-001
2.202402e+003,1.694932e-001
2.206259e+003,1.696185e-001
2.210116e+003,1.682536e-001
2.213973e+003,1.652720e-001
2.217830e+003,1.652410e-001
2.221688e+003,1.626684e-001
2.225544e+003,1.607090e-001
2.229402e+003,1.614705e-001
2.233259e+003,1.587832e-001
2.237116e+003,1.541937e-001
2.240973e+003,1.508818e-001
2.244830e+003,1.503229e-001
2.248687e+003,1.498500e-001
2.252544e+003,1.489334e-001
2.256401e+003,1.496674e-001
2.260258e+003,1.496915e-001
2.264115e+003,1.473173e-001
2.267973e+003,1.490690e-001
2.271830e+003,1.495800e-001
2.275687e+003,1.494525e-001
2.279544e+003,1.510157e-001
2.283401e+003,1.548358e-001
2.287258e+003,1.542854e-001
2.291115e+003,1.543138e-001
2.294972e+003,1.565340e-001
2.298829e+003,1.578052e-001
2.302687e+003,1.579794e-001
2.306543e+003,1.607934e-001
2.310401e+003,1.627934e-001
2.314258e+003,1.623482e-001
2.318115e+003,1.629219e-001
2.321972e+003,1.639945e-001
2.325829e+003,1.653405e-001
2.329686e+003,1.679810e-001
2.333543e+003,1.690520e-001
2.337400e+003,1.695486e-001
2.341257e+003,1.705703e-001
2.345115e+003,1.709308e-001
2.348972e+003,1.714221e-001
2.352829e+003,1.658556e-001
2.356686e+003,1.646370e-001
2.360543e+003,1.686447e-001
2.364400e+003,1.682768e-001
2.368257e+003,1.667904e-001
2.372114e+003,1.711194e-001
2.375971e+003,1.711544e-001
2.379828e+003,1.691308e-001
2.383686e+003,1.659295e-001
2.387542e+003,1.648256e-001
2.391400e+003,1.662551e-001
2.395257e+003,1.645064e-001
2.399114e+003,1.604376e-001
2.402971e+003,1.594586e-001
2.406828e+003,1.595188e-001
2.410685e+003,1.570810e-001
2.414542e+003,1.551293e-001
2.418399e+003,1.529967e-001
2.422256e+003,1.520015e-001
2.426114e+003,1.515278e-001
2.429971e+003,1.503475e-001
2.433828e+003,1.500801e-001
2.437685e+003,1.465193e-001
2.441542e+003,1.468106e-001
2.445399e+003,1.487708e-001
2.449256e+003,1.487312e-001
2.453113e+003,1.474414e-001
2.456970e+003,1.495096e-001
2.460827e+003,1.523185e-001
2.464684e+003,1.540497e-001
2.468542e+003,1.563414e-001
2.472399e+003,1.570830e-001
2.476256e+003,1.592796e-001
2.480113e+003,1.593755e-001
2.483970e+003,1.568027e-001
2.487827e+003,1.585098e-001
2.491684e+003,1.630773e-001
2.495541e+003,1.664399e-001
2.499398e+003,1.659270e-001
2.503255e+003,1.677958e-001
2.507113e+003,1.707361e-001
2.510969e+003,1.704292e-001
2.514827e+003,1.710045e-001
2.518684e+003,1.717079e-001
2.522541e+003,1.711328e-001
2.526398e+003,1.715840e-001
2.530255e+003,1.730509e-001
2.534112e+003,1.738335e-001
2.537969e+003,1.735997e-001
2.541826e+003,1.724948e-001
2.545683e+003,1.704236e-001
2.549541e+003,1.698878e-001
2.553398e+003,1.706326e-001
2.557255e+003,1.707026e-001
2.561112e+003,1.709030e-001
2.564969e+003,1.682740e-001
2.568826e+003,1.652361e-001
2.572683e+003,1.637652e-001
2.576540e+003,1.616404e-001
2.580397e+003,1.597505e-001
2.584254e+003,1.592102e-001
2.588112e+003,1.577725e-001
2.591969e+003,1.554288e-001
2.595826e+003,1.552711e-001
2.599683e+003,1.537170e-001
2.603540e+003,1.522891e-001
2.607397e+003,1.533876e-001
2.611254e+003,1.538324e-001
2.615111e+003,1.551316e-001
2.618968e+003,1.574121e-001
2.622825e+003,1.571302e-001
2.626682e+003,1.614570e-001
2.630540e+003,1.675580e-001
2.634397e+003,1.694732e-001
2.638254e+003,1.696818e-001
2.642111e+003,1.693003e-001
2.645968e+003,1.701900e-001
2.649825e+003,1.719264e-001
2.653682e+003,1.770050e-001
2.657539e+003,1.797458e-001
2.661396e+003,1.816713e-001
2.665253e+003,1.829065e-001
2.669111e+003,1.868118e-001
2.672968e+003,1.903577e-001
2.676825e+003,1.914373e-001
2.680682e+003,1.923451e-001
2.684539e+003,1.917337e-001
2.688396e+003,1.935368e-001
2.692253e+003,1.965160e-001
2.696110e+003,1.964637e-001
2.699967e+003,1.988624e-001
2.703824e+003,2.015886e-001
2.707681e+003,2.008936e-001
2.711539e+003,1.998537e-001
2.715396e+003,1.981586e-001
2.719253e+003,1.962457e-001
2.723110e+003,1.981573e-001
2.726967e+003,1.975169e-001
2.730824e+003,1.934131e-001
2.734681e+003,1.934368e-001
2.738538e+003,1.953749e-001
2.742395e+003,1.953364e-001
2.746252e+003,1.955816e-001
2.750110e+003,1.947483e-001
2.753967e+003,1.912281e-001
2.757824e+003,1.916683e-001
2.761681e+003,1.932909e-001
2.765538e+003,1.952806e-001
2.769395e+003,1.953227e-001
2.773252e+003,1.962226e-001
2.777109e+003,1.964913e-001
2.780966e+003,1.970526e-001
2.784823e+003,2.002449e-001
2.788680e+003,2.007820e-001
2.792538e+003,1.992682e-001
2.796395e+003,2.002202e-001
2.800252e+003,2.033003e-001
2.804109e+003,2.084915e-001
2.807966e+003,2.128364e-001
2.811823e+003,2.163729e-001
2.815680e+003,2.179714e-001
2.819537e+003,2.210200e-001
2.823394e+003,2.252008e-001
2.827251e+003,2.282265e-001
2.831109e+003,2.308311e-001
2.834966e+003,2.331039e-001
2.838823e+003,2.374906e-001
2.842680e+003,2.389754e-001
2.846537e+003,2.381773e-001
2.850394e+003,2.373641e-001
2.854251e+003,2.406004e-001
2.858108e+003,2.437241e-001
2.861965e+003,2.433426e-001
2.865823e+003,2.467939e-001
2.869679e+003,2.473698e-001
2.873537e+003,2.488063e-001
2.877394e+003,2.514960e-001
2.881251e+003,2.536432e-001
2.885108e+003,2.518573e-001
2.888965e+003,2.486203e-001
2.892822e+003,2.499726e-001
2.896679e+003,2.509003e-001
2.900536e+003,2.486137e-001
2.904393e+003,2.476247e-001
2.908250e+003,2.497160e-001
2.912108e+003,2.520370e-001
2.915965e+003,2.510506e-001
2.919822e+003,2.502335e-001
2.923679e+003,2.517450e-001
2.927536e+003,2.551043e-001
2.931393e+003,2.548830e-001
2.935250e+003,2.486649e-001
2.939107e+003,2.499291e-001
2.942964e+003,2.565215e-001
2.946822e+003,2.608023e-001
2.950678e+003,2.619546e-001
2.954536e+003,2.610373e-001
2.958393e+003,2.637565e-001
2.962250e+003,2.689236e-001
2.966107e+003,2.700022e-001
2.969964e+003,2.688568e-001
2.973821e+003,2.738031e-001
2.977678e+003,2.778399e-001
2.981535e+003,2.809576e-001
2.985392e+003,2.870748e-001
2.989250e+003,2.915814e-001
2.993107e+003,2.900213e-001
2.996964e+003,2.883787e-001
3.000821e+003,2.944460e-001
3.004678e+003,3.011742e-001
3.008535e+003,3.048518e-001
3.012392e+003,3.059596e-001
3.016249e+003,3.055501e-001
3.020106e+003,3.081811e-001
3.023963e+003,3.129568e-001
3.027821e+003,3.170605e-001
3.031677e+003,3.198106e-001
3.035535e+003,3.212487e-001
3.039392e+003,3.226570e-001
3.043249e+003,3.230906e-001
3.047106e+003,3.234845e-001
3.050963e+003,3.261817e-001
3.054820e+003,3.272820e-001
3.058677e+003,3.304628e-001
3.062534e+003,3.296845e-001
3.066391e+003,3.322849e-001
3.070249e+003,3.331633e-001
3.074106e+003,3.285618e-001
3.077963e+003,3.291981e-001
3.081820e+003,3.297374e-001
3.085677e+003,3.303825e-001
3.089534e+003,3.306717e-001
3.093391e+003,3.317534e-001
3.097248e+003,3.322565e-001
3.101105e+003,3.389269e-001
3.104962e+003,3.409024e-001
3.108820e+003,3.395975e-001
3.112677e+003,3.382913e-001
3.116534e+003,3.380762e-001
3.120391e+003,3.413358e-001
3.124248e+003,3.464814e-001
3.128105e+003,3.513260e-001
3.131962e+003,3.528121e-001
3.135819e+003,3.561088e-001
3.139676e+003,3.592742e-001
3.143533e+003,3.637079e-001
3.147390e+003,3.700264e-001
3.151248e+003,3.706670e-001
3.155105e+003,3.681390e-001
3.158962e+003,3.696994e-001
3.162819e+003,3.765157e-001
3.166676e+003,3.812133e-001
3.170533e+003,3.843994e-001
3.174390e+003,3.891576e-001
3.178247e+003,3.935527e-001
3.182104e+003,4.002617e-001
3.185961e+003,4.021890e-001
3.189819e+003,4.010993e-001
3.193676e+003,4.023174e-001
3.197533e+003,4.070064e-001
3.201390e+003,4.077586e-001
3.205247e+003,4.084603e-001
3.209104e+003,4.142512e-001
3.212961e+003,4.145479e-001
3.216818e+003,4.107848e-001
3.220675e+003,4.106328e-001
3.224532e+003,4.165836e-001
3.228389e+003,4.250017e-001
3.232247e+003,4.285256e-001
3.236104e+003,4.247548e-001
3.239961e+003,4.233928e-001
3.243818e+003,4.259052e-001
3.247675e+003,4.292578e-001
3.251532e+003,4.287201e-001
3.255389e+003,4.269657e-001
3.259246e+003,4.284302e-001
3.263103e+003,4.257537e-001
3.266960e+003,4.236948e-001
3.270818e+003,4.279964e-001
3.274675e+003,4.313647e-001
3.278532e+003,4.252696e-001
3.282389e+003,4.278506e-001
3.286246e+003,4.328991e-001
3.290103e+003,4.352775e-001
3.293960e+003,4.399272e-001
3.297817e+003,4.387465e-001
3.301674e+003,4.377911e-001
3.305531e+003,4.421228e-001
3.309388e+003,4.413307e-001
3.313246e+003,4.427597e-001
3.317103e+003,4.507170e-001
3.320960e+003,4.535670e-001
3.324817e+003,4.538111e-001
3.328674e+003,4.585418e-001
3.332531e+003,4.625427e-001
3.336388e+003,4.585201e-001
3.340245e+003,4.606339e-001
3.344102e+003,4.706554e-001
3.347959e+003,4.756950e-001
3.351817e+003,4.764655e-001
3.355674e+003,4.784895e-001
3.359531e+003,4.796562e-001
3.363388e+003,4.827804e-001
3.367245e+003,4.801431e-001
3.371102e+003,4.825655e-001
3.374959e+003,4.908848e-001
3.378816e+003,4.910280e-001
3.382673e+003,4.865737e-001
3.386530e+003,4.829976e-001
3.390387e+003,4.871977e-001
3.394245e+003,4.940049e-001
3.398102e+003,4.921657e-001
3.401959e+003,4.901068e-001
3.405816e+003,4.911180e-001
3.409673e+003,4.910635e-001
3.413530e+003,4.944199e-001
3.417387e+003,4.971218e-001
3.421244e+003,4.964884e-001
3.425101e+003,4.982125e-001
3.428958e+003,4.972708e-001
3.432815e+003,4.963523e-001
3.436673e+003,4.968597e-001
3.440530e+003,4.981847e-001
3.444387e+003,4.973647e-001
3.448244e+003,4.971907e-001
3.452101e+003,4.919938e-001
3.455958e+003,4.908426e-001
3.459815e+003,4.932708e-001
3.463672e+003,4.980642e-001
3.467529e+003,5.070199e-001
3.471386e+003,5.061063e-001
3.475244e+003,5.030862e-001
3.479101e+003,5.011647e-001
3.482958e+003,5.000618e-001
3.486815e+003,5.046580e-001
3.490672e+003,5.103260e-001
3.494529e+003,5.095292e-001
3.498386e+003,5.047091e-001
3.502243e+003,5.053694e-001
3.506100e+003,5.080996e-001
3.509958e+003,5.126491e-001
3.513814e+003,5.143307e-001
3.517672e+003,5.169226e-001
3.521529e+003,5.220649e-001
3.525386e+003,5.205609e-001
3.529243e+003,5.197265e-001
3.533100e+003,5.195880e-001
3.536957e+003,5.133727e-001
3.540814e+003,5.153781e-001
3.544671e+003,5.211907e-001
3.548528e+003,5.174495e-001
3.552385e+003,5.202608e-001
3.556243e+003,5.193025e-001
3.560100e+003,5.131987e-001
3.563957e+003,5.088438e-001
3.567814e+003,5.064633e-001
3.571671e+003,4.965885e-001
3.575528e+003,4.936107e-001
3.579385e+003,4.904745e-001
3.583242e+003,4.885666e-001
3.587099e+003,4.850891e-001
3.590957e+003,4.703809e-001
3.594813e+003,4.586120e-001
3.598671e+003,4.551993e-001
3.602528e+003,4.469669e-001
3.606385e+003,4.370903e-001
3.610242e+003,4.273992e-001
3.614099e+003,4.162334e-001
3.617956e+003,4.052989e-001
3.621813e+003,3.988713e-001
3.625670e+003,3.827150e-001
3.629527e+003,3.567395e-001
3.633385e+003,3.425440e-001
3.637242e+003,3.288530e-001
3.641099e+003,3.040935e-001
3.644956e+003,2.869892e-001
3.648813e+003,2.755636e-001
3.652670e+003,2.584168e-001
3.656527e+003,2.439438e-001
3.660384e+003,2.357877e-001
3.664241e+003,2.254388e-001
3.668098e+003,2.108290e-001
3.671956e+003,2.005617e-001
3.675813e+003,1.916206e-001
3.679670e+003,1.828639e-001
3.683527e+003,1.739283e-001
3.687384e+003,1.667393e-001
3.691241e+003,1.642853e-001
3.695098e+003,1.586917e-001
3.698955e+003,1.514683e-001
3.702812e+003,1.488815e-001
3.706669e+003,1.472324e-001
3.710526e+003,1.426490e-001
3.714384e+003,1.395958e-001
3.718241e+003,1.367771e-001
3.722098e+003,1.355876e-001
3.725955e+003,1.334112e-001
3.729812e+003,1.286124e-001
3.733669e+003,1.284216e-001
3.737526e+003,1.311054e-001
3.741383e+003,1.294549e-001
3.745240e+003,1.276085e-001
3.749097e+003,1.247733e-001
3.752955e+003,1.244040e-001
3.756812e+003,1.287253e-001
3.760669e+003,1.323585e-001
3.764526e+003,1.343679e-001
3.768383e+003,1.339831e-001
3.772240e+003,1.313736e-001
3.776097e+003,1.297947e-001
3.779954e+003,1.314671e-001
3.783811e+003,1.323311e-001
3.787668e+003,1.336249e-001
3.791525e+003,1.366763e-001
3.795383e+003,1.337699e-001
3.799240e+003,1.300695e-001
3.803097e+003,1.324637e-001
3.806954e+003,1.365170e-001
3.810811e+003,1.345152e-001
3.814668e+003,1.312910e-001
3.818525e+003,1.293902e-001
3.822382e+003,1.269283e-001
3.826239e+003,1.255663e-001
3.830096e+003,1.270149e-001
3.833954e+003,1.252324e-001
3.837811e+003,1.214676e-001
3.841668e+003,1.193859e-001
3.845525e+003,1.223542e-001
3.849382e+003,1.226699e-001
3.853239e+003,1.181412e-001
3.857096e+003,1.179116e-001
3.860953e+003,1.196202e-001
3.864810e+003,1.150050e-001
3.868667e+003,1.118358e-001
3.872524e+003,1.112375e-001
3.876382e+003,1.129183e-001
3.880239e+003,1.181535e-001
3.884096e+003,1.173210e-001
3.887953e+003,1.129410e-001
3.891810e+003,1.110560e-001
3.895667e+003,1.094051e-001
3.899524e+003,1.134861e-001
3.903381e+003,1.175520e-001
3.907238e+003,1.195904e-001
3.911095e+003,1.215638e-001
3.914953e+003,1.246262e-001
3.918810e+003,1.243465e-001
3.922667e+003,1.204933e-001
3.926524e+003,1.233728e-001
3.930381e+003,1.270643e-001
3.934238e+003,1.253879e-001
3.938095e+003,1.240305e-001
3.941952e+003,1.244173e-001
3.945809e+003,1.262027e-001
3.949667e+003,1.304045e-001
3.953523e+003,1.270601e-001
3.957381e+003,1.236813e-001
3.961238e+003,1.247379e-001
3.965095e+003,1.262148e-001
3.968952e+003,1.280391e-001
3.972809e+003,1.268819e-001
3.976666e+003,1.258006e-001
3.980523e+003,1.267474e-001
3.984380e+003,1.263847e-001
3.988237e+003,1.241968e-001
3.992094e+003,1.225101e-001
3.995952e+003,1.173313e-001
3.999809e+003,1.118435e-001
4.003666e+003,1.133158e-001
4.007523e+003,1.183467e-001
4.011380e+003,1.185256e-001
4.015237e+003,1.194031e-001
4.019094e+003,1.184234e-001
4.022951e+003,1.170358e-001
4.026808e+003,1.144212e-001
4.030666e+003,1.127312e-001
4.034522e+003,1.130627e-001
4.038380e+003,1.112613e-001
4.042237e+003,1.098315e-001
4.046094e+003,1.104867e-001
4.049951e+003,1.146773e-001
4.053808e+003,1.149920e-001
4.057665e+003,1.113487e-001
4.061522e+003,1.115439e-001
4.065379e+003,1.092471e-001
4.069236e+003,1.070054e-001
4.073094e+003,1.111717e-001
4.076951e+003,1.150824e-001
4.080808e+003,1.126014e-001
4.084665e+003,1.099214e-001
4.088522e+003,1.143376e-001
4.092379e+003,1.201279e-001
4.096236e+003,1.193915e-001
4.100093e+003,1.187220e-001
4.103950e+003,1.238943e-001
4.107808e+003,1.270225e-001
4.111665e+003,1.248177e-001
4.115521e+003,1.219068e-001
4.119379e+003,1.188095e-001
4.123236e+003,1.174725e-001
4.127093e+003,1.174995e-001
4.130950e+003,1.170002e-001
4.134807e+003,1.196464e-001
4.138664e+003,1.193138e-001
4.142521e+003,1.204985e-001
4.146378e+003,1.254725e-001
4.150235e+003,1.237233e-001
4.154093e+003,1.237123e-001
4.157950e+003,1.237601e-001
4.161807e+003,1.196838e-001
4.165664e+003,1.159713e-001
4.169521e+003,1.138419e-001
4.173378e+003,1.170068e-001
4.177235e+003,1.167315e-001
4.181092e+003,1.153628e-001
4.184949e+003,1.175619e-001
4.188807e+003,1.167261e-001
4.192664e+003,1.127510e-001
4.196521e+003,1.105693e-001
4.200378e+003,1.089125e-001
4.204235e+003,1.035754e-001
4.208092e+003,1.057979e-001
4.211949e+003,1.109869e-001
4.215806e+003,1.110812e-001
4.219663e+003,1.065270e-001
4.223521e+003,1.034818e-001
4.227377e+003,1.070916e-001
4.231234e+003,1.118733e-001
4.235092e+003,1.119034e-001
4.238949e+003,1.120018e-001
4.242806e+003,1.125995e-001
4.246663e+003,1.108023e-001
4.250520e+003,1.033834e-001
4.254377e+003,1.024031e-001
4.258234e+003,1.055703e-001
4.262091e+003,1.096013e-001
4.265948e+003,1.166399e-001
4.269806e+003,1.207979e-001
4.273663e+003,1.211507e-001
4.277520e+003,1.204639e-001
4.281377e+003,1.188285e-001
4.285234e+003,1.196130e-001
4.289091e+003,1.186097e-001
4.292948e+003,1.198256e-001
4.296805e+003,1.206822e-001
4.300662e+003,1.196172e-001
4.304520e+003,1.202851e-001
4.308376e+003,1.241748e-001
4.312233e+003,1.252408e-001
4.316091e+003,1.222008e-001
4.319948e+003,1.153975e-001
4.323805e+003,1.179436e-001
4.327662e+003,1.202655e-001
4.331519e+003,1.176930e-001
4.335376e+003,1.196238e-001
4.339233e+003,1.239792e-001
4.343090e+003,1.196408e-001
4.346947e+003,1.168485e-001
4.350805e+003,1.160766e-001
4.354662e+003,1.151149e-001
4.358519e+003,1.121600e-001
4.362376e+003,1.090856e-001
4.366233e+003,1.062468e-001
4.370090e+003,1.034122e-001
4.373947e+003,1.030062e-001
4.377804e+003,1.072523e-001
4.381661e+003,1.094197e-001
4.385519e+003,1.071602e-001
4.389375e+003,1.028062e-001
4.393232e+003,9.824708e-002
4.397090e+003,9.875793e-002
4.400947e+003,1.032626e-001
4.404804e+003,1.056494e-001
4.408661e+003,1.070879e-001
4.412518e+003,1.111306e-001
4.416375e+003,1.156480e-001
4.420232e+003,1.185376e-001
4.424089e+003,1.169147e-001
4.427946e+003,1.139948e-001
4.431804e+003,1.111453e-001
4.435661e+003,1.071066e-001
4.439518e+003,1.024779e-001
4.443375e+003,1.060644e-001
4.447232e+003,1.167775e-001
4.451089e+003,1.249369e-001
4.454946e+003,1.268821e-001
4.458803e+003,1.194009e-001
4.462660e+003,1.218424e-001
4.466518e+003,1.297573e-001
4.470375e+003,1.264306e-001
4.474231e+003,1.236915e-001
4.478089e+003,1.298483e-001
4.481946e+003,1.272956e-001
4.485803e+003,1.251910e-001
4.489660e+003,1.294935e-001
4.493517e+003,1.321139e-001
4.497375e+003,1.257232e-001
4.501231e+003,1.204942e-001
4.505088e+003,1.304547e-001
4.508946e+003,1.344270e-001
4.512803e+003,1.226072e-001
4.516660e+003,1.171742e-001
4.520517e+003,1.201491e-001
4.524374e+003,1.225322e-001
4.528231e+003,1.239732e-001
4.532088e+003,1.236343e-001
4.535945e+003,1.185988e-001
4.539802e+003,1.154361e-001
4.543660e+003,1.112604e-001
4.547517e+003,1.093981e-001
4.551374e+003,1.116243e-001
4.555231e+003,1.105480e-001
4.559088e+003,1.136837e-001
4.562945e+003,1.121197e-001
4.566802e+003,1.110481e-001
4.570659e+003,1.071164e-001
4.574516e+003,1.021056e-001
4.578374e+003,1.033229e-001
4.582230e+003,1.077673e-001
4.586087e+003,1.119104e-001
4.589945e+003,1.125349e-001
4.593802e+003,1.072286e-001
4.597659e+003,1.068704e-001
4.601516e+003,1.038510e-001
4.605373e+003,9.902288e-002
4.609230e+003,1.011914e-001
4.613087e+003,1.065625e-001
4.616944e+003,1.100833e-001
4.620801e+003,1.173907e-001
4.624659e+003,1.195225e-001
4.628516e+003,1.175822e-001
4.632373e+003,1.212578e-001
4.636230e+003,1.173639e-001
4.640087e+003,1.132030e-001
4.643944e+003,1.188614e-001
4.647801e+003,1.222032e-001
4.651658e+003,1.169503e-001
4.655515e+003,1.193391e-001
4.659373e+003,1.227460e-001
4.663229e+003,1.250553e-001
4.667086e+003,1.280254e-001
4.670944e+003,1.282419e-001
4.674801e+003,1.215024e-001
4.678658e+003,1.182737e-001
4.682515e+003,1.237167e-001
4.686372e+003,1.226491e-001
4.690229e+003,1.143327e-001
4.694086e+003,1.141001e-001
4.697943e+003,1.186025e-001
4.701800e+003,1.226479e-001
4.705658e+003,1.218903e-001
4.709515e+003,1.145690e-001
4.713372e+003,1.121759e-001
4.717229e+003,1.054174e-001
4.721086e+003,1.056189e-001
4.724943e+003,1.085899e-001
4.728800e+003,1.129028e-001
4.732657e+003,1.169895e-001
4.736514e+003,1.111435e-001
4.740372e+003,1.086410e-001
4.744229e+003,1.065305e-001
4.748085e+003,1.125592e-001
4.751943e+003,1.143483e-001
4.755800e+003,1.131051e-001
4.759657e+003,1.196644e-001
4.763514e+003,1.166591e-001
4.767371e+003,1.078066e-001
4.771228e+003,1.128078e-001
4.775085e+003,1.149498e-001
4.778942e+003,1.072796e-001
4.782799e+003,1.101396e-001
4.786657e+003,1.142540e-001
4.790514e+003,1.139746e-001
4.794371e+003,1.212137e-001
4.798228e+003,1.220771e-001
4.802085e+003,1.177920e-001
4.805942e+003,1.261755e-001
4.809799e+003,1.280150e-001
4.813656e+003,1.234444e-001
4.817513e+003,1.256662e-001
4.821371e+003,1.318024e-001
4.825228e+003,1.326707e-001
4.829084e+003,1.300778e-001
4.832942e+003,1.285812e-001
4.836799e+003,1.333992e-001
4.840656e+003,1.291278e-001
4.844513e+003,1.222875e-001
4.848370e+003,1.239302e-001
4.852227e+003,1.313152e-001
4.856084e+003,1.332431e-001
4.859941e+003,1.296822e-001
4.863798e+003,1.232081e-001
4.867656e+003,1.237473e-001
4.871513e+003,1.210546e-001
4.875370e+003,1.244479e-001
4.879227e+003,1.217786e-001
4.883084e+003,1.184811e-001
4.886941e+003,1.199194e-001
4.890798e+003,1.211182e-001
4.894655e+003,1.144435e-001
4.898512e+003,1.115835e-001
4.902370e+003,1.146630e-001
4.906227e+003,1.082401e-001
4.910083e+003,1.115710e-001
4.913941e+003,1.227285e-001
4.917798e+003,1.191064e-001
4.921655e+003,1.157513e-001
4.925512e+003,1.143578e-001
4.929369e+003,1.115029e-001
4.933226e+003,1.120749e-001
4.937083e+003,1.183081e-001
4.940940e+003,1.241689e-001
4.944797e+003,1.191102e-001
4.948655e+003,1.185085e-001
4.952512e+003,1.263762e-001
4.956369e+003,1.226250e-001
4.960226e+003,1.228862e-001
4.964083e+003,1.308288e-001
4.967940e+003,1.305663e-001
4.971797e+003,1.263879e-001
4.975654e+003,1.272446e-001
4.979511e+003,1.256704e-001
4.983369e+003,1.204992e-001
4.987226e+003,1.184219e-001
4.991083e+003,1.300414e-001
4.994940e+003,1.322655e-001
4.998797e+003,1.304633e-001
5.002654e+003,1.305718e-001
5.006511e+003,1.293272e-001
5.010368e+003,1.326967e-001
5.014225e+003,1.358699e-001
5.018083e+003,1.318384e-001
5.021939e+003,1.352328e-001
5.025796e+003,1.352449e-001
5.029654e+003,1.299673e-001
5.033511e+003,1.326489e-001
5.037368e+003,1.360982e-001
5.041225e+003,1.269249e-001
5.045082e+003,1.281454e-001
5.048939e+003,1.303913e-001
5.052796e+003,1.292479e-001
5.056653e+003,1.250401e-001
5.060510e+003,1.139240e-001
5.064368e+003,1.089640e-001
5.068225e+003,1.171069e-001
5.072082e+003,1.159447e-001
5.075939e+003,1.157775e-001
5.079796e+003,1.215128e-001
5.083653e+003,1.209750e-001
5.087510e+003,1.252165e-001
5.091367e+003,1.268981e-001
5.095224e+003,1.233507e-001
5.099082e+003,1.202407e-001
5.102938e+003,1.155372e-001
5.106795e+003,1.149381e-001
5.110653e+003,1.213944e-001
5.114510e+003,1.225967e-001
5.118367e+003,1.215495e-001
5.122224e+003,1.201920e-001
5.126081e+003,1.235623e-001
5.129938e+003,1.264014e-001
5.133795e+003,1.246737e-001
5.137652e+003,1.279297e-001
5.141509e+003,1.249336e-001
5.145367e+003,1.236065e-001
5.149224e+003,1.282342e-001
5.153081e+003,1.334989e-001
5.156938e+003,1.388077e-001
5.160795e+003,1.384138e-001
5.164652e+003,1.357843e-001
5.168509e+003,1.276729e-001
5.172366e+003,1.271990e-001
5.176223e+003,1.367940e-001
5.180081e+003,1.337364e-001
5.183938e+003,1.294241e-001
5.187794e+003,1.312175e-001
5.191652e+003,1.315182e-001
5.195509e+003,1.416515e-001
5.199366e+003,1.408797e-001
5.203223e+003,1.324377e-001
5.207080e+003,1.275879e-001
5.210937e+003,1.330793e-001
5.214794e+003,1.434365e-001
5.218651e+003,1.453294e-001
5.222508e+003,1.427737e-001
5.226366e+003,1.386109e-001
5.230223e+003,1.359875e-001
5.234080e+003,1.333827e-001
5.237937e+003,1.244741e-001
5.241794e+003,1.176590e-001
5.245651e+003,1.171481e-001
5.249508e+003,1.205191e-001
5.253365e+003,1.257895e-001
5.257222e+003,1.211944e-001
5.261080e+003,1.179732e-001
5.264937e+003,1.192563e-001
5.268793e+003,1.194335e-001
5.272651e+003,1.097319e-001
5.276508e+003,1.103098e-001
5.280365e+003,1.213474e-001
5.284222e+003,1.274064e-001
5.288079e+003,1.221604e-001
5.291936e+003,1.155596e-001
5.295793e+003,1.190891e-001
5.299650e+003,1.279646e-001
5.303507e+003,1.248858e-001
5.307365e+003,1.218433e-001
5.311222e+003,1.298516e-001
5.315079e+003,1.323303e-001
5.318936e+003,1.292353e-001
5.322793e+003,1.304799e-001
5.326650e+003,1.318263e-001
5.330507e+003,1.219063e-001
5.334364e+003,1.200918e-001
5.338221e+003,1.213865e-001
5.342079e+003,1.298027e-001
5.345936e+003,1.350544e-001
5.349792e+003,1.326043e-001
5.353650e+003,1.379854e-001
5.357507e+003,1.418233e-001
5.361364e+003,1.355215e-001
5.365221e+003,1.364595e-001
5.369078e+003,1.421434e-001
5.372935e+003,1.362048e-001
5.376792e+003,1.228094e-001
5.380649e+003,1.168014e-001
5.384506e+003,1.249714e-001
5.388364e+003,1.314692e-001
5.392221e+003,1.344850e-001
5.396078e+003,1.350439e-001
5.399935e+003,1.312410e-001
5.403792e+003,1.279501e-001
5.407649e+003,1.268374e-001
5.411506e+003,1.331608e-001
5.415363e+003,1.312626e-001
5.419220e+003,1.327430e-001
5.423078e+003,1.343569e-001
5.426935e+003,1.195068e-001
5.430792e+003,1.184191e-001
5.434649e+003,1.236823e-001
5.438506e+003,1.229497e-001
5.442363e+003,1.258108e-001
5.446220e+003,1.210047e-001
5.450077e+003,1.199721e-001
5.453934e+003,1.318806e-001
5.457792e+003,1.329920e-001
5.461648e+003,1.344620e-001
5.465505e+003,1.257540e-001
5.469363e+003,1.208022e-001
5.473220e+003,1.287029e-001
5.477077e+003,1.251133e-001
5.480934e+003,1.236065e-001
5.484791e+003,1.324385e-001
5.488648e+003,1.407432e-001
5.492505e+003,1.338104e-001
5.496362e+003,1.194753e-001
5.500219e+003,1.271892e-001
5.504077e+003,1.370453e-001
5.507934e+003,1.334613e-001
5.511791e+003,1.330684e-001
5.515648e+003,1.326740e-001
5.519505e+003,1.322066e-001
5.523362e+003,1.317726e-001
5.527219e+003,1.325009e-001
5.531076e+003,1.410580e-001
5.534933e+003,1.396124e-001
5.538791e+003,1.302174e-001
5.542647e+003,1.278877e-001
5.546504e+003,1.239083e-001
5.550362e+003,1.268215e-001
5.554219e+003,1.316151e-001
5.558076e+003,1.313961e-001
5.561933e+003,1.419505e-001
5.565790e+003,1.376433e-001
5.569647e+003,1.312380e-001
5.573504e+003,1.346517e-001
5.577361e+003,1.373795e-001
5.581218e+003,1.374097e-001
5.585076e+003,1.380209e-001
5.588933e+003,1.367010e-001
5.592790e+003,1.348952e-001
5.596647e+003,1.271973e-001
5.600504e+003,1.257200e-001
5.604361e+003,1.262597e-001
5.608218e+003,1.236559e-001
5.612075e+003,1.186933e-001
5.615932e+003,1.209322e-001
5.619790e+003,1.277244e-001
5.623646e+003,1.275423e-001
5.627503e+003,1.202272e-001
5.631361e+003,1.170500e-001
5.635218e+003,1.232188e-001
5.639075e+003,1.366031e-001
5.642932e+003,1.411262e-001
5.646789e+003,1.363436e-001
5.650646e+003,1.308376e-001
5.654503e+003,1.308821e-001
5.658360e+003,1.386551e-001
5.662217e+003,1.447925e-001
5.666075e+003,1.329583e-001
5.669932e+003,1.220247e-001
5.673789e+003,1.339367e-001
5.677646e+003,1.429494e-001
5.681503e+003,1.457498e-001
5.685360e+003,1.379995e-001
5.689217e+003,1.280034e-001
5.693074e+003,1.293753e-001
5.696931e+003,1.354440e-001
5.700789e+003,1.377401e-001
5.704646e+003,1.398649e-001
5.708502e+003,1.396136e-001
5.712360e+003,1.411611e-001
5.716217e+003,1.393895e-001
5.720074e+003,1.367654e-001
5.723931e+003,1.323561e-001
5.727788e+003,1.234539e-001
5.731645e+003,1.281943e-001
5.735502e+003,1.334297e-001
5.739359e+003,1.403671e-001
5.743216e+003,1.430211e-001
5.747074e+003,1.372120e-001
5.750931e+003,1.370560e-001
5.754788e+003,1.434346e-001
5.758645e+003,1.489118e-001
5.762502e+003,1.471330e-001
5.766359e+003,1.283370e-001
5.770216e+003,1.272098e-001
5.774073e+003,1.327945e-001
5.777930e+003,1.257360e-001
5.781788e+003,1.184229e-001
5.785645e+003,1.330583e-001
5.789501e+003,1.309645e-001
5.793359e+003,1.179005e-001
5.797216e+003,1.170898e-001
5.801073e+003,1.216666e-001
5.804930e+003,1.233423e-001
5.808787e+003,1.288614e-001
5.812644e+003,1.313202e-001
5.816501e+003,1.294607e-001
5.820358e+003,1.294965e-001
5.824215e+003,1.319136e-001
5.828073e+003,1.359643e-001
5.831930e+003,1.447270e-001
5.835787e+003,1.476378e-001
5.839644e+003,1.500109e-001
5.843501e+003,1.397200e-001
5.847358e+003,1.300631e-001
5.851215e+003,1.304729e-001
5.855072e+003,1.389191e-001
5.858929e+003,1.485951e-001
5.862787e+003,1.467987e-001
5.866644e+003,1.403770e-001
5.870500e+003,1.336233e-001
5.874358e+003,1.377774e-001
5.878215e+003,1.395589e-001
5.882072e+003,1.300173e-001
5.885929e+003,1.302605e-001
5.889786e+003,1.350448e-001
5.893643e+003,1.402059e-001
5.897500e+003,1.498081e-001
5.901357e+003,1.526726e-001
5.905214e+003,1.532157e-001
5.909072e+003,1.558054e-001
5.912929e+003,1.424579e-001
5.916786e+003,1.379239e-001
5.920643e+003,1.353860e-001
5.924500e+003,1.352756e-001
5.928357e+003,1.334978e-001
5.932214e+003,1.379897e-001
5.936071e+003,1.367334e-001
5.939928e+003,1.397305e-001
5.943786e+003,1.450606e-001
5.947643e+003,1.433377e-001
5.951500e+003,1.385209e-001
5.955357e+003,1.363691e-001
5.959214e+003,1.353724e-001
5.963071e+003,1.426127e-001
5.966928e+003,1.334588e-001
5.970785e+003,1.280184e-001
5.974642e+003,1.294166e-001
5.978500e+003,1.241656e-001
5.982356e+003,1.218760e-001
5.986213e+003,1.259490e-001
5.990071e+003,1.290921e-001
5.993928e+003,1.380938e-001
5.997785e+003,1.411189e-001
6.001642e+003,1.370001e-001
6.005499e+003,1.296391e-001
6.009356e+003,1.167600e-001
6.013213e+003,1.197697e-001
6.017070e+003,1.229383e-001
6.020927e+003,1.151825e-001
6.024785e+003,1.242639e-001
6.028642e+003,1.322346e-001
6.032499e+003,1.395853e-001
6.036356e+003,1.531613e-001
6.040213e+003,1.594723e-001
6.044070e+003,1.548859e-001
6.047927e+003,1.502564e-001
6.051784e+003,1.416512e-001
6.055641e+003,1.391074e-001
6.059499e+003,1.451565e-001
6.063355e+003,1.540257e-001
6.067212e+003,1.530350e-001
6.071070e+003,1.415822e-001
6.074927e+003,1.355624e-001
6.078784e+003,1.510461e-001
6.082641e+003,1.529848e-001
6.086498e+003,1.429487e-001
6.090355e+003,1.508607e-001
6.094212e+003,1.569239e-001
6.098069e+003,1.558416e-001
6.101926e+003,1.383618e-001
6.105784e+003,1.263911e-001
6.109641e+003,1.364673e-001
6.113498e+003,1.347589e-001
6.117355e+003,1.297683e-001
6.121212e+003,1.374964e-001
6.125069e+003,1.405076e-001
6.128926e+003,1.391248e-001
6.132783e+003,1.412226e-001
6.136640e+003,1.399988e-001
6.140498e+003,1.335004e-001
6.144354e+003,1.254642e-001
6.148211e+003,1.239832e-001
6.152069e+003,1.246838e-001
6.155926e+003,1.238989e-001
6.159783e+003,1.288054e-001
6.163640e+003,1.263235e-001
6.167497e+003,1.252092e-001
6.171354e+003,1.299036e-001
6.175211e+003,1.403666e-001
6.179068e+003,1.423452e-001
6.182925e+003,1.499170e-001
6.186783e+003,1.518176e-001
6.190640e+003,1.477822e-001
6.194497e+003,1.579311e-001
6.198354e+003,1.501101e-001
6.202211e+003,1.336132e-001
6.206068e+003,1.339830e-001
6.209925e+003,1.374741e-001
6.213782e+003,1.447731e-001
6.217639e+003,1.511536e-001
6.221497e+003,1.494663e-001
6.225354e+003,1.458545e-001
6.229210e+003,1.446278e-001
6.233068e+003,1.488789e-001
6.236925e+003,1.606887e-001
6.240782e+003,1.652187e-001
6.244639e+003,1.469631e-001
6.248496e+003,1.358870e-001
6.252353e+003,1.349001e-001
6.256210e+003,1.472775e-001
6.260067e+003,1.575962e-001
6.263924e+003,1.322225e-001
6.267782e+003,1.321528e-001
6.271639e+003,1.403484e-001
6.275496e+003,1.317156e-001
6.279353e+003,1.433527e-001
6.283210e+003,1.655517e-001
6.287067e+003,1.653948e-001
6.290924e+003,1.601906e-001
6.294781e+003,1.419705e-001
6.298638e+003,1.326852e-001
6.302496e+003,1.413925e-001
6.306353e+003,1.475890e-001
6.310209e+003,1.437526e-001
6.314067e+003,1.450979e-001
6.317924e+003,1.510881e-001
6.321781e+003,1.535619e-001
6.325638e+003,1.466112e-001
6.329495e+003,1.272333e-001
6.333352e+003,1.261311e-001
6.337209e+003,1.334816e-001
6.341066e+003,1.376531e-001
6.344923e+003,1.409917e-001
6.348780e+003,1.351377e-001
6.352638e+003,1.399590e-001
6.356495e+003,1.419225e-001
6.360352e+003,1.304925e-001
6.364209e+003,1.348816e-001
6.368066e+003,1.437457e-001
6.371923e+003,1.370845e-001
6.375780e+003,1.308453e-001
6.379637e+003,1.228621e-001
6.383494e+003,1.295519e-001
6.387352e+003,1.333415e-001
6.391208e+003,1.410444e-001
6.395065e+003,1.580371e-001
6.398923e+003,1.576210e-001
6.402780e+003,1.476080e-001
6.406637e+003,1.570311e-001
6.410494e+003,1.668234e-001
6.414351e+003,1.595351e-001
6.418208e+003,1.603543e-001
6.422065e+003,1.433485e-001
6.425922e+003,1.356408e-001
6.429779e+003,1.451838e-001
6.433637e+003,1.409018e-001
6.437494e+003,1.386207e-001
6.441351e+003,1.506820e-001
6.445208e+003,1.523014e-001
6.449065e+003,1.454335e-001
6.452922e+003,1.477970e-001
6.456779e+003,1.383489e-001
6.460636e+003,1.422937e-001
6.464493e+003,1.327394e-001
6.468351e+003,1.365007e-001
6.472208e+003,1.452230e-001
6.476064e+003,1.367812e-001
6.479922e+003,1.436651e-001
6.483779e+003,1.458783e-001
6.487636e+003,1.558526e-001
6.491493e+003,1.625045e-001
6.495350e+003,1.496123e-001
6.499207e+003,1.467776e-001
6.503064e+003,1.498974e-001
6.506921e+003,1.335829e-001
6.510778e+003,1.292454e-001
6.514636e+003,1.364051e-001
6.518493e+003,1.357009e-001
6.522350e+003,1.316271e-001
6.526207e+003,1.374206e-001
6.530064e+003,1.425516e-001
6.533921e+003,1.463212e-001
6.537778e+003,1.539708e-001
6.541635e+003,1.485556e-001
6.545492e+003,1.336742e-001
6.549350e+003,1.433488e-001
6.553207e+003,1.525257e-001
6.557063e+003,1.374343e-001
6.560921e+003,1.410672e-001
6.564778e+003,1.420373e-001
6.568635e+003,1.450702e-001
6.572492e+003,1.502618e-001
6.576349e+003,1.532728e-001
6.580206e+003,1.494848e-001
6.584063e+003,1.569480e-001
6.587920e+003,1.640267e-001
6.591777e+003,1.576473e-001
6.595635e+003,1.498818e-001
6.599492e+003,1.331163e-001
6.603349e+003,1.385695e-001
6.607206e+003,1.522195e-001
6.611063e+003,1.662139e-001
6.614920e+003,1.951636e-001
6.618777e+003,1.818072e-001
6.622634e+003,1.612648e-001
6.626491e+003,1.375393e-001
6.630349e+003,1.268844e-001
6.634206e+003,1.381687e-001
6.638063e+003,1.633154e-001
6.641920e+003,1.600129e-001
6.645777e+003,1.347415e-001
6.649634e+003,1.391493e-001
6.653491e+003,1.552084e-001
6.657348e+003,1.617922e-001
6.661205e+003,1.532851e-001
6.665063e+003,1.494688e-001
6.668919e+003,1.503190e-001
6.672776e+003,1.391735e-001
6.676634e+003,1.422230e-001
6.680491e+003,1.482072e-001
6.684348e+003,1.303171e-001
6.688205e+003,1.329046e-001
6.692062e+003,1.551905e-001
6.695919e+003,1.716943e-001
6.699776e+003,1.562199e-001
6.703633e+003,1.364591e-001
6.707490e+003,1.293950e-001
6.711348e+003,1.297696e-001
6.715205e+003,1.265524e-001
6.719062e+003,1.313005e-001
6.722919e+003,1.541744e-001
6.726776e+003,1.793089e-001
6.730633e+003,1.598720e-001
6.734490e+003,1.398695e-001
6.738347e+003,1.381210e-001
6.742204e+003,1.457078e-001
6.746062e+003,1.440305e-001
6.749918e+003,1.460864e-001
6.753775e+003,1.618245e-001
6.757633e+003,1.803078e-001
6.761490e+003,1.725662e-001
6.765347e+003,1.690077e-001
6.769204e+003,1.794998e-001
6.773061e+003,1.873608e-001
6.776918e+003,1.851774e-001
6.780775e+003,1.494975e-001
6.784632e+003,1.201287e-001
6.788489e+003,1.494006e-001
6.792347e+003,2.009611e-001
6.796204e+003,2.006776e-001
6.800061e+003,1.693581e-001
6.803918e+003,1.486971e-001
6.807775e+003,1.714141e-001
6.811632e+003,1.596418e-001
6.815489e+003,1.505879e-001
6.819346e+003,1.520273e-001
6.823203e+003,1.541553e-001
6.827061e+003,1.582906e-001
6.830917e+003,1.580466e-001
6.834774e+003,1.491208e-001
6.838632e+003,1.355344e-001
6.842489e+003,1.481547e-001
6.846346e+003,1.582005e-001
6.850203e+003,1.472991e-001
6.854060e+003,1.442742e-001
6.857917e+003,1.247014e-001
6.861774e+003,1.120328e-001
6.865631e+003,1.371515e-001
6.869488e+003,1.617702e-001
6.873346e+003,1.515083e-001
6.877203e+003,1.467616e-001
6.881060e+003,1.319274e-001
6.884917e+003,1.220918e-001
6.888774e+003,1.399886e-001
6.892631e+003,1.366208e-001
6.896488e+003,1.327258e-001
6.900345e+003,1.493270e-001
6.904202e+003,1.457198e-001
6.908060e+003,1.379721e-001
6.911917e+003,1.572725e-001
6.915773e+003,1.676196e-001
6.919631e+003,1.450833e-001
6.923488e+003,1.483375e-001
6.927345e+003,1.815038e-001
6.931202e+003,1.641577e-001
6.935059e+003,1.457282e-001
6.938916e+003,1.341466e-001
6.942773e+003,1.549622e-001
6.946630e+003,1.598069e-001
6.950487e+003,1.489651e-001
6.954345e+003,1.354359e-001
6.958202e+003,1.383019e-001
6.962059e+003,1.489897e-001
6.965916e+003,1.426181e-001
6.969773e+003,1.544551e-001
6.973630e+003,1.791054e-001
6.977487e+003,1.529233e-001
6.981344e+003,1.322043e-001
6.985201e+003,1.450440e-001
6.989059e+003,1.501365e-001
6.992916e+003,1.449837e-001
6.996772e+003,1.103478e-001
7.000630e+003,9.555698e-002
7.004487e+003,1.020579e-001
7.008344e+003,1.293003e-001
7.012201e+003,1.480834e-001
7.016058e+003,1.556861e-001
7.019915e+003,1.595443e-001
7.023772e+003,1.634955e-001
7.027629e+003,1.429229e-001
7.031486e+003,1.478016e-001
7.035344e+003,1.751645e-001
7.039201e+003,1.709697e-001
7.043058e+003,1.766528e-001
7.046915e+003,1.846789e-001
7.050772e+003,1.603050e-001
7.054629e+003,1.487388e-001
7.058486e+003,1.370215e-001
7.062343e+003,1.441580e-001
7.066200e+003,1.618730e-001
7.070058e+003,1.973322e-001
7.073915e+003,1.985513e-001
7.077771e+003,1.793877e-001
7.081629e+003,1.625847e-001
7.085486e+003,1.272044e-001
7.089343e+003,9.331971e-002
7.093200e+003,1.176844e-001
7.097057e+003,1.444754e-001
7.100914e+003,1.398828e-001
7.104771e+003,1.664925e-001
7.108628e+003,1.512015e-001
7.112485e+003,1.221089e-001
7.116343e+003,1.294222e-001
7.120200e+003,1.262259e-001
7.124057e+003,1.213992e-001
7.127914e+003,1.629854e-001
7.131771e+003,2.027340e-001
7.135628e+003,2.016303e-001
7.139485e+003,1.375425e-001
7.143342e+003,1.207732e-001
7.147199e+003,1.533038e-001
7.151057e+003,1.523651e-001
7.154914e+003,1.505934e-001
7.158771e+003,1.376554e-001
7.162628e+003,1.411320e-001
7.166485e+003,1.458802e-001
7.170342e+003,1.388389e-001
7.174199e+003,1.425972e-001
7.178056e+003,1.495317e-001
7.181913e+003,1.493804e-001
7.185771e+003,1.462373e-001
7.189627e+003,1.688646e-001
7.193484e+003,1.900603e-001
7.197342e+003,1.557359e-001
7.201199e+003,1.737850e-001
7.205056e+003,2.168407e-001
7.208913e+003,2.005001e-001
7.212770e+003,1.473811e-001
7.216627e+003,1.398652e-001
7.220484e+003,1.565189e-001
7.224341e+003,1.807997e-001
7.228198e+003,1.509827e-001
7.232056e+003,1.204355e-001
7.235913e+003,1.312800e-001
7.239770e+003,1.725060e-001
7.243627e+003,1.892914e-001
7.247484e+003,1.812789e-001
7.251341e+003,1.767913e-001
7.255198e+003,1.610482e-001
7.259055e+003,1.348791e-001
7.262912e+003,1.470092e-001
7.266770e+003,1.472271e-001
7.270626e+003,1.441334e-001
7.274483e+003,1.609343e-001
7.278341e+003,1.651990e-001
7.282198e+003,1.589593e-001
7.286055e+003,1.347014e-001
7.289912e+003,1.252648e-001
7.293769e+003,1.582736e-001
7.297626e+003,1.825027e-001
7.301483e+003,1.602526e-001
7.305340e+003,1.678531e-001
7.309197e+003,1.592583e-001
7.313055e+003,1.379114e-001
7.316912e+003,1.340127e-001
7.320769e+003,1.061785e-001
7.324626e+003,1.328325e-001
7.328483e+003,1.886351e-001
7.332340e+003,1.413828e-001
7.336197e+003,1.085214e-001
7.340054e+003,1.456118e-001
7.343911e+003,1.786840e-001
7.347769e+003,1.793573e-001
7.351625e+003,1.384703e-001
7.355482e+003,1.256914e-001
7.359340e+003,1.470552e-001
7.363197e+003,1.583867e-001
7.367054e+003,1.419307e-001
7.370911e+003,1.664800e-001
7.374768e+003,1.579807e-001
7.378625e+003,1.277222e-001
7.382482e+003,1.461096e-001
7.386339e+003,1.587912e-001
7.390196e+003,1.631834e-001
7.394054e+003,1.426022e-001
7.397911e+003,1.226564e-001
7.401768e+003,1.637295e-001
7.405625e+003,1.860450e-001
7.409482e+003,1.567283e-001
7.413339e+003,1.562608e-001
7.417196e+003,1.561861e-001
7.421053e+003,1.588380e-001
7.424910e+003,1.765587e-001
7.428768e+003,1.396464e-001
7.432625e+003,1.031014e-001
7.436481e+003,1.245422e-001
7.440339e+003,1.702835e-001
7.444196e+003,2.141198e-001
7.448053e+003,2.082283e-001
7.451910e+003,1.631958e-001
7.455767e+003,1.662126e-001
7.459624e+003,1.932348e-001
7.463481e+003,1.582880e-001
7.467338e+003,1.505473e-001
7.471195e+003,1.656976e-001
7.475053e+003,1.735712e-001
7.478910e+003,1.386787e-001
7.482767e+003,1.202265e-001
7.486624e+003,8.191019e-002
7.490481e+003,9.194897e-002
7.494338e+003,1.516991e-001
7.498195e+003,1.723753e-001
7.502052e+003,1.513054e-001
7.505909e+003,1.724894e-001
7.509767e+003,1.757912e-001
7.513624e+003,1.663199e-001
7.517480e+003,1.616955e-001
7.521338e+003,1.430025e-001
7.525195e+003,1.287554e-001
7.529052e+003,1.302232e-001
7.532909e+003,1.213415e-001
7.536766e+003,1.235137e-001
7.540623e+003,1.242568e-001
7.544480e+003,1.348082e-001
7.548337e+003,1.485882e-001
7.552194e+003,1.449710e-001
7.556052e+003,1.808975e-001
7.559909e+003,1.792906e-001
7.563766e+003,1.316237e-001
7.567623e+003,1.543817e-001
7.571480e+003,1.426837e-001
7.575337e+003,1.372386e-001
7.579194e+003,1.466407e-001
7.583051e+003,2.203530e-001
7.586908e+003,1.990888e-001
7.590766e+003,1.396225e-001
7.594623e+003,1.483617e-001
7.598479e+003,1.681280e-001
7.602337e+003,1.628815e-001
7.606194e+003,2.105803e-001
7.610051e+003,2.596325e-001
7.613908e+003,2.682175e-001
7.617765e+003,1.857621e-001
7.621622e+003,1.175690e-001
7.625479e+003,1.327268e-001
7.629336e+003,1.172888e-001
7.633193e+003,1.024117e-001
7.637051e+003,1.782976e-001
7.640908e+003,2.335322e-001
7.644765e+003,2.198794e-001
7.648622e+003,2.192941e-001
7.652479e+003,1.934260e-001
7.656336e+003,1.110603e-001
7.660193e+003,6.289308e-002
7.664050e+003,8.452491e-002
7.667907e+003,8.896214e-002
7.671765e+003,1.143657e-001
7.675622e+003,1.519196e-001
7.679479e+003,1.863909e-001
7.683336e+003,1.683441e-001
7.687193e+003,6.869059e-002
7.691050e+003,4.572447e-002
7.694907e+003,9.528935e-002
7.698764e+003,1.223944e-001
7.702621e+003,1.409156e-001
7.706479e+003,1.549952e-001
7.710335e+003,1.711938e-001
7.714192e+003,1.312563e-001
7.718050e+003,9.336846e-002
7.721907e+003,1.527820e-001
7.725764e+003,1.821376e-001
7.729621e+003,1.037669e-001
7.733478e+003,8.559035e-002
7.737335e+003,1.003520e-001
7.741192e+003,1.166830e-001
7.745049e+003,1.703813e-001
7.748906e+003,1.536417e-001
7.752764e+003,8.408754e-002
7.756621e+003,1.119796e-001
7.760478e+003,1.271316e-001
7.764335e+003,1.149379e-001
7.768192e+003,8.869484e-002
7.772049e+003,1.361393e-001
7.775906e+003,2.160247e-001
7.779763e+003,1.874618e-001
7.783620e+003,1.527341e-001
7.787478e+003,1.882100e-001
7.791334e+003,2.160419e-001
7.795191e+003,2.536693e-001
7.799049e+003,2.411421e-001
7.802906e+003,1.391031e-001
7.806763e+003,9.672185e-002
7.810620e+003,9.272052e-002
7.814477e+003,1.423680e-001
7.818334e+003,2.067942e-001
7.822191e+003,1.730070e-001
7.826048e+003,1.220329e-001
7.829905e+003,6.855089e-002
7.833763e+003,7.767326e-002
7.837620e+003,1.036104e-001
7.841477e+003,8.539936e-002
7.845334e+003,-4.914920e-002
7.849191e+003,4.790234e-003
7.853048e+003,1.415818e-001
7.856905e+003,1.359211e-001
7.860762e+003,1.060158e-001
7.864619e+003,1.096127e-001
7.868477e+003,1.289415e-001
7.872333e+003,2.006005e-001
7.876190e+003,1.324544e-001
7.880048e+003,5.919245e-002
7.883905e+003,1.006040e-001
7.887762e+003,1.666099e-001
7.891619e+003,2.329580e-001
7.895476e+003,2.553203e-001
7.899333e+003,1.809492e-001
7.903190e+003,1.335616e-001
7.907047e+003,1.938606e-001
7.910904e+003,1.237973e-001
7.914762e+003,7.954607e-002
7.918619e+003,1.544084e-001
7.922476e+003,1.603028e-001
7.926333e+003,8.769276e-002
7.930190e+003,8.172745e-002
7.934047e+003,1.267378e-001
7.937904e+003,2.159958e-001
7.941761e+003,2.370214e-001
7.945618e+003,1.953759e-001
7.949476e+003,1.769249e-001
7.953333e+003,1.113857e-001
7.957189e+003,1.155116e-001
7.961047e+003,1.272398e-001
7.964904e+003,1.657694e-001
7.968761e+003,2.581849e-001
7.972618e+003,2.814520e-001
7.976475e+003,2.984256e-001
7.980332e+003,3.091307e-001
7.984189e+003,1.832725e-001
7.988046e+003,2.107910e-001
7.991903e+003,1.656592e-001
7.995761e+003,9.307619e-002
7.999618e+003,9.526455e-002
