4.011380e+002,6.000000e+000
4.049951e+002,6.000000e+000
4.088522e+002,6.000000e+000
4.127093e+002,6.000000e+000
4.165664e+002,6.000000e+000
4.204235e+002,1.903680e-002
4.242806e+002,3.764202e-001
4.281377e+002,6.000000e+000
4.319948e+002,6.000000e+000
4.358519e+002,6.000000e+000
4.397090e+002,6.000000e+000
4.435661e+002,6.000000e+000
4.474232e+002,3.259994e-001
4.512803e+002,-6.183438e-001
4.551374e+002,-5.935568e-001
4.589945e+002,-6.616387e-002
4.628516e+002,6.000000e+000
4.667087e+002,6.000000e+000
4.705658e+002,6.000000e+000
4.744229e+002,6.000000e+000
4.782800e+002,6.000000e+000
4.821371e+002,6.000000e+000
4.859941e+002,7.440417e-001
4.898513e+002,2.899078e-001
4.937083e+002,-5.494681e-002
4.975654e+002,1.613606e-001
5.014225e+002,-1.154775e-001
5.052796e+002,8.322667e-002
5.091367e+002,6.000000e+000
5.129938e+002,6.000000e+000
5.168509e+002,6.000000e+000
5.207080e+002,6.000000e+000
5.245651e+002,6.000000e+000
5.284222e+002,6.000000e+000
5.322793e+002,3.992842e-001
5.361364e+002,-1.716249e-001
5.399935e+002,1.829065e-002
5.438506e+002,9.361272e-001
5.477077e+002,6.000000e+000
5.515648e+002,6.000000e+000
5.554219e+002,5.164185e-001
5.592790e+002,4.557747e-001
5.631361e+002,5.977266e-001
5.669932e+002,4.275229e-001
5.708503e+002,3.444349e-001
5.747074e+002,3.472952e-001
5.785645e+002,8.748970e-002
5.824216e+002,1.001935e-001
5.862787e+002,4.979315e-001
5.901357e+002,6.000000e+000
5.939929e+002,6.000000e+000
5.978499e+002,6.000000e+000
6.017070e+002,2.676512e-001
6.055641e+002,-2.677324e-001
6.094212e+002,3.020316e-002
6.132783e+002,8.953711e-001
6.171354e+002,2.342688e-003
6.209925e+002,-1.207454e-001
6.248496e+002,-1.208118e-001
6.287067e+002,6.000000e+000
6.325638e+002,6.000000e+000
6.364209e+002,3.901308e-001
6.402780e+002,6.000000e+000
6.441351e+002,6.000000e+000
6.479922e+002,6.000000e+000
6.518493e+002,6.000000e+000
6.557064e+002,6.000000e+000
6.595635e+002,2.190919e+000
6.634205e+002,6.000000e+000
6.672777e+002,6.000000e+000
6.711348e+002,6.000000e+000
6.749918e+002,3.857094e-001
6.788490e+002,6.000000e+000
6.827061e+002,8.325715e-001
6.865631e+002,2.849116e-001
6.904203e+002,6.000000e+000
6.942773e+002,6.000000e+000
6.981344e+002,6.000000e+000
7.019916e+002,6.740694e-001
7.058486e+002,8.580197e-001
7.097057e+002,6.000000e+000
7.135629e+002,6.000000e+000
7.174199e+002,9.981889e-001
7.212770e+002,6.000000e+000
7.251342e+002,-7.957829e-001
7.289912e+002,6.000000e+000
7.328483e+002,6.000000e+000
7.367054e+002,6.000000e+000
7.405625e+002,6.916449e-001
7.444196e+002,-7.661945e-001
7.482767e+002,-6.046425e-001
7.521338e+002,3.247881e-001
7.559908e+002,6.000000e+000
7.598480e+002,1.916709e-001
7.637051e+002,6.000000e+000
7.675621e+002,6.000000e+000
7.714193e+002,6.000000e+000
7.752764e+002,6.000000e+000
7.791334e+002,-2.807917e-001
7.829905e+002,2.896475e-001
7.868477e+002,6.000000e+000
7.907047e+002,-1.400306e-001
7.945618e+002,1.011251e-001
7.984189e+002,4.616483e-002
8.022760e+002,6.524976e-001
8.061331e+002,6.000000e+000
8.099902e+002,6.000000e+000
8.138473e+002,7.348801e-001
8.177044e+002,2.044936e+000
8.215615e+002,6.000000e+000
8.254186e+002,6.000000e+000
8.292757e+002,1.923301e+000
8.331328e+002,1.016447e+000
8.369899e+002,1.309973e+000
8.408470e+002,1.447348e+000
8.447041e+002,1.321356e+000
8.485612e+002,1.224093e+000
8.524183e+002,1.262036e+000
8.562754e+002,1.524507e+000
8.601324e+002,3.051830e+000
8.639896e+002,6.000000e+000
8.678467e+002,6.000000e+000
8.717037e+002,1.914292e+000
8.755609e+002,2.394563e+000
8.794180e+002,6.000000e+000
8.832750e+002,2.827221e+000
8.871321e+002,1.692185e+000
8.909893e+002,1.532249e+000
8.948463e+002,1.695244e+000
8.987034e+002,1.707577e+000
9.025605e+002,1.660401e+000
9.064176e+002,1.878555e+000
9.102747e+002,2.330383e+000
9.141318e+002,3.876482e+000
9.179889e+002,1.963661e+000
9.218461e+002,1.721144e+000
9.257031e+002,1.868825e+000
9.295602e+002,2.433086e+000
9.334174e+002,3.304126e+000
9.372744e+002,2.435470e+000
9.411315e+002,2.459605e+000
9.449886e+002,6.000000e+000
9.488457e+002,6.000000e+000
9.527028e+002,2.525857e+000
9.565599e+002,2.052596e+000
9.604170e+002,2.215020e+000
9.642740e+002,3.373041e+000
9.681312e+002,3.303644e+000
9.719883e+002,2.541682e+000
9.758453e+002,2.203420e+000
9.797025e+002,2.050643e+000
9.835596e+002,2.196029e+000
9.874166e+002,2.353536e+000
9.912738e+002,2.319723e+000
9.951309e+002,2.239789e+000
9.989879e+002,2.331558e+000
1.002845e+003,2.625468e+000
1.006702e+003,2.831854e+000
1.010559e+003,2.599195e+000
1.014416e+003,2.188414e+000
1.018273e+003,2.149863e+000
1.022130e+003,2.186773e+000
1.025988e+003,2.179830e+000
1.029845e+003,2.195800e+000
1.033702e+003,2.271802e+000
1.037559e+003,2.061500e+000
1.041416e+003,2.013031e+000
1.045273e+003,2.128568e+000
1.049130e+003,2.092999e+000
1.052987e+003,2.058906e+000
1.056844e+003,1.964127e+000
1.060702e+003,1.987009e+000
1.064559e+003,1.934782e+000
1.068416e+003,1.906979e+000
1.072273e+003,1.991320e+000
1.076130e+003,2.043709e+000
1.079987e+003,1.953960e+000
1.083844e+003,1.983210e+000
1.087701e+003,1.973068e+000
1.091558e+003,1.985385e+000
1.095415e+003,1.986173e+000
1.099272e+003,1.900890e+000
1.103130e+003,1.844665e+000
1.106987e+003,1.796710e+000
1.110844e+003,1.753062e+000
1.114701e+003,1.758620e+000
1.118558e+003,1.727631e+000
1.122415e+003,1.696800e+000
1.126272e+003,1.701929e+000
1.130129e+003,1.725618e+000
1.133986e+003,1.733418e+000
1.137843e+003,1.720833e+000
1.141701e+003,1.706394e+000
1.145558e+003,1.713588e+000
1.149415e+003,1.696714e+000
1.153272e+003,1.670821e+000
1.157129e+003,1.669082e+000
1.160986e+003,1.670325e+000
1.164843e+003,1.703990e+000
1.168700e+003,1.731775e+000
1.172557e+003,1.696412e+000
1.176414e+003,1.671192e+000
1.180271e+003,1.674372e+000
1.184129e+003,1.650980e+000
1.187986e+003,1.643886e+000
1.191843e+003,1.628146e+000
1.195700e+003,1.573697e+000
1.199557e+003,1.545882e+000
1.203414e+003,1.546322e+000
1.207271e+003,1.513032e+000
1.211128e+003,1.434871e+000
1.214985e+003,1.343416e+000
1.218842e+003,1.242413e+000
1.222699e+003,1.144864e+000
1.226557e+003,1.057313e+000
1.230414e+003,9.808491e-001
1.234271e+003,9.100377e-001
1.238128e+003,8.527558e-001
1.241985e+003,8.016182e-001
1.245842e+003,7.539900e-001
1.249699e+003,7.160603e-001
1.253556e+003,6.851596e-001
1.257413e+003,6.552451e-001
1.261271e+003,6.267869e-001
1.265128e+003,6.031692e-001
1.268985e+003,5.827482e-001
1.272842e+003,5.631773e-001
1.276699e+003,5.458402e-001
1.280556e+003,5.313209e-001
1.284413e+003,5.155457e-001
1.288270e+003,5.026953e-001
1.292127e+003,4.905972e-001
1.295984e+003,4.789343e-001
1.299841e+003,4.692110e-001
1.303698e+003,4.595327e-001
1.307556e+003,4.501529e-001
1.311413e+003,4.427955e-001
1.315270e+003,4.361481e-001
1.319127e+003,4.290679e-001
1.322984e+003,4.223987e-001
1.326841e+003,4.154907e-001
1.330698e+003,4.084828e-001
1.334555e+003,4.023606e-001
1.338412e+003,3.976960e-001
1.342270e+003,3.960245e-001
1.346127e+003,3.961769e-001
1.349984e+003,3.940349e-001
1.353841e+003,3.922652e-001
1.357698e+003,3.936803e-001
1.361555e+003,3.964973e-001
1.365412e+003,3.988541e-001
1.369269e+003,4.028094e-001
1.373126e+003,4.100060e-001
1.376983e+003,4.166515e-001
1.380840e+003,4.234889e-001
1.384698e+003,4.311159e-001
1.388555e+003,4.386133e-001
1.392412e+003,4.483490e-001
1.396269e+003,4.590584e-001
1.400126e+003,4.706260e-001
1.403983e+003,4.831022e-001
1.407840e+003,4.951756e-001
1.411697e+003,5.072188e-001
1.415554e+003,5.187869e-001
1.419411e+003,5.291825e-001
1.423269e+003,5.407692e-001
1.427126e+003,5.497776e-001
1.430983e+003,5.538064e-001
1.434840e+003,5.541095e-001
1.438697e+003,5.526350e-001
1.442554e+003,5.485458e-001
1.446411e+003,5.426745e-001
1.450268e+003,5.348264e-001
1.454125e+003,5.259929e-001
1.457982e+003,5.147465e-001
1.461839e+003,5.063227e-001
1.465697e+003,4.996240e-001
1.469554e+003,4.960164e-001
1.473411e+003,4.949443e-001
1.477268e+003,4.981457e-001
1.481125e+003,5.040419e-001
1.484982e+003,5.136825e-001
1.488839e+003,5.229495e-001
1.492696e+003,5.318700e-001
1.496553e+003,5.412889e-001
1.500411e+003,5.505624e-001
1.504268e+003,5.551863e-001
1.508125e+003,5.565655e-001
1.511982e+003,5.583124e-001
1.515839e+003,5.578942e-001
1.519696e+003,5.541898e-001
1.523553e+003,5.480953e-001
1.527410e+003,5.398811e-001
1.531267e+003,5.294831e-001
1.535124e+003,5.186665e-001
1.538981e+003,5.074823e-001
1.542839e+003,4.952811e-001
1.546696e+003,4.836254e-001
1.550553e+003,4.721443e-001
1.554410e+003,4.626816e-001
1.558267e+003,4.527160e-001
1.562124e+003,4.428211e-001
1.565981e+003,4.357667e-001
1.569838e+003,4.320056e-001
1.573695e+003,4.287319e-001
1.577552e+003,4.254802e-001
1.581410e+003,4.245554e-001
1.585267e+003,4.268378e-001
1.589124e+003,4.302646e-001
1.592981e+003,4.354380e-001
1.596838e+003,4.450355e-001
1.600695e+003,4.580701e-001
1.604552e+003,4.735176e-001
1.608409e+003,4.931714e-001
1.612266e+003,5.151431e-001
1.616123e+003,5.408013e-001
1.619980e+003,5.689654e-001
1.623838e+003,5.950802e-001
1.627695e+003,6.153799e-001
1.631552e+003,6.300837e-001
1.635409e+003,6.391633e-001
1.639266e+003,6.406094e-001
1.643123e+003,6.338733e-001
1.646980e+003,6.225833e-001
1.650837e+003,6.042953e-001
1.654694e+003,5.811632e-001
1.658551e+003,5.597790e-001
1.662409e+003,5.398450e-001
1.666266e+003,5.178891e-001
1.670123e+003,4.941911e-001
1.673980e+003,4.708181e-001
1.677837e+003,4.497499e-001
1.681694e+003,4.308771e-001
1.685551e+003,4.135926e-001
1.689408e+003,3.991079e-001
1.693265e+003,3.857657e-001
1.697122e+003,3.742128e-001
1.700979e+003,3.631401e-001
1.704837e+003,3.528096e-001
1.708694e+003,3.449679e-001
1.712551e+003,3.394415e-001
1.716408e+003,3.351843e-001
1.720265e+003,3.308638e-001
1.724122e+003,3.270008e-001
1.727979e+003,3.229120e-001
1.731836e+003,3.196481e-001
1.735693e+003,3.178627e-001
1.739550e+003,3.159305e-001
1.743408e+003,3.138279e-001
1.747265e+003,3.125077e-001
1.751122e+003,3.115073e-001
1.754979e+003,3.101019e-001
1.758836e+003,3.074582e-001
1.762693e+003,3.063002e-001
1.766550e+003,3.063158e-001
1.770407e+003,3.048897e-001
1.774264e+003,3.018678e-001
1.778121e+003,2.993849e-001
1.781979e+003,2.976804e-001
1.785836e+003,2.957186e-001
1.789693e+003,2.947859e-001
1.793550e+003,2.927368e-001
1.797407e+003,2.890696e-001
1.801264e+003,2.869890e-001
1.805121e+003,2.871763e-001
1.808978e+003,2.864197e-001
1.812835e+003,2.847745e-001
1.816692e+003,2.834024e-001
1.820549e+003,2.824227e-001
1.824407e+003,2.811830e-001
1.828264e+003,2.801698e-001
1.832121e+003,2.803455e-001
1.835978e+003,2.792259e-001
1.839835e+003,2.772691e-001
1.843692e+003,2.758687e-001
1.847549e+003,2.742116e-001
1.851406e+003,2.731570e-001
1.855263e+003,2.720205e-001
1.859120e+003,2.709550e-001
1.862978e+003,2.696794e-001
1.866835e+003,2.673801e-001
1.870692e+003,2.658224e-001
1.874549e+003,2.650286e-001
1.878406e+003,2.640477e-001
1.882263e+003,2.633470e-001
1.886120e+003,2.622838e-001
1.889977e+003,2.603427e-001
1.893834e+003,2.593853e-001
1.897691e+003,2.587631e-001
1.901548e+003,2.572797e-001
1.905406e+003,2.566538e-001
1.909263e+003,2.555459e-001
1.913120e+003,2.549577e-001
1.916977e+003,2.547496e-001
1.920834e+003,2.526374e-001
1.924691e+003,2.503526e-001
1.928548e+003,2.491419e-001
1.932405e+003,2.486770e-001
1.936262e+003,2.473534e-001
1.940119e+003,2.456043e-001
1.943977e+003,2.447003e-001
1.947834e+003,2.434019e-001
1.951691e+003,2.412333e-001
1.955548e+003,2.397682e-001
1.959405e+003,2.388810e-001
1.963262e+003,2.375028e-001
1.967119e+003,2.360868e-001
1.970976e+003,2.345947e-001
1.974833e+003,2.330004e-001
1.978690e+003,2.317658e-001
1.982547e+003,2.312774e-001
1.986405e+003,2.298813e-001
1.990262e+003,2.286086e-001
1.994119e+003,2.270665e-001
1.997976e+003,2.258930e-001
2.001833e+003,2.249029e-001
2.005690e+003,2.236012e-001
2.009547e+003,2.232788e-001
2.013404e+003,2.230652e-001
2.017261e+003,2.221203e-001
2.021118e+003,2.213286e-001
2.024976e+003,2.204261e-001
2.028833e+003,2.197654e-001
2.032690e+003,2.188408e-001
2.036547e+003,2.176209e-001
2.040404e+003,2.171831e-001
2.044261e+003,2.168325e-001
2.048118e+003,2.163360e-001
2.051975e+003,2.154520e-001
2.055832e+003,2.139346e-001
2.059689e+003,2.130912e-001
2.063546e+003,2.123572e-001
2.067404e+003,2.115987e-001
2.071261e+003,2.102943e-001
2.075118e+003,2.098023e-001
2.078975e+003,2.093223e-001
2.082832e+003,2.082586e-001
2.086689e+003,2.072400e-001
2.090546e+003,2.070883e-001
2.094403e+003,2.073355e-001
2.098260e+003,2.066853e-001
2.102117e+003,2.061013e-001
2.105975e+003,2.064798e-001
2.109832e+003,2.067995e-001
2.113689e+003,2.070717e-001
2.117546e+003,2.070973e-001
2.121403e+003,2.073569e-001
2.125260e+003,2.079740e-001
2.129117e+003,2.079332e-001
2.132974e+003,2.083325e-001
2.136831e+003,2.086510e-001
2.140688e+003,2.091105e-001
2.144545e+003,2.095240e-001
2.148403e+003,2.089121e-001
2.152260e+003,2.076621e-001
2.156117e+003,2.081417e-001
2.159974e+003,2.086540e-001
2.163831e+003,2.078484e-001
2.167688e+003,2.068495e-001
2.171545e+003,2.068179e-001
2.175402e+003,2.069722e-001
2.179259e+003,2.068789e-001
2.183116e+003,2.071432e-001
2.186974e+003,2.077693e-001
2.190831e+003,2.088342e-001
2.194688e+003,2.090636e-001
2.198545e+003,2.095673e-001
2.202402e+003,2.099245e-001
2.206259e+003,2.113592e-001
2.210116e+003,2.139207e-001
2.213973e+003,2.152031e-001
2.217830e+003,2.167516e-001
2.221688e+003,2.179977e-001
2.225544e+003,2.187817e-001
2.229402e+003,2.195549e-001
2.233259e+003,2.202158e-001
2.237116e+003,2.203689e-001
2.240973e+003,2.206198e-001
2.244830e+003,2.208505e-001
2.248687e+003,2.212729e-001
2.252544e+003,2.213847e-001
2.256401e+003,2.209658e-001
2.260258e+003,2.213830e-001
2.264115e+003,2.215834e-001
2.267973e+003,2.222345e-001
2.271830e+003,2.229853e-001
2.275687e+003,2.231766e-001
2.279544e+003,2.236678e-001
2.283401e+003,2.245204e-001
2.287258e+003,2.253671e-001
2.291115e+003,2.269984e-001
2.294972e+003,2.286922e-001
2.298829e+003,2.299762e-001
2.302687e+003,2.313450e-001
2.306543e+003,2.336851e-001
2.310401e+003,2.354674e-001
2.314258e+003,2.359339e-001
2.318115e+003,2.367336e-001
2.321972e+003,2.379304e-001
2.325829e+003,2.395919e-001
2.329686e+003,2.408471e-001
2.333543e+003,2.406964e-001
2.337400e+003,2.398110e-001
2.341257e+003,2.392607e-001
2.345115e+003,2.385265e-001
2.348972e+003,2.385924e-001
2.352829e+003,2.391511e-001
2.356686e+003,2.387743e-001
2.360543e+003,2.375103e-001
2.364400e+003,2.372763e-001
2.368257e+003,2.379333e-001
2.372114e+003,2.381531e-001
2.375971e+003,2.388946e-001
2.379828e+003,2.386987e-001
2.383686e+003,2.386307e-001
2.387542e+003,2.390122e-001
2.391400e+003,2.394754e-001
2.395257e+003,2.403347e-001
2.399114e+003,2.413701e-001
2.402971e+003,2.426423e-001
2.406828e+003,2.426213e-001
2.410685e+003,2.429147e-001
2.414542e+003,2.432337e-001
2.418399e+003,2.438135e-001
2.422256e+003,2.438229e-001
2.426114e+003,2.435088e-001
2.429971e+003,2.424639e-001
2.433828e+003,2.405687e-001
2.437685e+003,2.388015e-001
2.441542e+003,2.375730e-001
2.445399e+003,2.364824e-001
2.449256e+003,2.356647e-001
2.453113e+003,2.342782e-001
2.456970e+003,2.335818e-001
2.460827e+003,2.333542e-001
2.464684e+003,2.331043e-001
2.468542e+003,2.335215e-001
2.472399e+003,2.349500e-001
2.476256e+003,2.363352e-001
2.480113e+003,2.370601e-001
2.483970e+003,2.374941e-001
2.487827e+003,2.385666e-001
2.491684e+003,2.398338e-001
2.495541e+003,2.413524e-001
2.499398e+003,2.426741e-001
2.503255e+003,2.434122e-001
2.507113e+003,2.445772e-001
2.510969e+003,2.453817e-001
2.514827e+003,2.446436e-001
2.518684e+003,2.437889e-001
2.522541e+003,2.436085e-001
2.526398e+003,2.436781e-001
2.530255e+003,2.430763e-001
2.534112e+003,2.432464e-001
2.537969e+003,2.437545e-001
2.541826e+003,2.440287e-001
2.545683e+003,2.448063e-001
2.549541e+003,2.452072e-001
2.553398e+003,2.464172e-001
2.557255e+003,2.489364e-001
2.561112e+003,2.514064e-001
2.564969e+003,2.528601e-001
2.568826e+003,2.555400e-001
2.572683e+003,2.593561e-001
2.576540e+003,2.624373e-001
2.580397e+003,2.648464e-001
2.584254e+003,2.671743e-001
2.588112e+003,2.695292e-001
2.591969e+003,2.718577e-001
2.595826e+003,2.751788e-001
2.599683e+003,2.778306e-001
2.603540e+003,2.788454e-001
2.607397e+003,2.796286e-001
2.611254e+003,2.802041e-001
2.615111e+003,2.824226e-001
2.618968e+003,2.841941e-001
2.622825e+003,2.848231e-001
2.626682e+003,2.854271e-001
2.630540e+003,2.871858e-001
2.634397e+003,2.894809e-001
2.638254e+003,2.925335e-001
2.642111e+003,2.942384e-001
2.645968e+003,2.961800e-001
2.649825e+003,3.000267e-001
2.653682e+003,3.041054e-001
2.657539e+003,3.084683e-001
2.661396e+003,3.123263e-001
2.665253e+003,3.159452e-001
2.669111e+003,3.202063e-001
2.672968e+003,3.234641e-001
2.676825e+003,3.266556e-001
2.680682e+003,3.322598e-001
2.684539e+003,3.374147e-001
2.688396e+003,3.403135e-001
2.692253e+003,3.419440e-001
2.696110e+003,3.445335e-001
2.699967e+003,3.475470e-001
2.703824e+003,3.504605e-001
2.707681e+003,3.538981e-001
2.711539e+003,3.558577e-001
2.715396e+003,3.571970e-001
2.719253e+003,3.595059e-001
2.723110e+003,3.626946e-001
2.726967e+003,3.664778e-001
2.730824e+003,3.700054e-001
2.734681e+003,3.741846e-001
2.738538e+003,3.783078e-001
2.742395e+003,3.814451e-001
2.746252e+003,3.842873e-001
2.750110e+003,3.883719e-001
2.753967e+003,3.935323e-001
2.757824e+003,4.001795e-001
2.761681e+003,4.060363e-001
2.765538e+003,4.098877e-001
2.769395e+003,4.132525e-001
2.773252e+003,4.181971e-001
2.777109e+003,4.237826e-001
2.780966e+003,4.272976e-001
2.784823e+003,4.297908e-001
2.788680e+003,4.328730e-001
2.792538e+003,4.368856e-001
2.796395e+003,4.411146e-001
2.800252e+003,4.443691e-001
2.804109e+003,4.465349e-001
2.807966e+003,4.503922e-001
2.811823e+003,4.542651e-001
2.815680e+003,4.580925e-001
2.819537e+003,4.623855e-001
2.823394e+003,4.657461e-001
2.827251e+003,4.703541e-001
2.831109e+003,4.756135e-001
2.834966e+003,4.807143e-001
2.838823e+003,4.861517e-001
2.842680e+003,4.915053e-001
2.846537e+003,4.994479e-001
2.850394e+003,5.061320e-001
2.854251e+003,5.094178e-001
2.858108e+003,5.140458e-001
2.861965e+003,5.191074e-001
2.865823e+003,5.223481e-001
2.869679e+003,5.266337e-001
2.873537e+003,5.318162e-001
2.877394e+003,5.362643e-001
2.881251e+003,5.396683e-001
2.885108e+003,5.456046e-001
2.888965e+003,5.515116e-001
2.892822e+003,5.558156e-001
2.896679e+003,5.594787e-001
2.900536e+003,5.635805e-001
2.904393e+003,5.702666e-001
2.908250e+003,5.775535e-001
2.912108e+003,5.844336e-001
2.915965e+003,5.900012e-001
2.919822e+003,5.949434e-001
2.923679e+003,5.995831e-001
2.927536e+003,6.031142e-001
2.931393e+003,6.069453e-001
2.935250e+003,6.120914e-001
2.939107e+003,6.182184e-001
2.942964e+003,6.247444e-001
2.946822e+003,6.304055e-001
2.950678e+003,6.364032e-001
2.954536e+003,6.436036e-001
2.958393e+003,6.489195e-001
2.962250e+003,6.549022e-001
2.966107e+003,6.598554e-001
2.969964e+003,6.622214e-001
2.973821e+003,6.676886e-001
2.977678e+003,6.740054e-001
2.981535e+003,6.781640e-001
2.985392e+003,6.828260e-001
2.989250e+003,6.877149e-001
2.993107e+003,6.936409e-001
2.996964e+003,7.007068e-001
3.000821e+003,7.061466e-001
3.004678e+003,7.093980e-001
3.008535e+003,7.149642e-001
3.012392e+003,7.218345e-001
3.016249e+003,7.279148e-001
3.020106e+003,7.327083e-001
3.023963e+003,7.385519e-001
3.027821e+003,7.463114e-001
3.031677e+003,7.531160e-001
3.035535e+003,7.605515e-001
3.039392e+003,7.672132e-001
3.043249e+003,7.733064e-001
3.047106e+003,7.800790e-001
3.050963e+003,7.847522e-001
3.054820e+003,7.877425e-001
3.058677e+003,7.945953e-001
3.062534e+003,8.044788e-001
3.066391e+003,8.100688e-001
3.070249e+003,8.146219e-001
3.074106e+003,8.230323e-001
3.077963e+003,8.297685e-001
3.081820e+003,8.346046e-001
3.085677e+003,8.419729e-001
3.089534e+003,8.479078e-001
3.093391e+003,8.575904e-001
3.097248e+003,8.670498e-001
3.101105e+003,8.689976e-001
3.104962e+003,8.733136e-001
3.108820e+003,8.846292e-001
3.112677e+003,8.943769e-001
3.116534e+003,9.000828e-001
3.120391e+003,9.080995e-001
3.124248e+003,9.154100e-001
3.128105e+003,9.228916e-001
3.131962e+003,9.320923e-001
3.135819e+003,9.359557e-001
3.139676e+003,9.422128e-001
3.143533e+003,9.538703e-001
3.147390e+003,9.617063e-001
3.151248e+003,9.644617e-001
3.155105e+003,9.696771e-001
3.158962e+003,9.790432e-001
3.162819e+003,9.894003e-001
3.166676e+003,9.976307e-001
3.170533e+003,1.001760e+000
3.174390e+003,1.007904e+000
3.178247e+003,1.020556e+000
3.182104e+003,1.029760e+000
3.185961e+003,1.035687e+000
3.189819e+003,1.042194e+000
3.193676e+003,1.052820e+000
3.197533e+003,1.063370e+000
3.201390e+003,1.077753e+000
3.205247e+003,1.081758e+000
3.209104e+003,1.080219e+000
3.212961e+003,1.083461e+000
3.216818e+003,1.093451e+000
3.220675e+003,1.099574e+000
3.224532e+003,1.108268e+000
3.228389e+003,1.117133e+000
3.232247e+003,1.122752e+000
3.236104e+003,1.131467e+000
3.239961e+003,1.135237e+000
3.243818e+003,1.132578e+000
3.247675e+003,1.139521e+000
3.251532e+003,1.150739e+000
3.255389e+003,1.151141e+000
3.259246e+003,1.153876e+000
3.263103e+003,1.165372e+000
3.266960e+003,1.170448e+000
3.270818e+003,1.167023e+000
3.274675e+003,1.168878e+000
3.278532e+003,1.182161e+000
3.282389e+003,1.181906e+000
3.286246e+003,1.183347e+000
3.290103e+003,1.197000e+000
3.293960e+003,1.206640e+000
3.297817e+003,1.216533e+000
3.301674e+003,1.224132e+000
3.305531e+003,1.230779e+000
3.309388e+003,1.238166e+000
3.313246e+003,1.247229e+000
3.317103e+003,1.249086e+000
3.320960e+003,1.254156e+000
3.324817e+003,1.255172e+000
3.328674e+003,1.257484e+000
3.332531e+003,1.270659e+000
3.336388e+003,1.284307e+000
3.340245e+003,1.299578e+000
3.344102e+003,1.314780e+000
3.347959e+003,1.319823e+000
3.351817e+003,1.319686e+000
3.355674e+003,1.317105e+000
3.359531e+003,1.328239e+000
3.363388e+003,1.343117e+000
3.367245e+003,1.351228e+000
3.371102e+003,1.356126e+000
3.374959e+003,1.349633e+000
3.378816e+003,1.353237e+000
3.382673e+003,1.374087e+000
3.386530e+003,1.397660e+000
3.390387e+003,1.397170e+000
3.394245e+003,1.392788e+000
3.398102e+003,1.395413e+000
3.401959e+003,1.402253e+000
3.405816e+003,1.399618e+000
3.409673e+003,1.402291e+000
3.413530e+003,1.401137e+000
3.417387e+003,1.407854e+000
3.421244e+003,1.420693e+000
3.425101e+003,1.430064e+000
3.428958e+003,1.439354e+000
3.432815e+003,1.443556e+000
3.436673e+003,1.429483e+000
3.440530e+003,1.429624e+000
3.444387e+003,1.437741e+000
3.448244e+003,1.446806e+000
3.452101e+003,1.457865e+000
3.455958e+003,1.463135e+000
3.459815e+003,1.460738e+000
3.463672e+003,1.458233e+000
3.467529e+003,1.466159e+000
3.471386e+003,1.484535e+000
3.475244e+003,1.481264e+000
3.479101e+003,1.484044e+000
3.482958e+003,1.483797e+000
3.486815e+003,1.480290e+000
3.490672e+003,1.485247e+000
3.494529e+003,1.486391e+000
3.498386e+003,1.491418e+000
3.502243e+003,1.482033e+000
3.506100e+003,1.469147e+000
3.509958e+003,1.484562e+000
3.513814e+003,1.496190e+000
3.517672e+003,1.505655e+000
3.521529e+003,1.511699e+000
3.525386e+003,1.506557e+000
3.529243e+003,1.502888e+000
3.533100e+003,1.504807e+000
3.536957e+003,1.509318e+000
3.540814e+003,1.502605e+000
3.544671e+003,1.481353e+000
3.548528e+003,1.476136e+000
3.552385e+003,1.492225e+000
3.556243e+003,1.490721e+000
3.560100e+003,1.473491e+000
3.563957e+003,1.460762e+000
3.567814e+003,1.451461e+000
3.571671e+003,1.428897e+000
3.575528e+003,1.395806e+000
3.579385e+003,1.377390e+000
3.583242e+003,1.352654e+000
3.587099e+003,1.327125e+000
3.590957e+003,1.300635e+000
3.594813e+003,1.267758e+000
3.598671e+003,1.230127e+000
3.602528e+003,1.184634e+000
3.606385e+003,1.137812e+000
3.610242e+003,1.086864e+000
3.614099e+003,1.038616e+000
3.617956e+003,9.871542e-001
3.621813e+003,9.272903e-001
3.625670e+003,8.717829e-001
3.629527e+003,8.157540e-001
3.633385e+003,7.558617e-001
3.637242e+003,7.008010e-001
3.641099e+003,6.470046e-001
3.644956e+003,5.936275e-001
3.648813e+003,5.410690e-001
3.652670e+003,4.914401e-001
3.656527e+003,4.484974e-001
3.660384e+003,4.085247e-001
3.664241e+003,3.723236e-001
3.668098e+003,3.378389e-001
3.671956e+003,3.083897e-001
3.675813e+003,2.839019e-001
3.679670e+003,2.622438e-001
3.683527e+003,2.424006e-001
3.687384e+003,2.246975e-001
3.691241e+003,2.097803e-001
3.695098e+003,1.958022e-001
3.698955e+003,1.838693e-001
3.702812e+003,1.744576e-001
3.706669e+003,1.659922e-001
3.710526e+003,1.583083e-001
3.714384e+003,1.515686e-001
3.718241e+003,1.471404e-001
3.722098e+003,1.438336e-001
3.725955e+003,1.410176e-001
3.729812e+003,1.372951e-001
3.733669e+003,1.332506e-001
3.737526e+003,1.307948e-001
3.741383e+003,1.285826e-001
3.745240e+003,1.277076e-001
3.749097e+003,1.274008e-001
3.752955e+003,1.261921e-001
3.756812e+003,1.239044e-001
3.760669e+003,1.220508e-001
3.764526e+003,1.199652e-001
3.768383e+003,1.184400e-001
3.772240e+003,1.177597e-001
3.776097e+003,1.165206e-001
3.779954e+003,1.143861e-001
3.783811e+003,1.119907e-001
3.787668e+003,1.112565e-001
3.791525e+003,1.111501e-001
3.795383e+003,1.097246e-001
3.799240e+003,1.085862e-001
3.803097e+003,1.078691e-001
3.806954e+003,1.072221e-001
3.810811e+003,1.078369e-001
3.814668e+003,1.081791e-001
3.818525e+003,1.080421e-001
3.822382e+003,1.082079e-001
3.826239e+003,1.076860e-001
3.830096e+003,1.059646e-001
3.833954e+003,1.057609e-001
3.837811e+003,1.049893e-001
3.841668e+003,1.035756e-001
3.845525e+003,1.030082e-001
3.849382e+003,1.025293e-001
3.853239e+003,1.026840e-001
3.857096e+003,1.031194e-001
3.860953e+003,1.025191e-001
3.864810e+003,1.019521e-001
3.868667e+003,1.014554e-001
3.872524e+003,1.009688e-001
3.876382e+003,1.005034e-001
3.880239e+003,9.920076e-002
3.884096e+003,9.913548e-002
3.887953e+003,1.001775e-001
3.891810e+003,1.001249e-001
3.895667e+003,9.895658e-002
3.899524e+003,9.744691e-002
3.903381e+003,9.687088e-002
3.907238e+003,9.692442e-002
3.911095e+003,9.601962e-002
3.914953e+003,9.588771e-002
3.918810e+003,9.667325e-002
3.922667e+003,9.756660e-002
3.926524e+003,9.691478e-002
3.930381e+003,9.509826e-002
3.934238e+003,9.434824e-002
3.938095e+003,9.531885e-002
3.941952e+003,9.561194e-002
3.945809e+003,9.479480e-002
3.949667e+003,9.366435e-002
3.953523e+003,9.396809e-002
3.957381e+003,9.411407e-002
3.961238e+003,9.353253e-002
3.965095e+003,9.354720e-002
3.968952e+003,9.348474e-002
3.972809e+003,9.307607e-002
3.976666e+003,9.246131e-002
3.980523e+003,9.219800e-002
3.984380e+003,9.127157e-002
3.988237e+003,9.011355e-002
3.992094e+003,8.956870e-002
3.995952e+003,8.968359e-002
3.999809e+003,9.043411e-002
4.003666e+003,9.092249e-002
4.007523e+003,8.958486e-002
4.011380e+003,8.931624e-002
4.015237e+003,8.881125e-002
4.019094e+003,8.747949e-002
4.022951e+003,8.886877e-002
4.026808e+003,8.950709e-002
4.030666e+003,8.899321e-002
4.034522e+003,8.856119e-002
4.038380e+003,8.876389e-002
4.042237e+003,8.889224e-002
4.046094e+003,8.752695e-002
4.049951e+003,8.659109e-002
4.053808e+003,8.703946e-002
4.057665e+003,8.690009e-002
4.061522e+003,8.668664e-002
4.065379e+003,8.752209e-002
4.069236e+003,8.751013e-002
4.073094e+003,8.627174e-002
4.076951e+003,8.513413e-002
4.080808e+003,8.415603e-002
4.084665e+003,8.426394e-002
4.088522e+003,8.384264e-002
4.092379e+003,8.278175e-002
4.096236e+003,8.262017e-002
4.100093e+003,8.341911e-002
4.103950e+003,8.234837e-002
4.107808e+003,8.204036e-002
4.111665e+003,8.259460e-002
4.115521e+003,8.150898e-002
4.119379e+003,8.068369e-002
4.123236e+003,8.102955e-002
4.127093e+003,8.174537e-002
4.130950e+003,8.205041e-002
4.134807e+003,8.177496e-002
4.138664e+003,8.121283e-002
4.142521e+003,8.059592e-002
4.146378e+003,8.037614e-002
4.150235e+003,8.045166e-002
4.154093e+003,8.020043e-002
4.157950e+003,8.044257e-002
4.161807e+003,8.062759e-002
4.165664e+003,8.078588e-002
4.169521e+003,8.118251e-002
4.173378e+003,8.088335e-002
4.177235e+003,7.968394e-002
4.181092e+003,7.923920e-002
4.184949e+003,7.933712e-002
4.188807e+003,7.833404e-002
4.192664e+003,7.720256e-002
4.196521e+003,7.730694e-002
4.200378e+003,7.777479e-002
4.204235e+003,7.651781e-002
4.208092e+003,7.578198e-002
4.211949e+003,7.630363e-002
4.215806e+003,7.649465e-002
4.219663e+003,7.755908e-002
4.223521e+003,7.762247e-002
4.227377e+003,7.929640e-002
4.231234e+003,7.988668e-002
4.235092e+003,7.995611e-002
4.238949e+003,8.074629e-002
4.242806e+003,8.079606e-002
4.246663e+003,7.988641e-002
4.250520e+003,8.004797e-002
4.254377e+003,7.927794e-002
4.258234e+003,8.020772e-002
4.262091e+003,8.079741e-002
4.265948e+003,7.920088e-002
4.269806e+003,7.789719e-002
4.273663e+003,7.833242e-002
4.277520e+003,7.914831e-002
4.281377e+003,7.823163e-002
4.285234e+003,7.766981e-002
4.289091e+003,7.746794e-002
4.292948e+003,7.717936e-002
4.296805e+003,7.768396e-002
4.300662e+003,7.815836e-002
4.304520e+003,7.744458e-002
4.308376e+003,7.798231e-002
4.312233e+003,7.940029e-002
4.316091e+003,8.055831e-002
4.319948e+003,8.105754e-002
4.323805e+003,8.179945e-002
4.327662e+003,8.269460e-002
4.331519e+003,8.402063e-002
4.335376e+003,8.464464e-002
4.339233e+003,8.567485e-002
4.343090e+003,8.794212e-002
4.346947e+003,8.799231e-002
4.350805e+003,8.669239e-002
4.354662e+003,8.623905e-002
4.358519e+003,8.602790e-002
4.362376e+003,8.580713e-002
4.366233e+003,8.580693e-002
4.370090e+003,8.533031e-002
4.373947e+003,8.521128e-002
4.377804e+003,8.373200e-002
4.381661e+003,8.242156e-002
4.385519e+003,8.305614e-002
4.389375e+003,8.379477e-002
4.393232e+003,8.395051e-002
4.397090e+003,8.419552e-002
4.400947e+003,8.401580e-002
4.404804e+003,8.458630e-002
4.408661e+003,8.650759e-002
4.412518e+003,8.761301e-002
4.416375e+003,8.855879e-002
4.420232e+003,8.918448e-002
4.424089e+003,9.021080e-002
4.427946e+003,9.197706e-002
4.431804e+003,9.346900e-002
4.435661e+003,9.334037e-002
4.439518e+003,9.282366e-002
4.443375e+003,9.363467e-002
4.447232e+003,9.529075e-002
4.451089e+003,9.525861e-002
4.454946e+003,9.438765e-002
4.458803e+003,9.400108e-002
4.462660e+003,9.301211e-002
4.466518e+003,9.206818e-002
4.470375e+003,9.109119e-002
4.474231e+003,9.026199e-002
4.478089e+003,9.046080e-002
4.481946e+003,8.995007e-002
4.485803e+003,8.977977e-002
4.489660e+003,9.253363e-002
4.493517e+003,9.408884e-002
4.497375e+003,9.463957e-002
4.501231e+003,9.514780e-002
4.505088e+003,9.622042e-002
4.508946e+003,9.681203e-002
4.512803e+003,9.647229e-002
4.516660e+003,9.663149e-002
4.520517e+003,9.898509e-002
4.524374e+003,1.012641e-001
4.528231e+003,1.014686e-001
4.532088e+003,1.026539e-001
4.535945e+003,1.028263e-001
4.539802e+003,1.006504e-001
4.543660e+003,1.009367e-001
4.547517e+003,1.012059e-001
4.551374e+003,9.982301e-002
4.555231e+003,9.839118e-002
4.559088e+003,9.650791e-002
4.562945e+003,9.536219e-002
4.566802e+003,9.449860e-002
4.570659e+003,9.457180e-002
4.574516e+003,9.374588e-002
4.578374e+003,9.380312e-002
4.582230e+003,9.376015e-002
4.586087e+003,9.331440e-002
4.589945e+003,9.450296e-002
4.593802e+003,9.671440e-002
4.597659e+003,9.886122e-002
4.601516e+003,9.930911e-002
4.605373e+003,9.955211e-002
4.609230e+003,1.015443e-001
4.613087e+003,1.034582e-001
4.616944e+003,1.051000e-001
4.620801e+003,1.053585e-001
4.624659e+003,1.051861e-001
4.628516e+003,1.057199e-001
4.632373e+003,1.067767e-001
4.636230e+003,1.065302e-001
4.640087e+003,1.056784e-001
4.643944e+003,1.044239e-001
4.647801e+003,1.026640e-001
4.651658e+003,1.019726e-001
4.655515e+003,1.012505e-001
4.659373e+003,1.007324e-001
4.663229e+003,1.020974e-001
4.667086e+003,1.027148e-001
4.670944e+003,1.025584e-001
4.674801e+003,1.010494e-001
4.678658e+003,1.013005e-001
4.682515e+003,1.022748e-001
4.686372e+003,1.046485e-001
4.690229e+003,1.041211e-001
4.694086e+003,1.035268e-001
4.697943e+003,1.067391e-001
4.701800e+003,1.095978e-001
4.705658e+003,1.100491e-001
4.709515e+003,1.102328e-001
4.713372e+003,1.111313e-001
4.717229e+003,1.124244e-001
4.721086e+003,1.140437e-001
4.724943e+003,1.149599e-001
4.728800e+003,1.157622e-001
4.732657e+003,1.153838e-001
4.736514e+003,1.137312e-001
4.740372e+003,1.142610e-001
4.744229e+003,1.130428e-001
4.748085e+003,1.100273e-001
4.751943e+003,1.095916e-001
4.755800e+003,1.099771e-001
4.759657e+003,1.102260e-001
4.763514e+003,1.108332e-001
4.767371e+003,1.091806e-001
4.771228e+003,1.077223e-001
4.775085e+003,1.107787e-001
4.778942e+003,1.125425e-001
4.782799e+003,1.151037e-001
4.786657e+003,1.161157e-001
4.790514e+003,1.166137e-001
4.794371e+003,1.197451e-001
4.798228e+003,1.218912e-001
4.802085e+003,1.209713e-001
4.805942e+003,1.219922e-001
4.809799e+003,1.235142e-001
4.813656e+003,1.238457e-001
4.817513e+003,1.235376e-001
4.821371e+003,1.220758e-001
4.825228e+003,1.236572e-001
4.829084e+003,1.251950e-001
4.832942e+003,1.240626e-001
4.836799e+003,1.230065e-001
4.840656e+003,1.217657e-001
4.844513e+003,1.229054e-001
4.848370e+003,1.237771e-001
4.852227e+003,1.205316e-001
4.856084e+003,1.186476e-001
4.859941e+003,1.173889e-001
4.863798e+003,1.182003e-001
4.867656e+003,1.213636e-001
4.871513e+003,1.229226e-001
4.875370e+003,1.233904e-001
4.879227e+003,1.250231e-001
4.883084e+003,1.248412e-001
4.886941e+003,1.244743e-001
4.890798e+003,1.254917e-001
4.894655e+003,1.273819e-001
4.898512e+003,1.286490e-001
4.902370e+003,1.290838e-001
4.906227e+003,1.316054e-001
4.910083e+003,1.331123e-001
4.913941e+003,1.332870e-001
4.917798e+003,1.341667e-001
4.921655e+003,1.342293e-001
4.925512e+003,1.318647e-001
4.929369e+003,1.324989e-001
4.933226e+003,1.325654e-001
4.937083e+003,1.292595e-001
4.940940e+003,1.284612e-001
4.944797e+003,1.314343e-001
4.948655e+003,1.329451e-001
4.952512e+003,1.331300e-001
4.956369e+003,1.332831e-001
4.960226e+003,1.327264e-001
4.964083e+003,1.307958e-001
4.967940e+003,1.299393e-001
4.971797e+003,1.336018e-001
4.975654e+003,1.338346e-001
4.979511e+003,1.332121e-001
4.983369e+003,1.363755e-001
4.987226e+003,1.388820e-001
4.991083e+003,1.400712e-001
4.994940e+003,1.402757e-001
4.998797e+003,1.412163e-001
5.002654e+003,1.425304e-001
5.006511e+003,1.444658e-001
5.010368e+003,1.440955e-001
5.014225e+003,1.427862e-001
5.018083e+003,1.432918e-001
5.021939e+003,1.429852e-001
5.025796e+003,1.411567e-001
5.029654e+003,1.404554e-001
5.033511e+003,1.405715e-001
5.037368e+003,1.411456e-001
5.041225e+003,1.393088e-001
5.045082e+003,1.364909e-001
5.048939e+003,1.357779e-001
5.052796e+003,1.364458e-001
5.056653e+003,1.369763e-001
5.060510e+003,1.392299e-001
5.064368e+003,1.409404e-001
5.068225e+003,1.420526e-001
5.072082e+003,1.411983e-001
5.075939e+003,1.421420e-001
5.079796e+003,1.446088e-001
5.083653e+003,1.457924e-001
5.087510e+003,1.455338e-001
5.091367e+003,1.477564e-001
5.095224e+003,1.494863e-001
5.099082e+003,1.495498e-001
5.102938e+003,1.506951e-001
5.106795e+003,1.510992e-001
5.110653e+003,1.492897e-001
5.114510e+003,1.476195e-001
5.118367e+003,1.478041e-001
5.122224e+003,1.491271e-001
5.126081e+003,1.491058e-001
5.129938e+003,1.462605e-001
5.133795e+003,1.450399e-001
5.137652e+003,1.448836e-001
5.141509e+003,1.459042e-001
5.145367e+003,1.452411e-001
5.149224e+003,1.438712e-001
5.153081e+003,1.431075e-001
5.156938e+003,1.436892e-001
5.160795e+003,1.448236e-001
5.164652e+003,1.468313e-001
5.168509e+003,1.536054e-001
5.172366e+003,1.552677e-001
5.176223e+003,1.519036e-001
5.180081e+003,1.499501e-001
5.183938e+003,1.503454e-001
5.187794e+003,1.516067e-001
5.191652e+003,1.517157e-001
5.195509e+003,1.539933e-001
5.199366e+003,1.570263e-001
5.203223e+003,1.558793e-001
5.207080e+003,1.551732e-001
5.210937e+003,1.554525e-001
5.214794e+003,1.526616e-001
5.218651e+003,1.499792e-001
5.222508e+003,1.493094e-001
5.226366e+003,1.496528e-001
5.230223e+003,1.480754e-001
5.234080e+003,1.471580e-001
5.237937e+003,1.467324e-001
5.241794e+003,1.457050e-001
5.245651e+003,1.485381e-001
5.249508e+003,1.514280e-001
5.253365e+003,1.490358e-001
5.257222e+003,1.450706e-001
5.261080e+003,1.458125e-001
5.264937e+003,1.502317e-001
5.268793e+003,1.489464e-001
5.272651e+003,1.461152e-001
5.276508e+003,1.489001e-001
5.280365e+003,1.501880e-001
5.284222e+003,1.479061e-001
5.288079e+003,1.480520e-001
5.291936e+003,1.498933e-001
5.295793e+003,1.479039e-001
5.299650e+003,1.449743e-001
5.303507e+003,1.454763e-001
5.307365e+003,1.448535e-001
5.311222e+003,1.446833e-001
5.315079e+003,1.470089e-001
5.318936e+003,1.453903e-001
5.322793e+003,1.419022e-001
5.326650e+003,1.417924e-001
5.330507e+003,1.436676e-001
5.334364e+003,1.456696e-001
5.338221e+003,1.440092e-001
5.342079e+003,1.416815e-001
5.345936e+003,1.416894e-001
5.349792e+003,1.411987e-001
5.353650e+003,1.423591e-001
5.357507e+003,1.467637e-001
5.361364e+003,1.469735e-001
5.365221e+003,1.436866e-001
5.369078e+003,1.447024e-001
5.372935e+003,1.474558e-001
5.376792e+003,1.469423e-001
5.380649e+003,1.453063e-001
5.384506e+003,1.449468e-001
5.388364e+003,1.455619e-001
5.392221e+003,1.447745e-001
5.396078e+003,1.440428e-001
5.399935e+003,1.436710e-001
5.403792e+003,1.442161e-001
5.407649e+003,1.410572e-001
5.411506e+003,1.384441e-001
5.415363e+003,1.399180e-001
5.419220e+003,1.409939e-001
5.423078e+003,1.388846e-001
5.426935e+003,1.368553e-001
5.430792e+003,1.378645e-001
5.434649e+003,1.377883e-001
5.438506e+003,1.360502e-001
5.442363e+003,1.363697e-001
5.446220e+003,1.371321e-001
5.450077e+003,1.382991e-001
5.453934e+003,1.399725e-001
5.457792e+003,1.399444e-001
5.461648e+003,1.394023e-001
5.465505e+003,1.423851e-001
5.469363e+003,1.430600e-001
5.473220e+003,1.430332e-001
5.477077e+003,1.427398e-001
5.480934e+003,1.425212e-001
5.484791e+003,1.408511e-001
5.488648e+003,1.399619e-001
5.492505e+003,1.380266e-001
5.496362e+003,1.354720e-001
5.500219e+003,1.342636e-001
5.504077e+003,1.366981e-001
5.507934e+003,1.381994e-001
5.511791e+003,1.376071e-001
5.515648e+003,1.378752e-001
5.519505e+003,1.354388e-001
5.523362e+003,1.330702e-001
5.527219e+003,1.341799e-001
5.531076e+003,1.330751e-001
5.534933e+003,1.337700e-001
5.538791e+003,1.355263e-001
5.542647e+003,1.346689e-001
5.546504e+003,1.335420e-001
5.550362e+003,1.332234e-001
5.554219e+003,1.335347e-001
5.558076e+003,1.362514e-001
5.561933e+003,1.361323e-001
5.565790e+003,1.342984e-001
5.569647e+003,1.375002e-001
5.573504e+003,1.404415e-001
5.577361e+003,1.355392e-001
5.581218e+003,1.334702e-001
5.585076e+003,1.349323e-001
5.588933e+003,1.329528e-001
5.592790e+003,1.350902e-001
5.596647e+003,1.365742e-001
5.600504e+003,1.356941e-001
5.604361e+003,1.349467e-001
5.608218e+003,1.325223e-001
5.612075e+003,1.307103e-001
5.615932e+003,1.283287e-001
5.619790e+003,1.265974e-001
5.623646e+003,1.265939e-001
5.627503e+003,1.269042e-001
5.631361e+003,1.290212e-001
5.635218e+003,1.296466e-001
5.639075e+003,1.289912e-001
5.642932e+003,1.288518e-001
5.646789e+003,1.270792e-001
5.650646e+003,1.278622e-001
5.654503e+003,1.297850e-001
5.658360e+003,1.310792e-001
5.662217e+003,1.302908e-001
5.666075e+003,1.277065e-001
5.669932e+003,1.285576e-001
5.673789e+003,1.299242e-001
5.677646e+003,1.301823e-001
5.681503e+003,1.271965e-001
5.685360e+003,1.251561e-001
5.689217e+003,1.241271e-001
5.693074e+003,1.247607e-001
5.696931e+003,1.242494e-001
5.700789e+003,1.244781e-001
5.704646e+003,1.274307e-001
5.708502e+003,1.278055e-001
5.712360e+003,1.258861e-001
5.716217e+003,1.209828e-001
5.720074e+003,1.167125e-001
5.723931e+003,1.182263e-001
5.727788e+003,1.198832e-001
5.731645e+003,1.231429e-001
5.735502e+003,1.237462e-001
5.739359e+003,1.210435e-001
5.743216e+003,1.233323e-001
5.747074e+003,1.261460e-001
5.750931e+003,1.242635e-001
5.754788e+003,1.220190e-001
5.758645e+003,1.229420e-001
5.762502e+003,1.264847e-001
5.766359e+003,1.248956e-001
5.770216e+003,1.206297e-001
5.774073e+003,1.180138e-001
5.777930e+003,1.171477e-001
5.781788e+003,1.206584e-001
5.785645e+003,1.200298e-001
5.789501e+003,1.178502e-001
5.793359e+003,1.183848e-001
5.797216e+003,1.193329e-001
5.801073e+003,1.180545e-001
5.804930e+003,1.173345e-001
5.808787e+003,1.186621e-001
5.812644e+003,1.170349e-001
5.816501e+003,1.134386e-001
5.820358e+003,1.144696e-001
5.824215e+003,1.155920e-001
5.828073e+003,1.159601e-001
5.831930e+003,1.168997e-001
5.835787e+003,1.127661e-001
5.839644e+003,1.105616e-001
5.843501e+003,1.125145e-001
5.847358e+003,1.106706e-001
5.851215e+003,1.109324e-001
5.855072e+003,1.124857e-001
5.858929e+003,1.106424e-001
5.862787e+003,1.120968e-001
5.866644e+003,1.143030e-001
5.870500e+003,1.127232e-001
5.874358e+003,1.094472e-001
5.878215e+003,1.110534e-001
5.882072e+003,1.136696e-001
5.885929e+003,1.134097e-001
5.889786e+003,1.105923e-001
5.893643e+003,1.089244e-001
5.897500e+003,1.073348e-001
5.901357e+003,1.083786e-001
5.905214e+003,1.086635e-001
5.909072e+003,1.079171e-001
5.912929e+003,1.047219e-001
5.916786e+003,1.042845e-001
5.920643e+003,1.056518e-001
5.924500e+003,1.091103e-001
5.928357e+003,1.095341e-001
5.932214e+003,1.094681e-001
5.936071e+003,1.076139e-001
5.939928e+003,1.087694e-001
5.943786e+003,1.092759e-001
5.947643e+003,1.083746e-001
5.951500e+003,1.068302e-001
5.955357e+003,1.067684e-001
5.959214e+003,1.080783e-001
5.963071e+003,1.057513e-001
5.966928e+003,1.019603e-001
5.970785e+003,1.000831e-001
5.974642e+003,1.035219e-001
5.978500e+003,1.055311e-001
5.982356e+003,1.049563e-001
5.986213e+003,1.057729e-001
5.990071e+003,1.043676e-001
5.993928e+003,1.023007e-001
5.997785e+003,1.048925e-001
6.001642e+003,1.064504e-001
6.005499e+003,1.034213e-001
6.009356e+003,9.987267e-002
6.013213e+003,1.009167e-001
6.017070e+003,1.017148e-001
6.020927e+003,1.001999e-001
6.024785e+003,9.978819e-002
6.028642e+003,9.935693e-002
6.032499e+003,9.864190e-002
6.036356e+003,9.754740e-002
6.040213e+003,9.639724e-002
6.044070e+003,9.690335e-002
6.047927e+003,9.879495e-002
6.051784e+003,1.017857e-001
6.055641e+003,1.034306e-001
6.059499e+003,1.028563e-001
6.063355e+003,1.018815e-001
6.067212e+003,1.016623e-001
6.071070e+003,1.001940e-001
6.074927e+003,1.013221e-001
6.078784e+003,1.026542e-001
6.082641e+003,1.027354e-001
6.086498e+003,1.018576e-001
6.090355e+003,1.001165e-001
6.094212e+003,9.800108e-002
6.098069e+003,9.819852e-002
6.101926e+003,1.010860e-001
6.105784e+003,9.949669e-002
6.109641e+003,9.740549e-002
6.113498e+003,1.010845e-001
6.117355e+003,1.017879e-001
6.121212e+003,1.020643e-001
6.125069e+003,1.012502e-001
6.128926e+003,9.349024e-002
6.132783e+003,9.191277e-002
6.136640e+003,9.423582e-002
6.140498e+003,9.570366e-002
6.144354e+003,9.551124e-002
6.148211e+003,9.430288e-002
6.152069e+003,9.694646e-002
6.155926e+003,9.925410e-002
6.159783e+003,9.952865e-002
6.163640e+003,9.877993e-002
6.167497e+003,9.520201e-002
6.171354e+003,9.398800e-002
6.175211e+003,9.776268e-002
6.179068e+003,1.004268e-001
6.182925e+003,9.986003e-002
6.186783e+003,9.927750e-002
6.190640e+003,9.621893e-002
6.194497e+003,9.494230e-002
6.198354e+003,9.381833e-002
6.202211e+003,9.586213e-002
6.206068e+003,1.003686e-001
6.209925e+003,9.810141e-002
6.213782e+003,9.641597e-002
6.217639e+003,9.451956e-002
6.221497e+003,9.189345e-002
6.225354e+003,9.331100e-002
6.229210e+003,9.654528e-002
6.233068e+003,9.721835e-002
6.236925e+003,9.667511e-002
6.240782e+003,9.544060e-002
6.244639e+003,9.549204e-002
6.248496e+003,9.952077e-002
6.252353e+003,1.019770e-001
6.256210e+003,9.943341e-002
6.260067e+003,9.771741e-002
6.263924e+003,9.846982e-002
6.267782e+003,1.014576e-001
6.271639e+003,1.033344e-001
6.275496e+003,1.012658e-001
6.279353e+003,9.964671e-002
6.283210e+003,1.007814e-001
6.287067e+003,1.002845e-001
6.290924e+003,9.943140e-002
6.294781e+003,9.565753e-002
6.298638e+003,9.137841e-002
6.302496e+003,9.119010e-002
6.306353e+003,9.415243e-002
6.310209e+003,9.319156e-002
6.314067e+003,9.384593e-002
6.317924e+003,9.492634e-002
6.321781e+003,9.480205e-002
6.325638e+003,9.569479e-002
6.329495e+003,9.355012e-002
6.333352e+003,9.257509e-002
6.337209e+003,9.402046e-002
6.341066e+003,9.820130e-002
6.344923e+003,9.986608e-002
6.348780e+003,9.923553e-002
6.352638e+003,9.778530e-002
6.356495e+003,9.453180e-002
6.360352e+003,9.050851e-002
6.364209e+003,9.093450e-002
6.368066e+003,9.258235e-002
6.371923e+003,9.815465e-002
6.375780e+003,1.036676e-001
6.379637e+003,1.000054e-001
6.383494e+003,9.760522e-002
6.387352e+003,1.001432e-001
6.391208e+003,1.015670e-001
6.395065e+003,9.849302e-002
6.398923e+003,9.952365e-002
6.402780e+003,1.017007e-001
6.406637e+003,9.972699e-002
6.410494e+003,9.732044e-002
6.414351e+003,9.587473e-002
6.418208e+003,9.115884e-002
6.422065e+003,9.034912e-002
6.425922e+003,9.647183e-002
6.429779e+003,9.925789e-002
6.433637e+003,9.829532e-002
6.437494e+003,1.007212e-001
6.441351e+003,1.026339e-001
6.445208e+003,1.025288e-001
6.449065e+003,1.000729e-001
6.452922e+003,9.972766e-002
6.456779e+003,1.011721e-001
6.460636e+003,1.042245e-001
6.464493e+003,1.072052e-001
6.468351e+003,1.058985e-001
6.472208e+003,1.061136e-001
6.476064e+003,1.044972e-001
6.479922e+003,1.027578e-001
6.483779e+003,1.054193e-001
6.487636e+003,1.039821e-001
6.491493e+003,1.025006e-001
6.495350e+003,1.038142e-001
6.499207e+003,1.063540e-001
6.503064e+003,1.077907e-001
6.506921e+003,1.083113e-001
6.510778e+003,1.055242e-001
6.514636e+003,1.046566e-001
6.518493e+003,1.065038e-001
6.522350e+003,1.060091e-001
6.526207e+003,1.021416e-001
6.530064e+003,1.025975e-001
6.533921e+003,1.031350e-001
6.537778e+003,1.057542e-001
6.541635e+003,1.093915e-001
6.545492e+003,1.115444e-001
6.549350e+003,1.115573e-001
6.553207e+003,1.141969e-001
6.557063e+003,1.140506e-001
6.560921e+003,1.073094e-001
6.564778e+003,1.090666e-001
6.568635e+003,1.106478e-001
6.572492e+003,1.063373e-001
6.576349e+003,1.073954e-001
6.580206e+003,1.031457e-001
6.584063e+003,9.957761e-002
6.587920e+003,1.042088e-001
6.591777e+003,1.088898e-001
6.595635e+003,1.076166e-001
6.599492e+003,1.054793e-001
6.603349e+003,1.088619e-001
6.607206e+003,1.099660e-001
6.611063e+003,1.079135e-001
6.614920e+003,1.071752e-001
6.618777e+003,1.087698e-001
6.622634e+003,1.109296e-001
6.626491e+003,1.166429e-001
6.630349e+003,1.188707e-001
6.634206e+003,1.211209e-001
6.638063e+003,1.234738e-001
6.641920e+003,1.201987e-001
6.645777e+003,1.165114e-001
6.649634e+003,1.172985e-001
6.653491e+003,1.245103e-001
6.657348e+003,1.247677e-001
6.661205e+003,1.127824e-001
6.665063e+003,1.070042e-001
6.668919e+003,1.143566e-001
6.672776e+003,1.182810e-001
6.676634e+003,1.132885e-001
6.680491e+003,1.113015e-001
6.684348e+003,1.080194e-001
6.688205e+003,1.055665e-001
6.692062e+003,1.113484e-001
6.695919e+003,1.126197e-001
6.699776e+003,1.142024e-001
6.703633e+003,1.171908e-001
6.707490e+003,1.128816e-001
6.711348e+003,1.140922e-001
6.715205e+003,1.164116e-001
6.719062e+003,1.192203e-001
6.722919e+003,1.176011e-001
6.726776e+003,1.130575e-001
6.730633e+003,1.170164e-001
6.734490e+003,1.235034e-001
6.738347e+003,1.238875e-001
6.742204e+003,1.224375e-001
6.746062e+003,1.231919e-001
6.749918e+003,1.212269e-001
6.753775e+003,1.192232e-001
6.757633e+003,1.221012e-001
6.761490e+003,1.202471e-001
6.765347e+003,1.192316e-001
6.769204e+003,1.223600e-001
6.773061e+003,1.228286e-001
6.776918e+003,1.225086e-001
6.780775e+003,1.260855e-001
6.784632e+003,1.270831e-001
6.788489e+003,1.187878e-001
6.792347e+003,1.150540e-001
6.796204e+003,1.174776e-001
6.800061e+003,1.216202e-001
6.803918e+003,1.260876e-001
6.807775e+003,1.317315e-001
6.811632e+003,1.309648e-001
6.815489e+003,1.264801e-001
6.819346e+003,1.238570e-001
6.823203e+003,1.215953e-001
6.827061e+003,1.241898e-001
6.830917e+003,1.302967e-001
6.834774e+003,1.367514e-001
6.838632e+003,1.428914e-001
6.842489e+003,1.389206e-001
6.846346e+003,1.323126e-001
6.850203e+003,1.338898e-001
6.854060e+003,1.354223e-001
6.857917e+003,1.390058e-001
6.861774e+003,1.369867e-001
6.865631e+003,1.313955e-001
6.869488e+003,1.362974e-001
6.873346e+003,1.354512e-001
6.877203e+003,1.362590e-001
6.881060e+003,1.386795e-001
6.884917e+003,1.325514e-001
6.888774e+003,1.279948e-001
6.892631e+003,1.285255e-001
6.896488e+003,1.367022e-001
6.900345e+003,1.422004e-001
6.904202e+003,1.403756e-001
6.908060e+003,1.374070e-001
6.911917e+003,1.370150e-001
6.915773e+003,1.376275e-001
6.919631e+003,1.395268e-001
6.923488e+003,1.414652e-001
6.927345e+003,1.389457e-001
6.931202e+003,1.386437e-001
6.935059e+003,1.423870e-001
6.938916e+003,1.504367e-001
6.942773e+003,1.583392e-001
6.946630e+003,1.565217e-001
6.950487e+003,1.445059e-001
6.954345e+003,1.434297e-001
6.958202e+003,1.430680e-001
6.962059e+003,1.369170e-001
6.965916e+003,1.350196e-001
6.969773e+003,1.397759e-001
6.973630e+003,1.461134e-001
6.977487e+003,1.448431e-001
6.981344e+003,1.429068e-001
6.985201e+003,1.383907e-001
6.989059e+003,1.390276e-001
6.992916e+003,1.425813e-001
6.996772e+003,1.476680e-001
7.000630e+003,1.504659e-001
7.004487e+003,1.449673e-001
7.008344e+003,1.498059e-001
7.012201e+003,1.638186e-001
7.016058e+003,1.614866e-001
7.019915e+003,1.429145e-001
7.023772e+003,1.334511e-001
7.027629e+003,1.448805e-001
7.031486e+003,1.502633e-001
7.035344e+003,1.563054e-001
7.039201e+003,1.634711e-001
7.043058e+003,1.617672e-001
7.046915e+003,1.585040e-001
7.050772e+003,1.533983e-001
7.054629e+003,1.582092e-001
7.058486e+003,1.654885e-001
7.062343e+003,1.625744e-001
7.066200e+003,1.528987e-001
7.070058e+003,1.478557e-001
7.073915e+003,1.399121e-001
7.077771e+003,1.373513e-001
7.081629e+003,1.444933e-001
7.085486e+003,1.505712e-001
7.089343e+003,1.460079e-001
7.093200e+003,1.442728e-001
7.097057e+003,1.527768e-001
7.100914e+003,1.506317e-001
7.104771e+003,1.474300e-001
7.108628e+003,1.494952e-001
7.112485e+003,1.441588e-001
7.116343e+003,1.529179e-001
7.120200e+003,1.522081e-001
7.124057e+003,1.451385e-001
7.127914e+003,1.544084e-001
7.131771e+003,1.524775e-001
7.135628e+003,1.423490e-001
7.139485e+003,1.487390e-001
7.143342e+003,1.577297e-001
7.147199e+003,1.532422e-001
7.151057e+003,1.455487e-001
7.154914e+003,1.471672e-001
7.158771e+003,1.600909e-001
7.162628e+003,1.563000e-001
7.166485e+003,1.490997e-001
7.170342e+003,1.563702e-001
7.174199e+003,1.551304e-001
7.178056e+003,1.563877e-001
7.181913e+003,1.596273e-001
7.185771e+003,1.512211e-001
7.189627e+003,1.525608e-001
7.193484e+003,1.562537e-001
7.197342e+003,1.534033e-001
7.201199e+003,1.568933e-001
7.205056e+003,1.651440e-001
7.208913e+003,1.732583e-001
7.212770e+003,1.797536e-001
7.216627e+003,1.738513e-001
7.220484e+003,1.656070e-001
7.224341e+003,1.669343e-001
7.228198e+003,1.665037e-001
7.232056e+003,1.757312e-001
7.235913e+003,1.761418e-001
7.239770e+003,1.661589e-001
7.243627e+003,1.552607e-001
7.247484e+003,1.532933e-001
7.251341e+003,1.538253e-001
7.255198e+003,1.531623e-001
7.259055e+003,1.587360e-001
7.262912e+003,1.623608e-001
7.266770e+003,1.550104e-001
7.270626e+003,1.475481e-001
7.274483e+003,1.510521e-001
7.278341e+003,1.586936e-001
7.282198e+003,1.589271e-001
7.286055e+003,1.558271e-001
7.289912e+003,1.633020e-001
7.293769e+003,1.690097e-001
7.297626e+003,1.615948e-001
7.301483e+003,1.690656e-001
7.305340e+003,1.729600e-001
7.309197e+003,1.530206e-001
7.313055e+003,1.525112e-001
7.316912e+003,1.638464e-001
7.320769e+003,1.639490e-001
7.324626e+003,1.579784e-001
7.328483e+003,1.567397e-001
7.332340e+003,1.701991e-001
7.336197e+003,1.702718e-001
7.340054e+003,1.578689e-001
7.343911e+003,1.500156e-001
7.347769e+003,1.499517e-001
7.351625e+003,1.436979e-001
7.355482e+003,1.437771e-001
7.359340e+003,1.518622e-001
7.363197e+003,1.451273e-001
7.367054e+003,1.470373e-001
7.370911e+003,1.596857e-001
7.374768e+003,1.579320e-001
7.378625e+003,1.433507e-001
7.382482e+003,1.482853e-001
7.386339e+003,1.677049e-001
7.390196e+003,1.630543e-001
7.394054e+003,1.581517e-001
7.397911e+003,1.661920e-001
7.401768e+003,1.593067e-001
7.405625e+003,1.437845e-001
7.409482e+003,1.402706e-001
7.413339e+003,1.495095e-001
7.417196e+003,1.623521e-001
7.421053e+003,1.630660e-001
7.424910e+003,1.636050e-001
7.428768e+003,1.649777e-001
7.432625e+003,1.587069e-001
7.436481e+003,1.611366e-001
7.440339e+003,1.573914e-001
7.444196e+003,1.538014e-001
7.448053e+003,1.551507e-001
7.451910e+003,1.614258e-001
7.455767e+003,1.636677e-001
7.459624e+003,1.620733e-001
7.463481e+003,1.523143e-001
7.467338e+003,1.590161e-001
7.471195e+003,1.674204e-001
7.475053e+003,1.474096e-001
7.478910e+003,1.395275e-001
7.482767e+003,1.659154e-001
7.486624e+003,1.799262e-001
7.490481e+003,1.780266e-001
7.494338e+003,1.669410e-001
7.498195e+003,1.540745e-001
7.502052e+003,1.469984e-001
7.505909e+003,1.387394e-001
7.509767e+003,1.509748e-001
7.513624e+003,1.633399e-001
7.517480e+003,1.578611e-001
7.521338e+003,1.749367e-001
7.525195e+003,1.800443e-001
7.529052e+003,1.546859e-001
7.532909e+003,1.329762e-001
7.536766e+003,1.421096e-001
7.540623e+003,1.419105e-001
7.544480e+003,1.411576e-001
7.548337e+003,1.566195e-001
7.552194e+003,1.627052e-001
7.556052e+003,1.569207e-001
7.559909e+003,1.602109e-001
7.563766e+003,1.524937e-001
7.567623e+003,1.415563e-001
7.571480e+003,1.456480e-001
7.575337e+003,1.523228e-001
7.579194e+003,1.464706e-001
7.583051e+003,1.472569e-001
7.586908e+003,1.466317e-001
7.590766e+003,1.370708e-001
7.594623e+003,1.537279e-001
7.598479e+003,1.657922e-001
7.602337e+003,1.559576e-001
7.606194e+003,1.499484e-001
7.610051e+003,1.476829e-001
7.613908e+003,1.490348e-001
7.617765e+003,1.527641e-001
7.621622e+003,1.638255e-001
7.625479e+003,1.710910e-001
7.629336e+003,1.578896e-001
7.633193e+003,1.459824e-001
7.637051e+003,1.540865e-001
7.640908e+003,1.677298e-001
7.644765e+003,1.775129e-001
7.648622e+003,1.646622e-001
7.652479e+003,1.421018e-001
7.656336e+003,1.375200e-001
7.660193e+003,1.440295e-001
7.664050e+003,1.467567e-001
7.667907e+003,1.401429e-001
7.671765e+003,1.518847e-001
7.675622e+003,1.641716e-001
7.679479e+003,1.537753e-001
7.683336e+003,1.316423e-001
7.687193e+003,1.264731e-001
7.691050e+003,1.238032e-001
7.694907e+003,1.347174e-001
7.698764e+003,1.630886e-001
7.702621e+003,1.759617e-001
7.706479e+003,1.710008e-001
7.710335e+003,1.582010e-001
7.714192e+003,1.373388e-001
7.718050e+003,1.405648e-001
7.721907e+003,1.496822e-001
7.725764e+003,1.488698e-001
7.729621e+003,1.599049e-001
7.733478e+003,1.570837e-001
7.737335e+003,1.513266e-001
7.741192e+003,1.648460e-001
7.745049e+003,1.505896e-001
7.748906e+003,1.307711e-001
7.752764e+003,1.373522e-001
7.756621e+003,1.274585e-001
7.760478e+003,1.178158e-001
7.764335e+003,1.177811e-001
7.768192e+003,1.370391e-001
7.772049e+003,1.461288e-001
7.775906e+003,1.587202e-001
7.779763e+003,1.659088e-001
7.783620e+003,1.632060e-001
7.787478e+003,1.396293e-001
7.791334e+003,1.273969e-001
7.795191e+003,1.469445e-001
7.799049e+003,1.709616e-001
7.802906e+003,1.769381e-001
7.806763e+003,1.611459e-001
7.810620e+003,1.501056e-001
7.814477e+003,1.620614e-001
7.818334e+003,1.610146e-001
7.822191e+003,1.460783e-001
7.826048e+003,1.334351e-001
7.829905e+003,1.175753e-001
7.833763e+003,1.193511e-001
7.837620e+003,1.505894e-001
7.841477e+003,1.645360e-001
7.845334e+003,1.586611e-001
7.849191e+003,1.502312e-001
7.853048e+003,1.508096e-001
7.856905e+003,1.414116e-001
7.860762e+003,1.313492e-001
7.864619e+003,1.265090e-001
7.868477e+003,1.381199e-001
7.872333e+003,1.422068e-001
7.876190e+003,1.472610e-001
7.880048e+003,1.546579e-001
7.883905e+003,1.549021e-001
7.887762e+003,1.580017e-001
7.891619e+003,1.595990e-001
7.895476e+003,1.595901e-001
7.899333e+003,1.434784e-001
7.903190e+003,1.214240e-001
7.907047e+003,1.371332e-001
7.910904e+003,1.679817e-001
7.914762e+003,1.545901e-001
7.918619e+003,1.446054e-001
7.922476e+003,1.418698e-001
7.926333e+003,1.293647e-001
7.930190e+003,1.356057e-001
7.934047e+003,1.373770e-001
7.937904e+003,1.347681e-001
7.941761e+003,1.598707e-001
7.945618e+003,1.434323e-001
7.949476e+003,1.370641e-001
7.953333e+003,1.783977e-001
7.957189e+003,1.727068e-001
7.961047e+003,1.530656e-001
7.964904e+003,1.454658e-001
7.968761e+003,1.293441e-001
7.972618e+003,1.368800e-001
7.976475e+003,1.440409e-001
7.980332e+003,1.309511e-001
7.984189e+003,1.186868e-001
7.988046e+003,1.115083e-001
7.991903e+003,1.220814e-001
7.995761e+003,1.019106e-001
7.999618e+003,1.175514e-001
