4.011380e+002,6.000000e+000
4.049951e+002,6.000000e+000
4.088522e+002,6.000000e+000
4.127093e+002,6.000000e+000
4.165664e+002,1.369027e-001
4.204235e+002,2.258074e-001
4.242806e+002,1.550357e-001
4.281377e+002,-6.271502e-001
4.319948e+002,-5.422436e-001
4.358519e+002,6.000000e+000
4.397090e+002,-7.473192e-001
4.435661e+002,-2.235672e-001
4.474232e+002,6.000000e+000
4.512803e+002,6.000000e+000
4.551374e+002,6.000000e+000
4.589945e+002,6.000000e+000
4.628516e+002,6.000000e+000
4.667087e+002,6.000000e+000
4.705658e+002,6.000000e+000
4.744229e+002,1.201127e-001
4.782800e+002,4.489712e-001
4.821371e+002,6.000000e+000
4.859941e+002,1.089774e-001
4.898513e+002,6.000000e+000
4.937083e+002,1.764991e-001
4.975654e+002,-5.514511e-001
5.014225e+002,-1.053451e+000
5.052796e+002,6.000000e+000
5.091367e+002,6.000000e+000
5.129938e+002,3.146706e-001
5.168509e+002,1.112729e+000
5.207080e+002,6.000000e+000
5.245651e+002,6.000000e+000
5.284222e+002,-6.347795e-002
5.322793e+002,-6.940033e-001
5.361364e+002,-5.267550e-001
5.399935e+002,-1.087946e+000
5.438506e+002,6.000000e+000
5.477077e+002,6.000000e+000
5.515648e+002,1.802017e-002
5.554219e+002,1.870010e-001
5.592790e+002,-5.194738e-001
5.631361e+002,-3.763977e-001
5.669932e+002,-1.109698e-001
5.708503e+002,-2.904410e-001
5.747074e+002,-8.349095e-001
5.785645e+002,6.000000e+000
5.824216e+002,6.000000e+000
5.862787e+002,6.000000e+000
5.901357e+002,-2.464107e-001
5.939929e+002,-8.180294e-001
5.978499e+002,6.000000e+000
6.017070e+002,6.000000e+000
6.055641e+002,-3.490184e-001
6.094212e+002,6.000000e+000
6.132783e+002,4.377825e-001
6.171354e+002,-4.092090e-002
6.209925e+002,-1.575691e-001
6.248496e+002,4.227139e-002
6.287067e+002,6.000000e+000
6.325638e+002,6.000000e+000
6.364209e+002,6.000000e+000
6.402780e+002,-1.341487e-001
6.441351e+002,8.686348e-001
6.479922e+002,-3.892072e-001
6.518493e+002,-7.227302e-001
6.557064e+002,6.000000e+000
6.595635e+002,6.000000e+000
6.634205e+002,6.000000e+000
6.672777e+002,6.000000e+000
6.711348e+002,5.991460e-002
6.749918e+002,1.267665e-001
6.788490e+002,6.000000e+000
6.827061e+002,2.664884e-001
6.865631e+002,9.863046e-001
6.904203e+002,6.000000e+000
6.942773e+002,6.000000e+000
6.981344e+002,6.000000e+000
7.019916e+002,6.000000e+000
7.058486e+002,6.000000e+000
7.097057e+002,2.719377e-001
7.135629e+002,6.000000e+000
7.174199e+002,6.000000e+000
7.212770e+002,6.000000e+000
7.251342e+002,6.443711e-001
7.289912e+002,-4.078830e-001
7.328483e+002,-7.150701e-001
7.367054e+002,-6.467528e-002
7.405625e+002,6.554000e-001
7.444196e+002,3.001568e-001
7.482767e+002,6.888838e-002
7.521338e+002,1.035420e-001
7.559908e+002,6.000000e+000
7.598480e+002,1.250963e+000
7.637051e+002,2.337353e-001
7.675621e+002,6.000000e+000
7.714193e+002,6.000000e+000
7.752764e+002,6.000000e+000
7.791334e+002,1.584436e-001
7.829905e+002,1.423348e-001
7.868477e+002,3.331574e-001
7.907047e+002,6.000000e+000
7.945618e+002,6.000000e+000
7.984189e+002,6.000000e+000
8.022760e+002,1.671240e+000
8.061331e+002,6.235014e-001
8.099902e+002,-1.936242e-001
8.138473e+002,3.282334e-001
8.177044e+002,6.000000e+000
8.215615e+002,-7.217880e-002
8.254186e+002,6.000000e+000
8.292757e+002,2.534961e+000
8.331328e+002,7.454718e-001
8.369899e+002,6.392278e-001
8.408470e+002,7.549089e-001
8.447041e+002,9.139894e-001
8.485612e+002,1.085421e+000
8.524183e+002,1.006361e+000
8.562754e+002,1.192870e+000
8.601324e+002,6.000000e+000
8.639896e+002,6.000000e+000
8.678467e+002,6.000000e+000
8.717037e+002,6.000000e+000
8.755609e+002,6.000000e+000
8.794180e+002,6.000000e+000
8.832750e+002,6.000000e+000
8.871321e+002,1.835138e+000
8.909893e+002,1.269530e+000
8.948463e+002,1.954313e+000
8.987034e+002,6.000000e+000
9.025605e+002,6.000000e+000
9.064176e+002,6.000000e+000
9.102747e+002,6.000000e+000
9.141318e+002,1.673219e+000
9.179889e+002,2.337189e+000
9.218461e+002,2.091020e+000
9.257031e+002,2.246498e+000
9.295602e+002,6.000000e+000
9.334174e+002,2.202657e+000
9.372744e+002,2.195523e+000
9.411315e+002,6.000000e+000
9.449886e+002,6.000000e+000
9.488457e+002,1.843719e+000
9.527028e+002,2.203381e+000
9.565599e+002,1.959700e+000
9.604170e+002,2.163421e+000
9.642740e+002,1.724111e+000
9.681312e+002,1.637195e+000
9.719883e+002,1.932144e+000
9.758453e+002,1.821360e+000
9.797025e+002,1.780177e+000
9.835596e+002,2.189226e+000
9.874166e+002,1.969580e+000
9.912738e+002,1.985786e+000
9.951309e+002,2.127486e+000
9.989879e+002,2.438487e+000
1.002845e+003,2.182663e+000
1.006702e+003,1.663279e+000
1.010559e+003,1.547734e+000
1.014416e+003,1.780021e+000
1.018273e+003,1.832987e+000
1.022130e+003,1.688039e+000
1.025988e+003,1.745382e+000
1.029845e+003,1.781713e+000
1.033702e+003,1.654924e+000
1.037559e+003,1.778013e+000
1.041416e+003,1.892860e+000
1.045273e+003,1.747214e+000
1.049130e+003,1.589168e+000
1.052987e+003,1.721868e+000
1.056844e+003,1.975017e+000
1.060702e+003,1.716446e+000
1.064559e+003,1.541549e+000
1.068416e+003,1.679771e+000
1.072273e+003,1.935827e+000
1.076130e+003,1.822766e+000
1.079987e+003,1.758013e+000
1.083844e+003,1.877290e+000
1.087701e+003,1.746674e+000
1.091558e+003,1.558174e+000
1.095415e+003,1.490601e+000
1.099272e+003,1.483440e+000
1.103130e+003,1.433258e+000
1.106987e+003,1.371064e+000
1.110844e+003,1.377171e+000
1.114701e+003,1.430013e+000
1.118558e+003,1.443435e+000
1.122415e+003,1.449800e+000
1.126272e+003,1.438207e+000
1.130129e+003,1.429286e+000
1.133986e+003,1.385851e+000
1.137843e+003,1.334723e+000
1.141701e+003,1.314660e+000
1.145558e+003,1.279554e+000
1.149415e+003,1.249773e+000
1.153272e+003,1.282357e+000
1.157129e+003,1.314180e+000
1.160986e+003,1.337723e+000
1.164843e+003,1.325493e+000
1.168700e+003,1.267444e+000
1.172557e+003,1.263098e+000
1.176414e+003,1.295069e+000
1.180271e+003,1.299265e+000
1.184129e+003,1.293934e+000
1.187986e+003,1.254491e+000
1.191843e+003,1.234704e+000
1.195700e+003,1.239510e+000
1.199557e+003,1.219575e+000
1.203414e+003,1.191036e+000
1.207271e+003,1.141854e+000
1.211128e+003,1.098148e+000
1.214985e+003,1.075646e+000
1.218842e+003,1.072646e+000
1.222699e+003,1.021093e+000
1.226557e+003,9.577024e-001
1.230414e+003,9.127198e-001
1.234271e+003,8.614849e-001
1.238128e+003,8.093248e-001
1.241985e+003,7.699732e-001
1.245842e+003,7.296795e-001
1.249699e+003,6.940188e-001
1.253556e+003,6.698897e-001
1.257413e+003,6.537438e-001
1.261271e+003,6.235492e-001
1.265128e+003,5.954784e-001
1.268985e+003,5.823575e-001
1.272842e+003,5.682870e-001
1.276699e+003,5.479243e-001
1.280556e+003,5.354354e-001
1.284413e+003,5.231403e-001
1.288270e+003,5.107080e-001
1.292127e+003,5.013842e-001
1.295984e+003,4.897415e-001
1.299841e+003,4.744714e-001
1.303698e+003,4.649097e-001
1.307556e+003,4.553877e-001
1.311413e+003,4.501011e-001
1.315270e+003,4.474612e-001
1.319127e+003,4.400176e-001
1.322984e+003,4.335566e-001
1.326841e+003,4.281063e-001
1.330698e+003,4.225695e-001
1.334555e+003,4.179674e-001
1.338412e+003,4.145495e-001
1.342270e+003,4.099822e-001
1.346127e+003,4.096813e-001
1.349984e+003,4.046952e-001
1.353841e+003,4.011153e-001
1.357698e+003,4.032433e-001
1.361555e+003,4.013746e-001
1.365412e+003,4.047626e-001
1.369269e+003,4.123822e-001
1.373126e+003,4.224738e-001
1.376983e+003,4.368105e-001
1.380840e+003,4.446568e-001
1.384698e+003,4.538721e-001
1.388555e+003,4.660403e-001
1.392412e+003,4.782734e-001
1.396269e+003,4.885878e-001
1.400126e+003,4.954556e-001
1.403983e+003,5.092666e-001
1.407840e+003,5.283290e-001
1.411697e+003,5.392624e-001
1.415554e+003,5.477726e-001
1.419411e+003,5.517519e-001
1.423269e+003,5.575621e-001
1.427126e+003,5.646138e-001
1.430983e+003,5.628245e-001
1.434840e+003,5.606497e-001
1.438697e+003,5.638241e-001
1.442554e+003,5.608304e-001
1.446411e+003,5.529712e-001
1.450268e+003,5.423099e-001
1.454125e+003,5.308552e-001
1.457982e+003,5.241995e-001
1.461839e+003,5.246903e-001
1.465697e+003,5.226987e-001
1.469554e+003,5.221680e-001
1.473411e+003,5.285901e-001
1.477268e+003,5.314398e-001
1.481125e+003,5.290198e-001
1.484982e+003,5.368620e-001
1.488839e+003,5.493056e-001
1.492696e+003,5.590581e-001
1.496553e+003,5.668553e-001
1.500411e+003,5.715733e-001
1.504268e+003,5.704038e-001
1.508125e+003,5.717303e-001
1.511982e+003,5.750403e-001
1.515839e+003,5.765497e-001
1.519696e+003,5.768861e-001
1.523553e+003,5.638788e-001
1.527410e+003,5.508518e-001
1.531267e+003,5.439557e-001
1.535124e+003,5.333145e-001
1.538981e+003,5.224105e-001
1.542839e+003,5.103245e-001
1.546696e+003,5.001324e-001
1.550553e+003,4.857719e-001
1.554410e+003,4.729449e-001
1.558267e+003,4.648912e-001
1.562124e+003,4.593027e-001
1.565981e+003,4.439592e-001
1.569838e+003,4.337830e-001
1.573695e+003,4.262540e-001
1.577552e+003,4.221799e-001
1.581410e+003,4.254138e-001
1.585267e+003,4.264908e-001
1.589124e+003,4.255110e-001
1.592981e+003,4.280966e-001
1.596838e+003,4.344645e-001
1.600695e+003,4.483285e-001
1.604552e+003,4.649511e-001
1.608409e+003,4.842073e-001
1.612266e+003,5.033116e-001
1.616123e+003,5.267537e-001
1.619980e+003,5.582893e-001
1.623838e+003,5.865377e-001
1.627695e+003,6.024327e-001
1.631552e+003,6.087317e-001
1.635409e+003,6.110302e-001
1.639266e+003,6.090693e-001
1.643123e+003,6.067229e-001
1.646980e+003,6.026550e-001
1.650837e+003,5.857285e-001
1.654694e+003,5.664597e-001
1.658551e+003,5.480137e-001
1.662409e+003,5.225612e-001
1.666266e+003,5.012646e-001
1.670123e+003,4.815847e-001
1.673980e+003,4.591707e-001
1.677837e+003,4.460238e-001
1.681694e+003,4.313634e-001
1.685551e+003,4.174354e-001
1.689408e+003,4.037258e-001
1.693265e+003,3.936883e-001
1.697122e+003,3.837310e-001
1.700979e+003,3.759600e-001
1.704837e+003,3.723839e-001
1.708694e+003,3.680207e-001
1.712551e+003,3.639013e-001
1.716408e+003,3.601264e-001
1.720265e+003,3.564240e-001
1.724122e+003,3.528219e-001
1.727979e+003,3.499689e-001
1.731836e+003,3.483994e-001
1.735693e+003,3.476220e-001
1.739550e+003,3.476166e-001
1.743408e+003,3.462020e-001
1.747265e+003,3.437975e-001
1.751122e+003,3.394918e-001
1.754979e+003,3.364607e-001
1.758836e+003,3.374827e-001
1.762693e+003,3.410608e-001
1.766550e+003,3.428782e-001
1.770407e+003,3.439098e-001
1.774264e+003,3.444191e-001
1.778121e+003,3.398937e-001
1.781979e+003,3.351000e-001
1.785836e+003,3.377922e-001
1.789693e+003,3.393391e-001
1.793550e+003,3.357872e-001
1.797407e+003,3.311162e-001
1.801264e+003,3.293600e-001
1.805121e+003,3.266102e-001
1.808978e+003,3.237079e-001
1.812835e+003,3.251723e-001
1.816692e+003,3.254054e-001
1.820549e+003,3.218573e-001
1.824407e+003,3.225430e-001
1.828264e+003,3.195403e-001
1.832121e+003,3.174441e-001
1.835978e+003,3.139522e-001
1.839835e+003,3.061199e-001
1.843692e+003,3.005717e-001
1.847549e+003,3.022150e-001
1.851406e+003,3.007070e-001
1.855263e+003,2.936185e-001
1.859120e+003,2.916651e-001
1.862978e+003,2.940419e-001
1.866835e+003,2.909559e-001
1.870692e+003,2.903381e-001
1.874549e+003,2.927694e-001
1.878406e+003,2.926805e-001
1.882263e+003,2.925542e-001
1.886120e+003,2.968650e-001
1.889977e+003,3.000307e-001
1.893834e+003,3.035777e-001
1.897691e+003,3.073254e-001
1.901548e+003,3.058070e-001
1.905406e+003,3.019895e-001
1.909263e+003,3.007588e-001
1.913120e+003,3.000427e-001
1.916977e+003,2.964310e-001
1.920834e+003,2.896983e-001
1.924691e+003,2.848278e-001
1.928548e+003,2.828886e-001
1.932405e+003,2.803730e-001
1.936262e+003,2.769443e-001
1.940119e+003,2.743287e-001
1.943977e+003,2.754682e-001
1.947834e+003,2.733272e-001
1.951691e+003,2.715588e-001
1.955548e+003,2.709974e-001
1.959405e+003,2.708097e-001
1.963262e+003,2.685660e-001
1.967119e+003,2.691374e-001
1.970976e+003,2.707168e-001
1.974833e+003,2.707959e-001
1.978690e+003,2.716739e-001
1.982547e+003,2.734114e-001
1.986405e+003,2.722977e-001
1.990262e+003,2.718072e-001
1.994119e+003,2.734309e-001
1.997976e+003,2.754713e-001
2.001833e+003,2.738390e-001
2.005690e+003,2.716659e-001
2.009547e+003,2.694447e-001
2.013404e+003,2.670542e-001
2.017261e+003,2.656818e-001
2.021118e+003,2.614938e-001
2.024976e+003,2.577516e-001
2.028833e+003,2.550200e-001
2.032690e+003,2.515117e-001
2.036547e+003,2.475028e-001
2.040404e+003,2.467134e-001
2.044261e+003,2.464028e-001
2.048118e+003,2.449256e-001
2.051975e+003,2.459499e-001
2.055832e+003,2.479547e-001
2.059689e+003,2.472553e-001
2.063546e+003,2.487108e-001
2.067404e+003,2.498772e-001
2.071261e+003,2.484637e-001
2.075118e+003,2.513364e-001
2.078975e+003,2.554009e-001
2.082832e+003,2.574306e-001
2.086689e+003,2.565110e-001
2.090546e+003,2.551583e-001
2.094403e+003,2.547181e-001
2.098260e+003,2.532655e-001
2.102117e+003,2.504006e-001
2.105975e+003,2.468095e-001
2.109832e+003,2.465785e-001
2.113689e+003,2.453463e-001
2.117546e+003,2.423928e-001
2.121403e+003,2.415012e-001
2.125260e+003,2.401097e-001
2.129117e+003,2.377218e-001
2.132974e+003,2.387016e-001
2.136831e+003,2.409119e-001
2.140688e+003,2.419654e-001
2.144545e+003,2.440310e-001
2.148403e+003,2.461039e-001
2.152260e+003,2.495954e-001
2.156117e+003,2.534715e-001
2.159974e+003,2.532021e-001
2.163831e+003,2.554469e-001
2.167688e+003,2.583171e-001
2.171545e+003,2.593902e-001
2.175402e+003,2.579002e-001
2.179259e+003,2.581798e-001
2.183116e+003,2.601320e-001
2.186974e+003,2.581513e-001
2.190831e+003,2.581952e-001
2.194688e+003,2.579851e-001
2.198545e+003,2.548180e-001
2.202402e+003,2.538943e-001
2.206259e+003,2.524664e-001
2.210116e+003,2.514037e-001
2.213973e+003,2.491806e-001
2.217830e+003,2.453990e-001
2.221688e+003,2.438836e-001
2.225544e+003,2.456993e-001
2.229402e+003,2.452075e-001
2.233259e+003,2.453223e-001
2.237116e+003,2.485241e-001
2.240973e+003,2.508075e-001
2.244830e+003,2.522900e-001
2.248687e+003,2.542892e-001
2.252544e+003,2.574700e-001
2.256401e+003,2.604017e-001
2.260258e+003,2.618188e-001
2.264115e+003,2.647358e-001
2.267973e+003,2.632126e-001
2.271830e+003,2.624568e-001
2.275687e+003,2.651477e-001
2.279544e+003,2.652309e-001
2.283401e+003,2.631981e-001
2.287258e+003,2.622757e-001
2.291115e+003,2.613906e-001
2.294972e+003,2.593383e-001
2.298829e+003,2.601456e-001
2.302687e+003,2.607873e-001
2.306543e+003,2.578545e-001
2.310401e+003,2.573413e-001
2.314258e+003,2.582651e-001
2.318115e+003,2.576820e-001
2.321972e+003,2.576557e-001
2.325829e+003,2.620872e-001
2.329686e+003,2.660667e-001
2.333543e+003,2.658555e-001
2.337400e+003,2.651190e-001
2.341257e+003,2.672256e-001
2.345115e+003,2.691360e-001
2.348972e+003,2.712106e-001
2.352829e+003,2.756269e-001
2.356686e+003,2.779701e-001
2.360543e+003,2.810054e-001
2.364400e+003,2.820881e-001
2.368257e+003,2.783858e-001
2.372114e+003,2.788102e-001
2.375971e+003,2.788744e-001
2.379828e+003,2.721532e-001
2.383686e+003,2.677819e-001
2.387542e+003,2.661393e-001
2.391400e+003,2.659353e-001
2.395257e+003,2.636571e-001
2.399114e+003,2.589819e-001
2.402971e+003,2.574582e-001
2.406828e+003,2.564724e-001
2.410685e+003,2.550125e-001
2.414542e+003,2.554427e-001
2.418399e+003,2.557800e-001
2.422256e+003,2.548815e-001
2.426114e+003,2.531539e-001
2.429971e+003,2.543976e-001
2.433828e+003,2.568346e-001
2.437685e+003,2.583094e-001
2.441542e+003,2.611110e-001
2.445399e+003,2.645967e-001
2.449256e+003,2.636110e-001
2.453113e+003,2.612086e-001
2.456970e+003,2.632322e-001
2.460827e+003,2.655801e-001
2.464684e+003,2.620556e-001
2.468542e+003,2.604114e-001
2.472399e+003,2.615412e-001
2.476256e+003,2.613696e-001
2.480113e+003,2.611504e-001
2.483970e+003,2.568851e-001
2.487827e+003,2.515093e-001
2.491684e+003,2.512350e-001
2.495541e+003,2.519670e-001
2.499398e+003,2.491062e-001
2.503255e+003,2.482353e-001
2.507113e+003,2.503738e-001
2.510969e+003,2.505769e-001
2.514827e+003,2.507425e-001
2.518684e+003,2.513227e-001
2.522541e+003,2.535428e-001
2.526398e+003,2.569731e-001
2.530255e+003,2.598022e-001
2.534112e+003,2.632245e-001
2.537969e+003,2.643462e-001
2.541826e+003,2.669818e-001
2.545683e+003,2.695374e-001
2.549541e+003,2.711867e-001
2.553398e+003,2.743506e-001
2.557255e+003,2.746672e-001
2.561112e+003,2.726134e-001
2.564969e+003,2.731072e-001
2.568826e+003,2.742923e-001
2.572683e+003,2.742841e-001
2.576540e+003,2.748747e-001
2.580397e+003,2.728893e-001
2.584254e+003,2.706677e-001
2.588112e+003,2.718762e-001
2.591969e+003,2.740219e-001
2.595826e+003,2.740211e-001
2.599683e+003,2.750331e-001
2.603540e+003,2.779190e-001
2.607397e+003,2.807177e-001
2.611254e+003,2.795917e-001
2.615111e+003,2.803401e-001
2.618968e+003,2.857338e-001
2.622825e+003,2.899866e-001
2.626682e+003,2.920508e-001
2.630540e+003,2.962205e-001
2.634397e+003,2.982328e-001
2.638254e+003,3.008435e-001
2.642111e+003,3.035700e-001
2.645968e+003,3.062585e-001
2.649825e+003,3.076131e-001
2.653682e+003,3.056140e-001
2.657539e+003,3.050567e-001
2.661396e+003,3.069454e-001
2.665253e+003,3.072215e-001
2.669111e+003,3.085270e-001
2.672968e+003,3.108479e-001
2.676825e+003,3.128504e-001
2.680682e+003,3.129041e-001
2.684539e+003,3.143678e-001
2.688396e+003,3.165734e-001
2.692253e+003,3.175661e-001
2.696110e+003,3.193822e-001
2.699967e+003,3.222191e-001
2.703824e+003,3.264666e-001
2.707681e+003,3.288748e-001
2.711539e+003,3.285363e-001
2.715396e+003,3.322534e-001
2.719253e+003,3.380953e-001
2.723110e+003,3.426275e-001
2.726967e+003,3.488405e-001
2.730824e+003,3.525255e-001
2.734681e+003,3.547643e-001
2.738538e+003,3.571683e-001
2.742395e+003,3.623289e-001
2.746252e+003,3.646362e-001
2.750110e+003,3.675019e-001
2.753967e+003,3.709956e-001
2.757824e+003,3.688880e-001
2.761681e+003,3.684011e-001
2.765538e+003,3.686189e-001
2.769395e+003,3.700555e-001
2.773252e+003,3.743454e-001
2.777109e+003,3.776128e-001
2.780966e+003,3.808968e-001
2.784823e+003,3.833055e-001
2.788680e+003,3.856642e-001
2.792538e+003,3.880365e-001
2.796395e+003,3.941508e-001
2.800252e+003,3.988127e-001
2.804109e+003,4.010608e-001
2.807966e+003,4.030134e-001
2.811823e+003,4.073771e-001
2.815680e+003,4.107708e-001
2.819537e+003,4.178185e-001
2.823394e+003,4.244192e-001
2.827251e+003,4.273625e-001
2.831109e+003,4.291861e-001
2.834966e+003,4.323922e-001
2.838823e+003,4.353677e-001
2.842680e+003,4.379346e-001
2.846537e+003,4.390022e-001
2.850394e+003,4.380955e-001
2.854251e+003,4.423646e-001
2.858108e+003,4.485974e-001
2.861965e+003,4.519217e-001
2.865823e+003,4.560038e-001
2.869679e+003,4.610353e-001
2.873537e+003,4.631304e-001
2.877394e+003,4.621615e-001
2.881251e+003,4.650121e-001
2.885108e+003,4.705233e-001
2.888965e+003,4.717574e-001
2.892822e+003,4.709698e-001
2.896679e+003,4.788507e-001
2.900536e+003,4.901150e-001
2.904393e+003,4.931191e-001
2.908250e+003,4.945871e-001
2.912108e+003,4.950806e-001
2.915965e+003,5.009260e-001
2.919822e+003,5.091828e-001
2.923679e+003,5.146381e-001
2.927536e+003,5.172676e-001
2.931393e+003,5.188782e-001
2.935250e+003,5.254003e-001
2.939107e+003,5.303376e-001
2.942964e+003,5.313139e-001
2.946822e+003,5.329630e-001
2.950678e+003,5.375677e-001
2.954536e+003,5.425978e-001
2.958393e+003,5.444500e-001
2.962250e+003,5.466455e-001
2.966107e+003,5.501109e-001
2.969964e+003,5.558643e-001
2.973821e+003,5.589150e-001
2.977678e+003,5.640475e-001
2.981535e+003,5.658036e-001
2.985392e+003,5.716099e-001
2.989250e+003,5.783200e-001
2.993107e+003,5.869986e-001
2.996964e+003,5.906661e-001
3.000821e+003,5.908204e-001
3.004678e+003,5.934772e-001
3.008535e+003,5.991020e-001
3.012392e+003,6.070639e-001
3.016249e+003,6.084108e-001
3.020106e+003,6.087217e-001
3.023963e+003,6.150972e-001
3.027821e+003,6.208755e-001
3.031677e+003,6.241983e-001
3.035535e+003,6.272594e-001
3.039392e+003,6.311365e-001
3.043249e+003,6.360927e-001
3.047106e+003,6.457405e-001
3.050963e+003,6.566252e-001
3.054820e+003,6.617216e-001
3.058677e+003,6.634862e-001
3.062534e+003,6.643247e-001
3.066391e+003,6.644037e-001
3.070249e+003,6.687328e-001
3.074106e+003,6.767339e-001
3.077963e+003,6.801341e-001
3.081820e+003,6.849508e-001
3.085677e+003,6.857557e-001
3.089534e+003,6.905646e-001
3.093391e+003,6.993834e-001
3.097248e+003,7.088724e-001
3.101105e+003,7.128012e-001
3.104962e+003,7.154123e-001
3.108820e+003,7.190174e-001
3.112677e+003,7.239066e-001
3.116534e+003,7.328264e-001
3.120391e+003,7.324818e-001
3.124248e+003,7.395260e-001
3.128105e+003,7.514893e-001
3.131962e+003,7.499944e-001
3.135819e+003,7.551595e-001
3.139676e+003,7.655802e-001
3.143533e+003,7.674017e-001
3.147390e+003,7.681624e-001
3.151248e+003,7.698067e-001
3.155105e+003,7.800760e-001
3.158962e+003,7.936281e-001
3.162819e+003,7.956895e-001
3.166676e+003,7.964766e-001
3.170533e+003,8.057522e-001
3.174390e+003,8.081398e-001
3.178247e+003,8.097051e-001
3.182104e+003,8.153632e-001
3.185961e+003,8.232594e-001
3.189819e+003,8.363518e-001
3.193676e+003,8.446634e-001
3.197533e+003,8.403118e-001
3.201390e+003,8.375569e-001
3.205247e+003,8.509773e-001
3.209104e+003,8.593797e-001
3.212961e+003,8.536913e-001
3.216818e+003,8.533915e-001
3.220675e+003,8.611729e-001
3.224532e+003,8.666138e-001
3.228389e+003,8.753633e-001
3.232247e+003,8.878514e-001
3.236104e+003,8.808405e-001
3.239961e+003,8.797760e-001
3.243818e+003,8.857567e-001
3.247675e+003,8.958942e-001
3.251532e+003,9.026554e-001
3.255389e+003,9.038899e-001
3.259246e+003,9.085648e-001
3.263103e+003,9.145920e-001
3.266960e+003,9.074720e-001
3.270818e+003,8.917552e-001
3.274675e+003,8.958471e-001
3.278532e+003,9.038290e-001
3.282389e+003,9.012870e-001
3.286246e+003,9.050494e-001
3.290103e+003,9.202411e-001
3.293960e+003,9.315941e-001
3.297817e+003,9.238153e-001
3.301674e+003,9.147188e-001
3.305531e+003,9.247394e-001
3.309388e+003,9.335461e-001
3.313246e+003,9.352037e-001
3.317103e+003,9.400579e-001
3.320960e+003,9.447393e-001
3.324817e+003,9.466924e-001
3.328674e+003,9.479792e-001
3.332531e+003,9.523304e-001
3.336388e+003,9.570346e-001
3.340245e+003,9.676870e-001
3.344102e+003,9.743196e-001
3.347959e+003,9.868981e-001
3.351817e+003,9.960016e-001
3.355674e+003,9.831286e-001
3.359531e+003,9.784227e-001
3.363388e+003,9.902588e-001
3.367245e+003,9.993488e-001
3.371102e+003,9.995521e-001
3.374959e+003,1.005709e+000
3.378816e+003,1.015182e+000
3.382673e+003,1.006149e+000
3.386530e+003,9.957935e-001
3.390387e+003,9.952317e-001
3.394245e+003,1.015616e+000
3.398102e+003,1.029889e+000
3.401959e+003,1.029582e+000
3.405816e+003,1.038880e+000
3.409673e+003,1.037382e+000
3.413530e+003,1.029240e+000
3.417387e+003,1.026801e+000
3.421244e+003,1.013612e+000
3.425101e+003,1.017771e+000
3.428958e+003,1.033306e+000
3.432815e+003,1.038123e+000
3.436673e+003,1.035466e+000
3.440530e+003,1.034531e+000
3.444387e+003,1.027778e+000
3.448244e+003,1.035644e+000
3.452101e+003,1.052896e+000
3.455958e+003,1.061591e+000
3.459815e+003,1.067643e+000
3.463672e+003,1.069267e+000
3.467529e+003,1.051584e+000
3.471386e+003,1.053918e+000
3.475244e+003,1.054890e+000
3.479101e+003,1.061317e+000
3.482958e+003,1.066998e+000
3.486815e+003,1.048615e+000
3.490672e+003,1.049410e+000
3.494529e+003,1.057985e+000
3.498386e+003,1.057904e+000
3.502243e+003,1.055930e+000
3.506100e+003,1.050707e+000
3.509958e+003,1.050014e+000
3.513814e+003,1.057095e+000
3.517672e+003,1.061398e+000
3.521529e+003,1.058789e+000
3.525386e+003,1.060199e+000
3.529243e+003,1.060612e+000
3.533100e+003,1.064949e+000
3.536957e+003,1.065646e+000
3.540814e+003,1.054603e+000
3.544671e+003,1.055733e+000
3.548528e+003,1.066354e+000
3.552385e+003,1.068056e+000
3.556243e+003,1.070734e+000
3.560100e+003,1.056642e+000
3.563957e+003,1.032866e+000
3.567814e+003,1.025895e+000
3.571671e+003,1.027432e+000
3.575528e+003,1.025962e+000
3.579385e+003,1.023130e+000
3.583242e+003,1.018623e+000
3.587099e+003,9.998899e-001
3.590957e+003,9.758557e-001
3.594813e+003,9.521220e-001
3.598671e+003,9.222928e-001
3.602528e+003,9.236912e-001
3.606385e+003,9.261214e-001
3.610242e+003,8.940686e-001
3.614099e+003,8.632578e-001
3.617956e+003,8.228860e-001
3.621813e+003,7.847161e-001
3.625670e+003,7.488871e-001
3.629527e+003,7.076434e-001
3.633385e+003,6.672944e-001
3.637242e+003,6.233643e-001
3.641099e+003,5.866986e-001
3.644956e+003,5.496587e-001
3.648813e+003,5.036616e-001
3.652670e+003,4.598907e-001
3.656527e+003,4.212995e-001
3.660384e+003,3.849442e-001
3.664241e+003,3.545651e-001
3.668098e+003,3.283650e-001
3.671956e+003,3.043729e-001
3.675813e+003,2.820195e-001
3.679670e+003,2.623987e-001
3.683527e+003,2.464878e-001
3.687384e+003,2.326405e-001
3.691241e+003,2.208779e-001
3.695098e+003,2.100719e-001
3.698955e+003,2.013833e-001
3.702812e+003,1.943616e-001
3.706669e+003,1.855224e-001
3.710526e+003,1.777592e-001
3.714384e+003,1.744913e-001
3.718241e+003,1.717248e-001
3.722098e+003,1.636774e-001
3.725955e+003,1.560658e-001
3.729812e+003,1.536062e-001
3.733669e+003,1.493091e-001
3.737526e+003,1.472067e-001
3.741383e+003,1.463116e-001
3.745240e+003,1.446828e-001
3.749097e+003,1.451745e-001
3.752955e+003,1.460514e-001
3.756812e+003,1.437125e-001
3.760669e+003,1.427049e-001
3.764526e+003,1.400914e-001
3.768383e+003,1.371128e-001
3.772240e+003,1.390401e-001
3.776097e+003,1.400270e-001
3.779954e+003,1.373137e-001
3.783811e+003,1.347434e-001
3.787668e+003,1.329538e-001
3.791525e+003,1.342719e-001
3.795383e+003,1.344514e-001
3.799240e+003,1.350672e-001
3.803097e+003,1.329941e-001
3.806954e+003,1.275495e-001
3.810811e+003,1.274960e-001
3.814668e+003,1.299153e-001
3.818525e+003,1.302745e-001
3.822382e+003,1.293617e-001
3.826239e+003,1.289500e-001
3.830096e+003,1.273426e-001
3.833954e+003,1.260452e-001
3.837811e+003,1.241402e-001
3.841668e+003,1.247066e-001
3.845525e+003,1.266291e-001
3.849382e+003,1.272986e-001
3.853239e+003,1.264143e-001
3.857096e+003,1.240878e-001
3.860953e+003,1.261098e-001
3.864810e+003,1.277093e-001
3.868667e+003,1.242988e-001
3.872524e+003,1.229974e-001
3.876382e+003,1.240805e-001
3.880239e+003,1.248058e-001
3.884096e+003,1.251410e-001
3.887953e+003,1.255537e-001
3.891810e+003,1.256338e-001
3.895667e+003,1.256671e-001
3.899524e+003,1.257441e-001
3.903381e+003,1.255911e-001
3.907238e+003,1.265970e-001
3.911095e+003,1.253073e-001
3.914953e+003,1.221336e-001
3.918810e+003,1.224301e-001
3.922667e+003,1.235659e-001
3.926524e+003,1.229403e-001
3.930381e+003,1.230590e-001
3.934238e+003,1.223607e-001
3.938095e+003,1.231027e-001
3.941952e+003,1.226816e-001
3.945809e+003,1.232778e-001
3.949667e+003,1.223459e-001
3.953523e+003,1.191998e-001
3.957381e+003,1.225242e-001
3.961238e+003,1.264733e-001
3.965095e+003,1.224746e-001
3.968952e+003,1.186209e-001
3.972809e+003,1.160665e-001
3.976666e+003,1.187162e-001
3.980523e+003,1.228667e-001
3.984380e+003,1.207059e-001
3.988237e+003,1.180755e-001
3.992094e+003,1.175358e-001
3.995952e+003,1.174432e-001
3.999809e+003,1.158022e-001
4.003666e+003,1.139501e-001
4.007523e+003,1.122267e-001
4.011380e+003,1.136879e-001
4.015237e+003,1.174855e-001
4.019094e+003,1.171085e-001
4.022951e+003,1.140683e-001
4.026808e+003,1.121143e-001
4.030666e+003,1.117695e-001
4.034522e+003,1.142145e-001
4.038380e+003,1.153102e-001
4.042237e+003,1.142219e-001
4.046094e+003,1.165955e-001
4.049951e+003,1.169328e-001
4.053808e+003,1.132557e-001
4.057665e+003,1.131760e-001
4.061522e+003,1.150199e-001
4.065379e+003,1.146001e-001
4.069236e+003,1.128819e-001
4.073094e+003,1.106313e-001
4.076951e+003,1.107202e-001
4.080808e+003,1.129141e-001
4.084665e+003,1.150099e-001
4.088522e+003,1.126361e-001
4.092379e+003,1.129884e-001
4.096236e+003,1.159844e-001
4.100093e+003,1.163153e-001
4.103950e+003,1.140970e-001
4.107808e+003,1.158957e-001
4.111665e+003,1.150657e-001
4.115521e+003,1.119347e-001
4.119379e+003,1.093844e-001
4.123236e+003,1.088455e-001
4.127093e+003,1.098244e-001
4.130950e+003,1.098866e-001
4.134807e+003,1.104372e-001
4.138664e+003,1.103431e-001
4.142521e+003,1.094561e-001
4.146378e+003,1.113465e-001
4.150235e+003,1.124149e-001
4.154093e+003,1.108349e-001
4.157950e+003,1.097440e-001
4.161807e+003,1.068057e-001
4.165664e+003,1.055907e-001
4.169521e+003,1.061708e-001
4.173378e+003,1.074116e-001
4.177235e+003,1.073097e-001
4.181092e+003,1.060658e-001
4.184949e+003,1.067650e-001
4.188807e+003,1.076960e-001
4.192664e+003,1.043337e-001
4.196521e+003,1.057770e-001
4.200378e+003,1.073900e-001
4.204235e+003,1.065192e-001
4.208092e+003,1.091028e-001
4.211949e+003,1.104316e-001
4.215806e+003,1.071673e-001
4.219663e+003,1.042470e-001
4.223521e+003,1.034199e-001
4.227377e+003,1.028116e-001
4.231234e+003,1.023193e-001
4.235092e+003,1.003736e-001
4.238949e+003,1.021082e-001
4.242806e+003,1.029890e-001
4.246663e+003,1.027802e-001
4.250520e+003,1.036803e-001
4.254377e+003,1.035321e-001
4.258234e+003,1.023652e-001
4.262091e+003,1.018850e-001
4.265948e+003,1.010267e-001
4.269806e+003,1.044804e-001
4.273663e+003,1.019013e-001
4.277520e+003,9.917407e-002
4.281377e+003,1.014141e-001
4.285234e+003,1.072872e-001
4.289091e+003,1.082649e-001
4.292948e+003,1.087807e-001
4.296805e+003,1.129170e-001
4.300662e+003,1.104961e-001
4.304520e+003,1.062832e-001
4.308376e+003,1.045077e-001
4.312233e+003,1.078930e-001
4.316091e+003,1.070873e-001
4.319948e+003,1.037597e-001
4.323805e+003,1.043869e-001
4.327662e+003,1.034432e-001
4.331519e+003,1.031899e-001
4.335376e+003,1.009179e-001
4.339233e+003,9.902830e-002
4.343090e+003,9.922095e-002
4.346947e+003,1.005429e-001
4.350805e+003,9.979949e-002
4.354662e+003,9.656502e-002
4.358519e+003,9.617464e-002
4.362376e+003,1.043371e-001
4.366233e+003,1.097394e-001
4.370090e+003,1.076366e-001
4.373947e+003,1.034780e-001
4.377804e+003,1.002993e-001
4.381661e+003,1.055819e-001
4.385519e+003,1.089481e-001
4.389375e+003,1.060041e-001
4.393232e+003,1.082648e-001
4.397090e+003,1.086013e-001
4.400947e+003,1.055965e-001
4.404804e+003,1.030678e-001
4.408661e+003,1.042979e-001
4.412518e+003,1.097535e-001
4.416375e+003,1.093335e-001
4.420232e+003,1.054342e-001
4.424089e+003,1.046440e-001
4.427946e+003,1.064259e-001
4.431804e+003,1.038963e-001
4.435661e+003,1.023662e-001
4.439518e+003,1.078632e-001
4.443375e+003,1.119300e-001
4.447232e+003,1.092286e-001
4.451089e+003,1.078077e-001
4.454946e+003,1.072465e-001
4.458803e+003,1.044701e-001
4.462660e+003,1.053441e-001
4.466518e+003,1.102661e-001
4.470375e+003,1.077485e-001
4.474231e+003,1.051168e-001
4.478089e+003,1.052634e-001
4.481946e+003,1.052210e-001
4.485803e+003,1.112329e-001
4.489660e+003,1.129582e-001
4.493517e+003,1.100514e-001
4.497375e+003,1.103082e-001
4.501231e+003,1.078178e-001
4.505088e+003,1.056210e-001
4.508946e+003,1.061159e-001
4.512803e+003,1.049164e-001
4.516660e+003,1.048959e-001
4.520517e+003,1.057766e-001
4.524374e+003,1.035684e-001
4.528231e+003,1.021672e-001
4.532088e+003,1.015459e-001
4.535945e+003,1.009268e-001
4.539802e+003,1.014078e-001
4.543660e+003,1.009071e-001
4.547517e+003,1.006107e-001
4.551374e+003,1.010024e-001
4.555231e+003,9.948827e-002
4.559088e+003,1.011478e-001
4.562945e+003,1.016942e-001
4.566802e+003,1.006348e-001
4.570659e+003,1.020153e-001
4.574516e+003,1.020421e-001
4.578374e+003,1.009999e-001
4.582230e+003,1.000661e-001
4.586087e+003,1.020812e-001
4.589945e+003,1.071227e-001
4.593802e+003,1.032727e-001
4.597659e+003,9.941812e-002
4.601516e+003,1.015366e-001
4.605373e+003,9.809871e-002
4.609230e+003,9.773961e-002
4.613087e+003,9.896886e-002
4.616944e+003,9.910717e-002
4.620801e+003,1.017253e-001
4.624659e+003,1.037001e-001
4.628516e+003,1.050053e-001
4.632373e+003,1.021507e-001
4.636230e+003,9.742700e-002
4.640087e+003,9.606352e-002
4.643944e+003,1.003012e-001
4.647801e+003,9.528849e-002
4.651658e+003,9.377001e-002
4.655515e+003,9.805946e-002
4.659373e+003,9.875128e-002
4.663229e+003,9.663016e-002
4.667086e+003,9.910405e-002
4.670944e+003,1.057200e-001
4.674801e+003,1.065689e-001
4.678658e+003,1.001609e-001
4.682515e+003,9.742472e-002
4.686372e+003,9.629970e-002
4.690229e+003,9.898826e-002
4.694086e+003,1.017254e-001
4.697943e+003,1.046496e-001
4.701800e+003,1.046753e-001
4.705658e+003,1.026267e-001
4.709515e+003,1.058951e-001
4.713372e+003,1.058189e-001
4.717229e+003,1.024929e-001
4.721086e+003,1.027589e-001
4.724943e+003,1.013532e-001
4.728800e+003,1.001734e-001
4.732657e+003,1.042896e-001
4.736514e+003,1.066550e-001
4.740372e+003,1.063892e-001
4.744229e+003,1.023925e-001
4.748085e+003,9.840024e-002
4.751943e+003,9.934384e-002
4.755800e+003,9.726009e-002
4.759657e+003,9.719937e-002
4.763514e+003,1.033870e-001
4.767371e+003,1.057272e-001
4.771228e+003,1.027543e-001
4.775085e+003,1.039158e-001
4.778942e+003,1.119300e-001
4.782799e+003,1.153382e-001
4.786657e+003,1.120470e-001
4.790514e+003,1.060701e-001
4.794371e+003,1.049578e-001
4.798228e+003,1.060868e-001
4.802085e+003,1.081204e-001
4.805942e+003,1.106802e-001
4.809799e+003,1.064408e-001
4.813656e+003,1.075449e-001
4.817513e+003,1.123203e-001
4.821371e+003,1.100482e-001
4.825228e+003,1.054771e-001
4.829084e+003,1.064004e-001
4.832942e+003,1.078660e-001
4.836799e+003,1.033763e-001
4.840656e+003,9.844733e-002
4.844513e+003,1.031285e-001
4.848370e+003,1.046832e-001
4.852227e+003,1.053124e-001
4.856084e+003,1.071838e-001
4.859941e+003,1.064173e-001
4.863798e+003,1.079849e-001
4.867656e+003,1.147739e-001
4.871513e+003,1.170822e-001
4.875370e+003,1.161807e-001
4.879227e+003,1.182234e-001
4.883084e+003,1.166673e-001
4.886941e+003,1.124653e-001
4.890798e+003,1.146316e-001
4.894655e+003,1.140501e-001
4.898512e+003,1.147867e-001
4.902370e+003,1.138420e-001
4.906227e+003,1.146317e-001
4.910083e+003,1.172802e-001
4.913941e+003,1.139946e-001
4.917798e+003,1.124022e-001
4.921655e+003,1.172582e-001
4.925512e+003,1.145634e-001
4.929369e+003,1.152638e-001
4.933226e+003,1.184375e-001
4.937083e+003,1.174765e-001
4.940940e+003,1.125245e-001
4.944797e+003,1.093972e-001
4.948655e+003,1.136422e-001
4.952512e+003,1.131830e-001
4.956369e+003,1.083992e-001
4.960226e+003,1.133242e-001
4.964083e+003,1.145226e-001
4.967940e+003,1.081156e-001
4.971797e+003,1.094482e-001
4.975654e+003,1.165167e-001
4.979511e+003,1.159742e-001
4.983369e+003,1.192240e-001
4.987226e+003,1.192372e-001
4.991083e+003,1.127421e-001
4.994940e+003,1.138467e-001
4.998797e+003,1.156779e-001
5.002654e+003,1.110209e-001
5.006511e+003,1.102433e-001
5.010368e+003,1.123350e-001
5.014225e+003,1.109141e-001
5.018083e+003,1.105362e-001
5.021939e+003,1.085678e-001
5.025796e+003,1.133921e-001
5.029654e+003,1.160285e-001
5.033511e+003,1.167014e-001
5.037368e+003,1.144348e-001
5.041225e+003,1.086042e-001
5.045082e+003,1.097513e-001
5.048939e+003,1.124186e-001
5.052796e+003,1.138862e-001
5.056653e+003,1.106247e-001
5.060510e+003,1.104193e-001
5.064368e+003,1.147861e-001
5.068225e+003,1.214418e-001
5.072082e+003,1.263265e-001
5.075939e+003,1.255437e-001
5.079796e+003,1.208019e-001
5.083653e+003,1.163582e-001
5.087510e+003,1.194642e-001
5.091367e+003,1.199661e-001
5.095224e+003,1.173477e-001
5.099082e+003,1.189157e-001
5.102938e+003,1.177410e-001
5.106795e+003,1.200200e-001
5.110653e+003,1.207712e-001
5.114510e+003,1.193050e-001
5.118367e+003,1.202098e-001
5.122224e+003,1.197302e-001
5.126081e+003,1.216082e-001
5.129938e+003,1.223020e-001
5.133795e+003,1.220455e-001
5.137652e+003,1.219089e-001
5.141509e+003,1.230044e-001
5.145367e+003,1.255597e-001
5.149224e+003,1.277519e-001
5.153081e+003,1.311456e-001
5.156938e+003,1.325557e-001
5.160795e+003,1.280251e-001
5.164652e+003,1.240395e-001
5.168509e+003,1.247839e-001
5.172366e+003,1.310443e-001
5.176223e+003,1.364214e-001
5.180081e+003,1.308552e-001
5.183938e+003,1.198113e-001
5.187794e+003,1.215265e-001
5.191652e+003,1.299847e-001
5.195509e+003,1.294285e-001
5.199366e+003,1.228417e-001
5.203223e+003,1.278972e-001
5.207080e+003,1.350561e-001
5.210937e+003,1.326682e-001
5.214794e+003,1.283884e-001
5.218651e+003,1.254481e-001
5.222508e+003,1.196497e-001
5.226366e+003,1.168246e-001
5.230223e+003,1.259064e-001
5.234080e+003,1.338238e-001
5.237937e+003,1.296133e-001
5.241794e+003,1.219426e-001
5.245651e+003,1.206331e-001
5.249508e+003,1.213644e-001
5.253365e+003,1.219668e-001
5.257222e+003,1.209303e-001
5.261080e+003,1.228249e-001
5.264937e+003,1.273731e-001
5.268793e+003,1.306405e-001
5.272651e+003,1.360668e-001
5.276508e+003,1.339758e-001
5.280365e+003,1.292257e-001
5.284222e+003,1.283185e-001
5.288079e+003,1.292843e-001
5.291936e+003,1.249428e-001
5.295793e+003,1.251543e-001
5.299650e+003,1.254363e-001
5.303507e+003,1.222505e-001
5.307365e+003,1.207795e-001
5.311222e+003,1.156155e-001
5.315079e+003,1.178337e-001
5.318936e+003,1.231049e-001
5.322793e+003,1.219222e-001
5.326650e+003,1.247916e-001
5.330507e+003,1.225456e-001
5.334364e+003,1.230391e-001
5.338221e+003,1.222905e-001
5.342079e+003,1.221349e-001
5.345936e+003,1.284140e-001
5.349792e+003,1.352613e-001
5.353650e+003,1.357278e-001
5.357507e+003,1.243591e-001
5.361364e+003,1.204880e-001
5.365221e+003,1.232385e-001
5.369078e+003,1.205712e-001
5.372935e+003,1.194571e-001
5.376792e+003,1.236675e-001
5.380649e+003,1.260127e-001
5.384506e+003,1.273107e-001
5.388364e+003,1.268367e-001
5.392221e+003,1.281109e-001
5.396078e+003,1.270386e-001
5.399935e+003,1.273075e-001
5.403792e+003,1.239435e-001
5.407649e+003,1.190235e-001
5.411506e+003,1.218065e-001
5.415363e+003,1.207457e-001
5.419220e+003,1.221803e-001
5.423078e+003,1.217713e-001
5.426935e+003,1.183627e-001
5.430792e+003,1.181458e-001
5.434649e+003,1.159641e-001
5.438506e+003,1.214470e-001
5.442363e+003,1.260901e-001
5.446220e+003,1.223792e-001
5.450077e+003,1.204047e-001
5.453934e+003,1.248719e-001
5.457792e+003,1.329539e-001
5.461648e+003,1.317704e-001
5.465505e+003,1.282288e-001
5.469363e+003,1.308571e-001
5.473220e+003,1.346904e-001
5.477077e+003,1.370532e-001
5.480934e+003,1.308203e-001
5.484791e+003,1.209913e-001
5.488648e+003,1.256656e-001
5.492505e+003,1.277000e-001
5.496362e+003,1.244418e-001
5.500219e+003,1.250081e-001
5.504077e+003,1.240742e-001
5.507934e+003,1.225277e-001
5.511791e+003,1.222342e-001
5.515648e+003,1.293506e-001
5.519505e+003,1.311691e-001
5.523362e+003,1.298679e-001
5.527219e+003,1.312837e-001
5.531076e+003,1.272329e-001
5.534933e+003,1.251234e-001
5.538791e+003,1.256156e-001
5.542647e+003,1.264081e-001
5.546504e+003,1.287853e-001
5.550362e+003,1.303417e-001
5.554219e+003,1.310072e-001
5.558076e+003,1.315075e-001
5.561933e+003,1.246127e-001
5.565790e+003,1.264063e-001
5.569647e+003,1.374203e-001
5.573504e+003,1.399509e-001
5.577361e+003,1.355525e-001
5.581218e+003,1.349822e-001
5.585076e+003,1.313402e-001
5.588933e+003,1.299531e-001
5.592790e+003,1.305075e-001
5.596647e+003,1.281640e-001
5.600504e+003,1.312869e-001
5.604361e+003,1.346328e-001
5.608218e+003,1.292338e-001
5.612075e+003,1.243787e-001
5.615932e+003,1.244387e-001
5.619790e+003,1.233613e-001
5.623646e+003,1.219886e-001
5.627503e+003,1.228279e-001
5.631361e+003,1.284172e-001
5.635218e+003,1.304247e-001
5.639075e+003,1.278902e-001
5.642932e+003,1.258605e-001
5.646789e+003,1.310459e-001
5.650646e+003,1.403679e-001
5.654503e+003,1.403494e-001
5.658360e+003,1.377265e-001
5.662217e+003,1.342814e-001
5.666075e+003,1.320826e-001
5.669932e+003,1.362481e-001
5.673789e+003,1.409251e-001
5.677646e+003,1.398814e-001
5.681503e+003,1.346051e-001
5.685360e+003,1.253837e-001
5.689217e+003,1.274533e-001
5.693074e+003,1.315239e-001
5.696931e+003,1.384400e-001
5.700789e+003,1.382224e-001
5.704646e+003,1.319983e-001
5.708502e+003,1.361245e-001
5.712360e+003,1.403119e-001
5.716217e+003,1.318691e-001
5.720074e+003,1.236039e-001
5.723931e+003,1.299147e-001
5.727788e+003,1.410094e-001
5.731645e+003,1.431462e-001
5.735502e+003,1.335272e-001
5.739359e+003,1.253977e-001
5.743216e+003,1.308460e-001
5.747074e+003,1.416254e-001
5.750931e+003,1.457413e-001
5.754788e+003,1.417975e-001
5.758645e+003,1.389573e-001
5.762502e+003,1.329844e-001
5.766359e+003,1.319010e-001
5.770216e+003,1.356539e-001
5.774073e+003,1.368782e-001
5.777930e+003,1.397671e-001
5.781788e+003,1.383960e-001
5.785645e+003,1.379717e-001
5.789501e+003,1.363749e-001
5.793359e+003,1.357263e-001
5.797216e+003,1.368990e-001
5.801073e+003,1.324994e-001
5.804930e+003,1.307781e-001
5.808787e+003,1.330991e-001
5.812644e+003,1.348433e-001
5.816501e+003,1.340559e-001
5.820358e+003,1.326368e-001
5.824215e+003,1.306833e-001
5.828073e+003,1.307082e-001
5.831930e+003,1.383838e-001
5.835787e+003,1.440829e-001
5.839644e+003,1.424829e-001
5.843501e+003,1.415394e-001
5.847358e+003,1.398362e-001
5.851215e+003,1.378764e-001
5.855072e+003,1.418872e-001
5.858929e+003,1.460139e-001
5.862787e+003,1.382161e-001
5.866644e+003,1.310472e-001
5.870500e+003,1.319094e-001
5.874358e+003,1.386405e-001
5.878215e+003,1.423844e-001
5.882072e+003,1.467770e-001
5.885929e+003,1.523049e-001
5.889786e+003,1.510292e-001
5.893643e+003,1.409015e-001
5.897500e+003,1.342900e-001
5.901357e+003,1.361438e-001
5.905214e+003,1.323040e-001
5.909072e+003,1.351462e-001
5.912929e+003,1.446760e-001
5.916786e+003,1.388071e-001
5.920643e+003,1.342482e-001
5.924500e+003,1.326675e-001
5.928357e+003,1.330666e-001
5.932214e+003,1.342454e-001
5.936071e+003,1.391276e-001
5.939928e+003,1.438084e-001
5.943786e+003,1.477193e-001
5.947643e+003,1.483293e-001
5.951500e+003,1.529042e-001
5.955357e+003,1.515400e-001
5.959214e+003,1.453817e-001
5.963071e+003,1.405636e-001
5.966928e+003,1.452798e-001
5.970785e+003,1.505905e-001
5.974642e+003,1.501723e-001
5.978500e+003,1.560178e-001
5.982356e+003,1.580724e-001
5.986213e+003,1.547032e-001
5.990071e+003,1.500291e-001
5.993928e+003,1.378089e-001
5.997785e+003,1.403172e-001
6.001642e+003,1.446608e-001
6.005499e+003,1.402716e-001
6.009356e+003,1.398607e-001
6.013213e+003,1.425971e-001
6.017070e+003,1.449414e-001
6.020927e+003,1.413217e-001
6.024785e+003,1.442133e-001
6.028642e+003,1.425822e-001
6.032499e+003,1.396420e-001
6.036356e+003,1.434823e-001
6.040213e+003,1.494992e-001
6.044070e+003,1.522879e-001
6.047927e+003,1.503118e-001
6.051784e+003,1.529588e-001
6.055641e+003,1.544983e-001
6.059499e+003,1.534421e-001
6.063355e+003,1.504113e-001
6.067212e+003,1.461074e-001
6.071070e+003,1.410388e-001
6.074927e+003,1.380435e-001
6.078784e+003,1.366759e-001
6.082641e+003,1.385516e-001
6.086498e+003,1.405309e-001
6.090355e+003,1.379720e-001
6.094212e+003,1.347308e-001
6.098069e+003,1.429826e-001
6.101926e+003,1.605469e-001
6.105784e+003,1.583145e-001
6.109641e+003,1.489007e-001
6.113498e+003,1.456431e-001
6.117355e+003,1.449727e-001
6.121212e+003,1.481911e-001
6.125069e+003,1.529398e-001
6.128926e+003,1.534609e-001
6.132783e+003,1.603390e-001
6.136640e+003,1.530806e-001
6.140498e+003,1.481022e-001
6.144354e+003,1.516785e-001
6.148211e+003,1.470286e-001
6.152069e+003,1.448424e-001
6.155926e+003,1.471814e-001
6.159783e+003,1.566327e-001
6.163640e+003,1.682849e-001
6.167497e+003,1.683074e-001
6.171354e+003,1.611630e-001
6.175211e+003,1.497346e-001
6.179068e+003,1.417899e-001
6.182925e+003,1.472907e-001
6.186783e+003,1.503772e-001
6.190640e+003,1.537738e-001
6.194497e+003,1.555171e-001
6.198354e+003,1.479779e-001
6.202211e+003,1.458132e-001
6.206068e+003,1.458778e-001
6.209925e+003,1.477727e-001
6.213782e+003,1.537076e-001
6.217639e+003,1.559295e-001
6.221497e+003,1.544330e-001
6.225354e+003,1.484307e-001
6.229210e+003,1.508528e-001
6.233068e+003,1.636788e-001
6.236925e+003,1.562153e-001
6.240782e+003,1.388530e-001
6.244639e+003,1.354234e-001
6.248496e+003,1.512196e-001
6.252353e+003,1.606769e-001
6.256210e+003,1.547286e-001
6.260067e+003,1.543241e-001
6.263924e+003,1.512100e-001
6.267782e+003,1.472588e-001
6.271639e+003,1.486898e-001
6.275496e+003,1.527155e-001
6.279353e+003,1.561306e-001
6.283210e+003,1.556445e-001
6.287067e+003,1.580145e-001
6.290924e+003,1.563234e-001
6.294781e+003,1.598005e-001
6.298638e+003,1.704601e-001
6.302496e+003,1.633325e-001
6.306353e+003,1.531347e-001
6.310209e+003,1.459900e-001
6.314067e+003,1.464838e-001
6.317924e+003,1.533000e-001
6.321781e+003,1.460219e-001
6.325638e+003,1.418013e-001
6.329495e+003,1.521510e-001
6.333352e+003,1.529543e-001
6.337209e+003,1.475820e-001
6.341066e+003,1.510376e-001
6.344923e+003,1.595096e-001
6.348780e+003,1.630102e-001
6.352638e+003,1.583569e-001
6.356495e+003,1.516484e-001
6.360352e+003,1.455139e-001
6.364209e+003,1.426935e-001
6.368066e+003,1.477406e-001
6.371923e+003,1.570788e-001
6.375780e+003,1.546628e-001
6.379637e+003,1.514172e-001
6.383494e+003,1.535075e-001
6.387352e+003,1.599765e-001
6.391208e+003,1.645695e-001
6.395065e+003,1.678414e-001
6.398923e+003,1.573329e-001
6.402780e+003,1.378289e-001
6.406637e+003,1.381554e-001
6.410494e+003,1.510820e-001
6.414351e+003,1.571510e-001
6.418208e+003,1.589890e-001
6.422065e+003,1.416581e-001
6.425922e+003,1.322674e-001
6.429779e+003,1.402609e-001
6.433637e+003,1.452703e-001
6.437494e+003,1.512861e-001
6.441351e+003,1.575111e-001
6.445208e+003,1.616331e-001
6.449065e+003,1.624076e-001
6.452922e+003,1.632844e-001
6.456779e+003,1.552481e-001
6.460636e+003,1.425742e-001
6.464493e+003,1.471135e-001
6.468351e+003,1.526780e-001
6.472208e+003,1.488253e-001
6.476064e+003,1.609040e-001
6.479922e+003,1.654621e-001
6.483779e+003,1.484136e-001
6.487636e+003,1.472901e-001
6.491493e+003,1.626869e-001
6.495350e+003,1.641284e-001
6.499207e+003,1.480573e-001
6.503064e+003,1.406946e-001
6.506921e+003,1.455419e-001
6.510778e+003,1.513839e-001
6.514636e+003,1.399790e-001
6.518493e+003,1.327645e-001
6.522350e+003,1.532562e-001
6.526207e+003,1.677312e-001
6.530064e+003,1.668110e-001
6.533921e+003,1.654916e-001
6.537778e+003,1.635961e-001
6.541635e+003,1.630033e-001
6.545492e+003,1.659889e-001
6.549350e+003,1.623761e-001
6.553207e+003,1.584494e-001
6.557063e+003,1.528770e-001
6.560921e+003,1.564852e-001
6.564778e+003,1.677064e-001
6.568635e+003,1.637556e-001
6.572492e+003,1.449430e-001
6.576349e+003,1.510879e-001
6.580206e+003,1.629283e-001
6.584063e+003,1.464709e-001
6.587920e+003,1.320109e-001
6.591777e+003,1.388589e-001
6.595635e+003,1.530310e-001
6.599492e+003,1.495875e-001
6.603349e+003,1.355734e-001
6.607206e+003,1.432073e-001
6.611063e+003,1.574662e-001
6.614920e+003,1.479556e-001
6.618777e+003,1.437493e-001
6.622634e+003,1.555444e-001
6.626491e+003,1.662429e-001
6.630349e+003,1.637782e-001
6.634206e+003,1.594337e-001
6.638063e+003,1.688965e-001
6.641920e+003,1.650026e-001
6.645777e+003,1.590769e-001
6.649634e+003,1.719116e-001
6.653491e+003,1.681369e-001
6.657348e+003,1.540428e-001
6.661205e+003,1.674072e-001
6.665063e+003,1.650434e-001
6.668919e+003,1.603048e-001
6.672776e+003,1.678714e-001
6.676634e+003,1.587047e-001
6.680491e+003,1.639952e-001
6.684348e+003,1.712490e-001
6.688205e+003,1.676781e-001
6.692062e+003,1.668292e-001
6.695919e+003,1.571882e-001
6.699776e+003,1.477370e-001
6.703633e+003,1.436715e-001
6.707490e+003,1.637743e-001
6.711348e+003,1.660719e-001
6.715205e+003,1.406711e-001
6.719062e+003,1.354787e-001
6.722919e+003,1.495249e-001
6.726776e+003,1.534875e-001
6.730633e+003,1.431648e-001
6.734490e+003,1.421365e-001
6.738347e+003,1.679599e-001
6.742204e+003,1.887309e-001
6.746062e+003,1.785899e-001
6.749918e+003,1.678689e-001
6.753775e+003,1.635780e-001
6.757633e+003,1.669961e-001
6.761490e+003,1.688214e-001
6.765347e+003,1.575753e-001
6.769204e+003,1.525986e-001
6.773061e+003,1.449872e-001
6.776918e+003,1.545379e-001
6.780775e+003,1.709896e-001
6.784632e+003,1.828686e-001
6.788489e+003,1.777549e-001
6.792347e+003,1.628266e-001
6.796204e+003,1.516318e-001
6.800061e+003,1.528272e-001
6.803918e+003,1.685298e-001
6.807775e+003,1.641981e-001
6.811632e+003,1.598613e-001
6.815489e+003,1.536871e-001
6.819346e+003,1.622113e-001
6.823203e+003,1.729339e-001
6.827061e+003,1.586363e-001
6.830917e+003,1.485358e-001
6.834774e+003,1.515788e-001
6.838632e+003,1.556001e-001
6.842489e+003,1.621588e-001
6.846346e+003,1.579932e-001
6.850203e+003,1.574582e-001
6.854060e+003,1.573413e-001
6.857917e+003,1.553302e-001
6.861774e+003,1.598967e-001
6.865631e+003,1.721261e-001
6.869488e+003,1.725232e-001
6.873346e+003,1.505187e-001
6.877203e+003,1.456062e-001
6.881060e+003,1.562195e-001
6.884917e+003,1.556539e-001
6.888774e+003,1.503050e-001
6.892631e+003,1.415148e-001
6.896488e+003,1.420010e-001
6.900345e+003,1.402261e-001
6.904202e+003,1.507939e-001
6.908060e+003,1.502745e-001
6.911917e+003,1.366986e-001
6.915773e+003,1.360908e-001
6.919631e+003,1.494525e-001
6.923488e+003,1.607302e-001
6.927345e+003,1.677538e-001
6.931202e+003,1.905676e-001
6.935059e+003,1.663601e-001
6.938916e+003,1.499908e-001
6.942773e+003,1.649244e-001
6.946630e+003,1.766554e-001
6.950487e+003,1.786955e-001
6.954345e+003,1.659838e-001
6.958202e+003,1.556000e-001
6.962059e+003,1.624955e-001
6.965916e+003,1.604255e-001
6.969773e+003,1.425717e-001
6.973630e+003,1.573475e-001
6.977487e+003,1.672958e-001
6.981344e+003,1.694946e-001
6.985201e+003,1.840862e-001
6.989059e+003,1.744106e-001
6.992916e+003,1.729149e-001
6.996772e+003,2.003583e-001
7.000630e+003,2.019731e-001
7.004487e+003,1.757968e-001
7.008344e+003,1.539240e-001
7.012201e+003,1.554567e-001
7.016058e+003,1.676953e-001
7.019915e+003,1.610565e-001
7.023772e+003,1.569766e-001
7.027629e+003,1.701895e-001
7.031486e+003,1.753423e-001
7.035344e+003,1.741975e-001
7.039201e+003,1.653612e-001
7.043058e+003,1.412292e-001
7.046915e+003,1.405191e-001
7.050772e+003,1.500404e-001
7.054629e+003,1.705804e-001
7.058486e+003,1.690006e-001
7.062343e+003,1.663380e-001
7.066200e+003,1.720319e-001
7.070058e+003,1.504147e-001
7.073915e+003,1.565271e-001
7.077771e+003,1.822253e-001
7.081629e+003,1.940990e-001
7.085486e+003,1.838771e-001
7.089343e+003,1.941909e-001
7.093200e+003,1.961878e-001
7.097057e+003,1.579728e-001
7.100914e+003,1.544261e-001
7.104771e+003,1.809917e-001
7.108628e+003,1.761074e-001
7.112485e+003,1.512244e-001
7.116343e+003,1.435996e-001
7.120200e+003,1.366856e-001
7.124057e+003,1.503370e-001
7.127914e+003,1.646188e-001
7.131771e+003,1.674992e-001
7.135628e+003,1.616509e-001
7.139485e+003,1.629922e-001
7.143342e+003,1.571531e-001
7.147199e+003,1.503580e-001
7.151057e+003,1.692730e-001
7.154914e+003,1.641066e-001
7.158771e+003,1.384388e-001
7.162628e+003,1.541248e-001
7.166485e+003,1.991401e-001
7.170342e+003,1.965550e-001
7.174199e+003,1.725603e-001
7.178056e+003,1.494774e-001
7.181913e+003,1.577922e-001
7.185771e+003,1.761457e-001
7.189627e+003,1.671183e-001
7.193484e+003,1.622866e-001
7.197342e+003,1.542347e-001
7.201199e+003,1.432913e-001
7.205056e+003,1.623344e-001
7.208913e+003,1.810419e-001
7.212770e+003,1.764268e-001
7.216627e+003,1.728120e-001
7.220484e+003,1.767058e-001
7.224341e+003,1.619570e-001
7.228198e+003,1.583016e-001
7.232056e+003,1.637508e-001
7.235913e+003,1.793641e-001
7.239770e+003,2.076887e-001
7.243627e+003,2.059377e-001
7.247484e+003,1.583776e-001
7.251341e+003,1.475043e-001
7.255198e+003,1.915116e-001
7.259055e+003,2.056773e-001
7.262912e+003,1.840628e-001
7.266770e+003,1.684450e-001
7.270626e+003,1.626820e-001
7.274483e+003,1.719667e-001
7.278341e+003,1.764974e-001
7.282198e+003,1.617186e-001
7.286055e+003,1.573395e-001
7.289912e+003,1.570363e-001
7.293769e+003,1.597625e-001
7.297626e+003,1.701870e-001
7.301483e+003,1.736644e-001
7.305340e+003,1.848743e-001
7.309197e+003,1.953489e-001
7.313055e+003,1.750539e-001
7.316912e+003,1.715790e-001
7.320769e+003,1.799742e-001
7.324626e+003,1.938364e-001
7.328483e+003,1.790624e-001
7.332340e+003,1.428903e-001
7.336197e+003,1.202751e-001
7.340054e+003,1.443441e-001
7.343911e+003,1.805138e-001
7.347769e+003,1.921881e-001
7.351625e+003,1.842070e-001
7.355482e+003,1.922122e-001
7.359340e+003,1.785952e-001
7.363197e+003,1.495428e-001
7.367054e+003,1.366804e-001
7.370911e+003,1.482348e-001
7.374768e+003,1.674045e-001
7.378625e+003,1.569752e-001
7.382482e+003,1.561947e-001
7.386339e+003,1.474890e-001
7.390196e+003,1.473054e-001
7.394054e+003,1.606892e-001
7.397911e+003,1.653381e-001
7.401768e+003,1.531376e-001
7.405625e+003,1.911655e-001
7.409482e+003,2.133539e-001
7.413339e+003,1.823031e-001
7.417196e+003,1.827088e-001
7.421053e+003,1.785067e-001
7.424910e+003,1.474936e-001
7.428768e+003,1.378966e-001
7.432625e+003,1.490750e-001
7.436481e+003,1.313842e-001
7.440339e+003,1.280992e-001
7.444196e+003,1.666508e-001
7.448053e+003,1.908595e-001
7.451910e+003,2.175100e-001
7.455767e+003,2.289824e-001
7.459624e+003,1.912967e-001
7.463481e+003,1.465361e-001
7.467338e+003,1.532665e-001
7.471195e+003,1.800757e-001
7.475053e+003,1.939927e-001
7.478910e+003,2.223366e-001
7.482767e+003,2.347348e-001
7.486624e+003,1.931302e-001
7.490481e+003,1.275716e-001
7.494338e+003,1.309438e-001
7.498195e+003,1.892415e-001
7.502052e+003,1.800141e-001
7.505909e+003,1.445320e-001
7.509767e+003,1.618300e-001
7.513624e+003,1.790677e-001
7.517480e+003,1.862813e-001
7.521338e+003,1.804400e-001
7.525195e+003,1.286230e-001
7.529052e+003,1.194131e-001
7.532909e+003,1.406105e-001
7.536766e+003,1.397687e-001
7.540623e+003,1.565507e-001
7.544480e+003,1.890143e-001
7.548337e+003,1.715036e-001
7.552194e+003,1.543211e-001
7.556052e+003,1.699086e-001
7.559909e+003,1.647675e-001
7.563766e+003,1.716665e-001
7.567623e+003,2.038169e-001
7.571480e+003,1.867189e-001
7.575337e+003,1.649378e-001
7.579194e+003,1.525637e-001
7.583051e+003,1.433180e-001
7.586908e+003,1.762714e-001
7.590766e+003,1.674772e-001
7.594623e+003,1.477780e-001
7.598479e+003,1.402659e-001
7.602337e+003,1.441865e-001
7.606194e+003,1.631496e-001
7.610051e+003,1.447985e-001
7.613908e+003,1.425849e-001
7.617765e+003,1.647907e-001
7.621622e+003,1.782622e-001
7.625479e+003,1.768811e-001
7.629336e+003,1.645494e-001
7.633193e+003,1.743480e-001
7.637051e+003,1.793984e-001
7.640908e+003,1.858052e-001
7.644765e+003,1.703600e-001
7.648622e+003,1.618865e-001
7.652479e+003,1.512265e-001
7.656336e+003,1.545365e-001
7.660193e+003,1.943116e-001
7.664050e+003,1.687912e-001
7.667907e+003,1.484701e-001
7.671765e+003,1.424751e-001
7.675622e+003,1.541249e-001
7.679479e+003,1.550086e-001
7.683336e+003,1.426500e-001
7.687193e+003,1.405154e-001
7.691050e+003,1.433401e-001
7.694907e+003,1.616923e-001
7.698764e+003,1.822520e-001
7.702621e+003,1.815028e-001
7.706479e+003,1.882641e-001
7.710335e+003,1.614547e-001
7.714192e+003,1.032845e-001
7.718050e+003,9.616886e-002
7.721907e+003,1.555917e-001
7.725764e+003,1.920932e-001
7.729621e+003,2.022495e-001
7.733478e+003,2.220460e-001
7.737335e+003,2.280616e-001
7.741192e+003,2.318081e-001
7.745049e+003,2.192044e-001
7.748906e+003,2.321705e-001
7.752764e+003,2.169094e-001
7.756621e+003,2.050359e-001
7.760478e+003,1.987762e-001
7.764335e+003,1.519621e-001
7.768192e+003,1.520248e-001
7.772049e+003,1.230554e-001
7.775906e+003,1.024757e-001
7.779763e+003,1.321314e-001
7.783620e+003,1.570088e-001
7.787478e+003,1.846934e-001
7.791334e+003,1.577473e-001
7.795191e+003,1.147239e-001
7.799049e+003,1.368079e-001
7.802906e+003,2.094501e-001
7.806763e+003,1.774550e-001
7.810620e+003,1.889107e-001
7.814477e+003,1.997509e-001
7.818334e+003,1.130847e-001
7.822191e+003,6.812555e-002
7.826048e+003,1.217296e-001
7.829905e+003,1.480058e-001
7.833763e+003,1.121995e-001
7.837620e+003,9.375504e-002
7.841477e+003,1.429489e-001
7.845334e+003,1.910621e-001
7.849191e+003,1.989747e-001
7.853048e+003,1.407549e-001
7.856905e+003,1.656585e-001
7.860762e+003,2.365813e-001
7.864619e+003,1.545291e-001
7.868477e+003,1.187232e-001
7.872333e+003,1.841898e-001
7.876190e+003,2.224116e-001
7.880048e+003,2.363520e-001
7.883905e+003,1.599163e-001
7.887762e+003,1.067104e-001
7.891619e+003,1.620812e-001
7.895476e+003,1.543548e-001
7.899333e+003,1.577387e-001
7.903190e+003,2.036744e-001
7.907047e+003,1.843131e-001
7.910904e+003,1.879918e-001
7.914762e+003,1.378462e-001
7.918619e+003,6.115831e-002
7.922476e+003,-9.646012e-003
7.926333e+003,7.491697e-002
7.930190e+003,1.797588e-001
7.934047e+003,1.727722e-001
7.937904e+003,1.169379e-001
7.941761e+003,1.075351e-001
7.945618e+003,1.465713e-001
7.949476e+003,1.763016e-001
7.953333e+003,2.350837e-001
7.957189e+003,2.942900e-001
7.961047e+003,2.037342e-001
7.964904e+003,6.169618e-002
7.968761e+003,4.104171e-002
7.972618e+003,6.888659e-002
7.976475e+003,1.373117e-001
7.980332e+003,1.580575e-001
7.984189e+003,1.893928e-001
7.988046e+003,1.636858e-001
7.991903e+003,1.863346e-001
7.995761e+003,1.528139e-001
7.999618e+003,8.625250e-002
