4.011380e+002,2.122069e-001
4.049951e+002,6.000000e+000
4.088522e+002,6.000000e+000
4.127093e+002,6.000000e+000
4.165664e+002,6.000000e+000
4.204235e+002,1.026148e+000
4.242806e+002,7.524642e-001
4.281377e+002,6.000000e+000
4.319948e+002,5.117868e-001
4.358519e+002,2.448578e-001
4.397090e+002,4.681052e-001
4.435661e+002,1.015973e+000
4.474232e+002,3.858805e-001
4.512803e+002,6.000000e+000
4.551374e+002,6.000000e+000
4.589945e+002,6.000000e+000
4.628516e+002,6.000000e+000
4.667087e+002,6.000000e+000
4.705658e+002,6.000000e+000
4.744229e+002,6.000000e+000
4.782800e+002,6.000000e+000
4.821371e+002,6.000000e+000
4.859941e+002,3.940413e-001
4.898513e+002,-1.236017e+000
4.937083e+002,6.000000e+000
4.975654e+002,2.726665e-001
5.014225e+002,6.000000e+000
5.052796e+002,-6.330251e-001
5.091367e+002,6.000000e+000
5.129938e+002,-2.569913e-001
5.168509e+002,-2.177272e-001
5.207080e+002,-1.981100e-001
5.245651e+002,6.000000e+000
5.284222e+002,2.811344e+000
5.322793e+002,-1.369708e-001
5.361364e+002,8.704327e-001
5.399935e+002,6.000000e+000
5.438506e+002,6.000000e+000
5.477077e+002,6.000000e+000
5.515648e+002,-1.433987e-001
5.554219e+002,6.000000e+000
5.592790e+002,4.722409e-001
5.631361e+002,4.505927e-001
5.669932e+002,-5.195074e-001
5.708503e+002,-3.512775e-001
5.747074e+002,5.669605e-002
5.785645e+002,-2.216021e-001
5.824216e+002,6.000000e+000
5.862787e+002,-3.520051e-001
5.901357e+002,-3.278631e-001
5.939929e+002,1.275491e-001
5.978499e+002,-3.102044e-001
6.017070e+002,3.464359e-002
6.055641e+002,6.000000e+000
6.094212e+002,-2.641937e-001
6.132783e+002,-3.484126e-001
6.171354e+002,6.000000e+000
6.209925e+002,1.036093e-001
6.248496e+002,-3.438364e-002
6.287067e+002,6.000000e+000
6.325638e+002,6.000000e+000
6.364209e+002,6.000000e+000
6.402780e+002,6.000000e+000
6.441351e+002,6.000000e+000
6.479922e+002,2.687566e-001
6.518493e+002,6.000000e+000
6.557064e+002,1.372903e+000
6.595635e+002,4.247724e-001
6.634205e+002,6.000000e+000
6.672777e+002,-9.352507e-001
6.711348e+002,5.946956e-001
6.749918e+002,6.000000e+000
6.788490e+002,1.483839e+000
6.827061e+002,9.010589e-001
6.865631e+002,6.000000e+000
6.904203e+002,5.849562e-001
6.942773e+002,6.000000e+000
6.981344e+002,6.000000e+000
7.019916e+002,6.000000e+000
7.058486e+002,7.560559e-002
7.097057e+002,6.000000e+000
7.135629e+002,6.000000e+000
7.174199e+002,6.000000e+000
7.212770e+002,6.000000e+000
7.251342e+002,6.000000e+000
7.289912e+002,6.000000e+000
7.328483e+002,6.000000e+000
7.367054e+002,-1.172968e-001
7.405625e+002,2.052796e-002
7.444196e+002,6.000000e+000
7.482767e+002,-3.947575e-001
7.521338e+002,-3.333882e-001
7.559908e+002,-4.861448e-001
7.598480e+002,6.000000e+000
7.637051e+002,-3.657033e-001
7.675621e+002,6.000000e+000
7.714193e+002,6.000000e+000
7.752764e+002,4.181814e-001
7.791334e+002,-3.770766e-001
7.829905e+002,6.000000e+000
7.868477e+002,6.497850e-001
7.907047e+002,-7.335697e-001
7.945618e+002,-5.744414e-001
7.984189e+002,6.102039e-001
8.022760e+002,3.631858e-001
8.061331e+002,1.333114e-001
8.099902e+002,6.000000e+000
8.138473e+002,6.000000e+000
8.177044e+002,6.000000e+000
8.215615e+002,1.230875e+000
8.254186e+002,1.427959e+000
8.292757e+002,2.426369e-001
8.331328e+002,3.682629e-001
8.369899e+002,7.470073e-001
8.408470e+002,1.017186e+000
8.447041e+002,6.000000e+000
8.485612e+002,6.000000e+000
8.524183e+002,1.078506e+000
8.562754e+002,8.737710e-001
8.601324e+002,9.518099e-001
8.639896e+002,1.303810e+000
8.678467e+002,1.610927e+000
8.717037e+002,1.539756e+000
8.755609e+002,1.406947e+000
8.794180e+002,2.229687e+000
8.832750e+002,6.000000e+000
8.871321e+002,2.071192e+000
8.909893e+002,1.682302e+000
8.948463e+002,6.000000e+000
8.987034e+002,6.000000e+000
9.025605e+002,1.354505e+000
9.064176e+002,1.271234e+000
9.102747e+002,1.290176e+000
9.141318e+002,1.329172e+000
9.179889e+002,1.417024e+000
9.218461e+002,1.299300e+000
9.257031e+002,1.224335e+000
9.295602e+002,1.303493e+000
9.334174e+002,1.509172e+000
9.372744e+002,1.544954e+000
9.411315e+002,1.525328e+000
9.449886e+002,1.495560e+000
9.488457e+002,1.472925e+000
9.527028e+002,1.437204e+000
9.565599e+002,1.357931e+000
9.604170e+002,1.362416e+000
9.642740e+002,1.523901e+000
9.681312e+002,1.633748e+000
9.719883e+002,1.637322e+000
9.758453e+002,1.647996e+000
9.797025e+002,1.550022e+000
9.835596e+002,1.437895e+000
9.874166e+002,1.367235e+000
9.912738e+002,1.326639e+000
9.951309e+002,1.412115e+000
9.989879e+002,1.448748e+000
1.002845e+003,1.445711e+000
1.006702e+003,1.438917e+000
1.010559e+003,1.421237e+000
1.014416e+003,1.381738e+000
1.018273e+003,1.339455e+000
1.022130e+003,1.337033e+000
1.025988e+003,1.396738e+000
1.029845e+003,1.409289e+000
1.033702e+003,1.339931e+000
1.037559e+003,1.246613e+000
1.041416e+003,1.256980e+000
1.045273e+003,1.257241e+000
1.049130e+003,1.289364e+000
1.052987e+003,1.311638e+000
1.056844e+003,1.310969e+000
1.060702e+003,1.345033e+000
1.064559e+003,1.315097e+000
1.068416e+003,1.271180e+000
1.072273e+003,1.304071e+000
1.076130e+003,1.332293e+000
1.079987e+003,1.270642e+000
1.083844e+003,1.243544e+000
1.087701e+003,1.241249e+000
1.091558e+003,1.228963e+000
1.095415e+003,1.231442e+000
1.099272e+003,1.247021e+000
1.103130e+003,1.204667e+000
1.106987e+003,1.156700e+000
1.110844e+003,1.147486e+000
1.114701e+003,1.178848e+000
1.118558e+003,1.193692e+000
1.122415e+003,1.170880e+000
1.126272e+003,1.147420e+000
1.130129e+003,1.137150e+000
1.133986e+003,1.129263e+000
1.137843e+003,1.127572e+000
1.141701e+003,1.123877e+000
1.145558e+003,1.136822e+000
1.149415e+003,1.127810e+000
1.153272e+003,1.119292e+000
1.157129e+003,1.117916e+000
1.160986e+003,1.115381e+000
1.164843e+003,1.112689e+000
1.168700e+003,1.102221e+000
1.172557e+003,1.096258e+000
1.176414e+003,1.080225e+000
1.180271e+003,1.061675e+000
1.184129e+003,1.062173e+000
1.187986e+003,1.042605e+000
1.191843e+003,1.015959e+000
1.195700e+003,9.871377e-001
1.199557e+003,9.627920e-001
1.203414e+003,9.231153e-001
1.207271e+003,8.927857e-001
1.211128e+003,8.682157e-001
1.214985e+003,8.217244e-001
1.218842e+003,7.629095e-001
1.222699e+003,7.157235e-001
1.226557e+003,6.848674e-001
1.230414e+003,6.545227e-001
1.234271e+003,6.249521e-001
1.238128e+003,6.038079e-001
1.241985e+003,5.825676e-001
1.245842e+003,5.616739e-001
1.249699e+003,5.458270e-001
1.253556e+003,5.319935e-001
1.257413e+003,5.162684e-001
1.261271e+003,5.025439e-001
1.265128e+003,4.912410e-001
1.268985e+003,4.769568e-001
1.272842e+003,4.685644e-001
1.276699e+003,4.649864e-001
1.280556e+003,4.587177e-001
1.284413e+003,4.506958e-001
1.288270e+003,4.412409e-001
1.292127e+003,4.331526e-001
1.295984e+003,4.244820e-001
1.299841e+003,4.192598e-001
1.303698e+003,4.096850e-001
1.307556e+003,3.998579e-001
1.311413e+003,3.916663e-001
1.315270e+003,3.840564e-001
1.319127e+003,3.790992e-001
1.322984e+003,3.749535e-001
1.326841e+003,3.663414e-001
1.330698e+003,3.583291e-001
1.334555e+003,3.570196e-001
1.338412e+003,3.542913e-001
1.342270e+003,3.496421e-001
1.346127e+003,3.497212e-001
1.349984e+003,3.513685e-001
1.353841e+003,3.525538e-001
1.357698e+003,3.557221e-001
1.361555e+003,3.626054e-001
1.365412e+003,3.710860e-001
1.369269e+003,3.771600e-001
1.373126e+003,3.867131e-001
1.376983e+003,3.979608e-001
1.380840e+003,4.077984e-001
1.384698e+003,4.148050e-001
1.388555e+003,4.228430e-001
1.392412e+003,4.336901e-001
1.396269e+003,4.487910e-001
1.400126e+003,4.610932e-001
1.403983e+003,4.734829e-001
1.407840e+003,4.863963e-001
1.411697e+003,4.994484e-001
1.415554e+003,5.094855e-001
1.419411e+003,5.146545e-001
1.423269e+003,5.185871e-001
1.427126e+003,5.222979e-001
1.430983e+003,5.259669e-001
1.434840e+003,5.299342e-001
1.438697e+003,5.290004e-001
1.442554e+003,5.253342e-001
1.446411e+003,5.240284e-001
1.450268e+003,5.180091e-001
1.454125e+003,5.100031e-001
1.457982e+003,5.110127e-001
1.461839e+003,5.120841e-001
1.465697e+003,5.081178e-001
1.469554e+003,5.054334e-001
1.473411e+003,5.080022e-001
1.477268e+003,5.112792e-001
1.481125e+003,5.185539e-001
1.484982e+003,5.292205e-001
1.488839e+003,5.390455e-001
1.492696e+003,5.519193e-001
1.496553e+003,5.616741e-001
1.500411e+003,5.652170e-001
1.504268e+003,5.665025e-001
1.508125e+003,5.691212e-001
1.511982e+003,5.735743e-001
1.515839e+003,5.707397e-001
1.519696e+003,5.646138e-001
1.523553e+003,5.613775e-001
1.527410e+003,5.561132e-001
1.531267e+003,5.456725e-001
1.535124e+003,5.317277e-001
1.538981e+003,5.211422e-001
1.542839e+003,5.144351e-001
1.546696e+003,5.047799e-001
1.550553e+003,4.941723e-001
1.554410e+003,4.869445e-001
1.558267e+003,4.811343e-001
1.562124e+003,4.731849e-001
1.565981e+003,4.679452e-001
1.569838e+003,4.636656e-001
1.573695e+003,4.597449e-001
1.577552e+003,4.551323e-001
1.581410e+003,4.501410e-001
1.585267e+003,4.493610e-001
1.589124e+003,4.564956e-001
1.592981e+003,4.628271e-001
1.596838e+003,4.712765e-001
1.600695e+003,4.810269e-001
1.604552e+003,4.902979e-001
1.608409e+003,5.000456e-001
1.612266e+003,5.160695e-001
1.616123e+003,5.344076e-001
1.619980e+003,5.534783e-001
1.623838e+003,5.704482e-001
1.627695e+003,5.848397e-001
1.631552e+003,5.974650e-001
1.635409e+003,6.034529e-001
1.639266e+003,6.045475e-001
1.643123e+003,6.020011e-001
1.646980e+003,5.935998e-001
1.650837e+003,5.813960e-001
1.654694e+003,5.682927e-001
1.658551e+003,5.544896e-001
1.662409e+003,5.402321e-001
1.666266e+003,5.261105e-001
1.670123e+003,5.105060e-001
1.673980e+003,4.934448e-001
1.677837e+003,4.757412e-001
1.681694e+003,4.603872e-001
1.685551e+003,4.455276e-001
1.689408e+003,4.333349e-001
1.693265e+003,4.216867e-001
1.697122e+003,4.126626e-001
1.700979e+003,4.063778e-001
1.704837e+003,3.989189e-001
1.708694e+003,3.907520e-001
1.712551e+003,3.856737e-001
1.716408e+003,3.832274e-001
1.720265e+003,3.801614e-001
1.724122e+003,3.764412e-001
1.727979e+003,3.744135e-001
1.731836e+003,3.734711e-001
1.735693e+003,3.739791e-001
1.739550e+003,3.730339e-001
1.743408e+003,3.690448e-001
1.747265e+003,3.662266e-001
1.751122e+003,3.632285e-001
1.754979e+003,3.633912e-001
1.758836e+003,3.635128e-001
1.762693e+003,3.608220e-001
1.766550e+003,3.593023e-001
1.770407e+003,3.577002e-001
1.774264e+003,3.558627e-001
1.778121e+003,3.541658e-001
1.781979e+003,3.519244e-001
1.785836e+003,3.515971e-001
1.789693e+003,3.477721e-001
1.793550e+003,3.423291e-001
1.797407e+003,3.411344e-001
1.801264e+003,3.416745e-001
1.805121e+003,3.398381e-001
1.808978e+003,3.379917e-001
1.812835e+003,3.338270e-001
1.816692e+003,3.313252e-001
1.820549e+003,3.317769e-001
1.824407e+003,3.317473e-001
1.828264e+003,3.306478e-001
1.832121e+003,3.290280e-001
1.835978e+003,3.300053e-001
1.839835e+003,3.315079e-001
1.843692e+003,3.307725e-001
1.847549e+003,3.291326e-001
1.851406e+003,3.285756e-001
1.855263e+003,3.296589e-001
1.859120e+003,3.308345e-001
1.862978e+003,3.307409e-001
1.866835e+003,3.298887e-001
1.870692e+003,3.292120e-001
1.874549e+003,3.305126e-001
1.878406e+003,3.303869e-001
1.882263e+003,3.285815e-001
1.886120e+003,3.262945e-001
1.889977e+003,3.270387e-001
1.893834e+003,3.274102e-001
1.897691e+003,3.257735e-001
1.901548e+003,3.252393e-001
1.905406e+003,3.249596e-001
1.909263e+003,3.248462e-001
1.913120e+003,3.246647e-001
1.916977e+003,3.215470e-001
1.920834e+003,3.177432e-001
1.924691e+003,3.161588e-001
1.928548e+003,3.158272e-001
1.932405e+003,3.143646e-001
1.936262e+003,3.118705e-001
1.940119e+003,3.110176e-001
1.943977e+003,3.108814e-001
1.947834e+003,3.116371e-001
1.951691e+003,3.112386e-001
1.955548e+003,3.082500e-001
1.959405e+003,3.087246e-001
1.963262e+003,3.096595e-001
1.967119e+003,3.111059e-001
1.970976e+003,3.111545e-001
1.974833e+003,3.122188e-001
1.978690e+003,3.133714e-001
1.982547e+003,3.127162e-001
1.986405e+003,3.120388e-001
1.990262e+003,3.137285e-001
1.994119e+003,3.169291e-001
1.997976e+003,3.194267e-001
2.001833e+003,3.189517e-001
2.005690e+003,3.191442e-001
2.009547e+003,3.208985e-001
2.013404e+003,3.219342e-001
2.017261e+003,3.215662e-001
2.021118e+003,3.215471e-001
2.024976e+003,3.203365e-001
2.028833e+003,3.209159e-001
2.032690e+003,3.220087e-001
2.036547e+003,3.211068e-001
2.040404e+003,3.184092e-001
2.044261e+003,3.178707e-001
2.048118e+003,3.167420e-001
2.051975e+003,3.142871e-001
2.055832e+003,3.112541e-001
2.059689e+003,3.111754e-001
2.063546e+003,3.117484e-001
2.067404e+003,3.092759e-001
2.071261e+003,3.078112e-001
2.075118e+003,3.080115e-001
2.078975e+003,3.075823e-001
2.082832e+003,3.075773e-001
2.086689e+003,3.081813e-001
2.090546e+003,3.077420e-001
2.094403e+003,3.074883e-001
2.098260e+003,3.074582e-001
2.102117e+003,3.087979e-001
2.105975e+003,3.106546e-001
2.109832e+003,3.099529e-001
2.113689e+003,3.101202e-001
2.117546e+003,3.128766e-001
2.121403e+003,3.143058e-001
2.125260e+003,3.147716e-001
2.129117e+003,3.153666e-001
2.132974e+003,3.147312e-001
2.136831e+003,3.169449e-001
2.140688e+003,3.195749e-001
2.144545e+003,3.201596e-001
2.148403e+003,3.192391e-001
2.152260e+003,3.178262e-001
2.156117e+003,3.180142e-001
2.159974e+003,3.205588e-001
2.163831e+003,3.222322e-001
2.167688e+003,3.218393e-001
2.171545e+003,3.207528e-001
2.175402e+003,3.206422e-001
2.179259e+003,3.210485e-001
2.183116e+003,3.212039e-001
2.186974e+003,3.208924e-001
2.190831e+003,3.187801e-001
2.194688e+003,3.153019e-001
2.198545e+003,3.139947e-001
2.202402e+003,3.147306e-001
2.206259e+003,3.135934e-001
2.210116e+003,3.119178e-001
2.213973e+003,3.119061e-001
2.217830e+003,3.106063e-001
2.221688e+003,3.087352e-001
2.225544e+003,3.094029e-001
2.229402e+003,3.117913e-001
2.233259e+003,3.126439e-001
2.237116e+003,3.107331e-001
2.240973e+003,3.095209e-001
2.244830e+003,3.098082e-001
2.248687e+003,3.103983e-001
2.252544e+003,3.130670e-001
2.256401e+003,3.142236e-001
2.260258e+003,3.135146e-001
2.264115e+003,3.139405e-001
2.267973e+003,3.161890e-001
2.271830e+003,3.193226e-001
2.275687e+003,3.194172e-001
2.279544e+003,3.177423e-001
2.283401e+003,3.178540e-001
2.287258e+003,3.183051e-001
2.291115e+003,3.196889e-001
2.294972e+003,3.196183e-001
2.298829e+003,3.173912e-001
2.302687e+003,3.157345e-001
2.306543e+003,3.166643e-001
2.310401e+003,3.168359e-001
2.314258e+003,3.149352e-001
2.318115e+003,3.114737e-001
2.321972e+003,3.099043e-001
2.325829e+003,3.087539e-001
2.329686e+003,3.052928e-001
2.333543e+003,3.028288e-001
2.337400e+003,3.002869e-001
2.341257e+003,2.991391e-001
2.345115e+003,3.016623e-001
2.348972e+003,2.995619e-001
2.352829e+003,2.925986e-001
2.356686e+003,2.882191e-001
2.360543e+003,2.898832e-001
2.364400e+003,2.901272e-001
2.368257e+003,2.876037e-001
2.372114e+003,2.909506e-001
2.375971e+003,2.951077e-001
2.379828e+003,2.949081e-001
2.383686e+003,2.926878e-001
2.387542e+003,2.924777e-001
2.391400e+003,2.934150e-001
2.395257e+003,2.937883e-001
2.399114e+003,2.940309e-001
2.402971e+003,2.940258e-001
2.406828e+003,2.957150e-001
2.410685e+003,2.964022e-001
2.414542e+003,2.957457e-001
2.418399e+003,2.951082e-001
2.422256e+003,2.932143e-001
2.426114e+003,2.942964e-001
2.429971e+003,2.969187e-001
2.433828e+003,2.968574e-001
2.437685e+003,2.957112e-001
2.441542e+003,2.950485e-001
2.445399e+003,2.954009e-001
2.449256e+003,2.954828e-001
2.453113e+003,2.939361e-001
2.456970e+003,2.911839e-001
2.460827e+003,2.892586e-001
2.464684e+003,2.886125e-001
2.468542e+003,2.879594e-001
2.472399e+003,2.865744e-001
2.476256e+003,2.846378e-001
2.480113e+003,2.826005e-001
2.483970e+003,2.806695e-001
2.487827e+003,2.796039e-001
2.491684e+003,2.789086e-001
2.495541e+003,2.789219e-001
2.499398e+003,2.780345e-001
2.503255e+003,2.773928e-001
2.507113e+003,2.765875e-001
2.510969e+003,2.761975e-001
2.514827e+003,2.765082e-001
2.518684e+003,2.774321e-001
2.522541e+003,2.765445e-001
2.526398e+003,2.783423e-001
2.530255e+003,2.793432e-001
2.534112e+003,2.805651e-001
2.537969e+003,2.811456e-001
2.541826e+003,2.817116e-001
2.545683e+003,2.831886e-001
2.549541e+003,2.842060e-001
2.553398e+003,2.843781e-001
2.557255e+003,2.859659e-001
2.561112e+003,2.877936e-001
2.564969e+003,2.873260e-001
2.568826e+003,2.885218e-001
2.572683e+003,2.898025e-001
2.576540e+003,2.921127e-001
2.580397e+003,2.930161e-001
2.584254e+003,2.925195e-001
2.588112e+003,2.943724e-001
2.591969e+003,2.954525e-001
2.595826e+003,2.951173e-001
2.599683e+003,2.946961e-001
2.603540e+003,2.961323e-001
2.607397e+003,2.971902e-001
2.611254e+003,2.972243e-001
2.615111e+003,2.987570e-001
2.618968e+003,2.996438e-001
2.622825e+003,2.998187e-001
2.626682e+003,3.002714e-001
2.630540e+003,3.021540e-001
2.634397e+003,3.024916e-001
2.638254e+003,3.027146e-001
2.642111e+003,3.026828e-001
2.645968e+003,3.024280e-001
2.649825e+003,3.050446e-001
2.653682e+003,3.083602e-001
2.657539e+003,3.108214e-001
2.661396e+003,3.112222e-001
2.665253e+003,3.121063e-001
2.669111e+003,3.143870e-001
2.672968e+003,3.170821e-001
2.676825e+003,3.200189e-001
2.680682e+003,3.238661e-001
2.684539e+003,3.259264e-001
2.688396e+003,3.277458e-001
2.692253e+003,3.322568e-001
2.696110e+003,3.343649e-001
2.699967e+003,3.337786e-001
2.703824e+003,3.369792e-001
2.707681e+003,3.401040e-001
2.711539e+003,3.414923e-001
2.715396e+003,3.447835e-001
2.719253e+003,3.472826e-001
2.723110e+003,3.489024e-001
2.726967e+003,3.513695e-001
2.730824e+003,3.523783e-001
2.734681e+003,3.529374e-001
2.738538e+003,3.550179e-001
2.742395e+003,3.560640e-001
2.746252e+003,3.567180e-001
2.750110e+003,3.588161e-001
2.753967e+003,3.605369e-001
2.757824e+003,3.625132e-001
2.761681e+003,3.645191e-001
2.765538e+003,3.661734e-001
2.769395e+003,3.682956e-001
2.773252e+003,3.694273e-001
2.777109e+003,3.694805e-001
2.780966e+003,3.718680e-001
2.784823e+003,3.747744e-001
2.788680e+003,3.765881e-001
2.792538e+003,3.795060e-001
2.796395e+003,3.834946e-001
2.800252e+003,3.843801e-001
2.804109e+003,3.844939e-001
2.807966e+003,3.895413e-001
2.811823e+003,3.952074e-001
2.815680e+003,3.982102e-001
2.819537e+003,3.976588e-001
2.823394e+003,3.995723e-001
2.827251e+003,4.018825e-001
2.831109e+003,4.052495e-001
2.834966e+003,4.082113e-001
2.838823e+003,4.143676e-001
2.842680e+003,4.182320e-001
2.846537e+003,4.225989e-001
2.850394e+003,4.300918e-001
2.854251e+003,4.295541e-001
2.858108e+003,4.272910e-001
2.861965e+003,4.296722e-001
2.865823e+003,4.319520e-001
2.869679e+003,4.335339e-001
2.873537e+003,4.348851e-001
2.877394e+003,4.382759e-001
2.881251e+003,4.406114e-001
2.885108e+003,4.424176e-001
2.888965e+003,4.479460e-001
2.892822e+003,4.533016e-001
2.896679e+003,4.559660e-001
2.900536e+003,4.572077e-001
2.904393e+003,4.616262e-001
2.908250e+003,4.652410e-001
2.912108e+003,4.705620e-001
2.915965e+003,4.761331e-001
2.919822e+003,4.774776e-001
2.923679e+003,4.783960e-001
2.927536e+003,4.795599e-001
2.931393e+003,4.788647e-001
2.935250e+003,4.822500e-001
2.939107e+003,4.850534e-001
2.942964e+003,4.860945e-001
2.946822e+003,4.882677e-001
2.950678e+003,4.942874e-001
2.954536e+003,4.993104e-001
2.958393e+003,5.003320e-001
2.962250e+003,5.041503e-001
2.966107e+003,5.052319e-001
2.969964e+003,5.057718e-001
2.973821e+003,5.087500e-001
2.977678e+003,5.106031e-001
2.981535e+003,5.133197e-001
2.985392e+003,5.183381e-001
2.989250e+003,5.191249e-001
2.993107e+003,5.234606e-001
2.996964e+003,5.306724e-001
3.000821e+003,5.312086e-001
3.004678e+003,5.317829e-001
3.008535e+003,5.363039e-001
3.012392e+003,5.406103e-001
3.016249e+003,5.428856e-001
3.020106e+003,5.453433e-001
3.023963e+003,5.494761e-001
3.027821e+003,5.523809e-001
3.031677e+003,5.517371e-001
3.035535e+003,5.556713e-001
3.039392e+003,5.606299e-001
3.043249e+003,5.669952e-001
3.047106e+003,5.703665e-001
3.050963e+003,5.704883e-001
3.054820e+003,5.736938e-001
3.058677e+003,5.816354e-001
3.062534e+003,5.872700e-001
3.066391e+003,5.917689e-001
3.070249e+003,5.912673e-001
3.074106e+003,5.917990e-001
3.077963e+003,5.961585e-001
3.081820e+003,6.023268e-001
3.085677e+003,6.063038e-001
3.089534e+003,6.083318e-001
3.093391e+003,6.127185e-001
3.097248e+003,6.195927e-001
3.101105e+003,6.253417e-001
3.104962e+003,6.234823e-001
3.108820e+003,6.261519e-001
3.112677e+003,6.342809e-001
3.116534e+003,6.394715e-001
3.120391e+003,6.427453e-001
3.124248e+003,6.473559e-001
3.128105e+003,6.515890e-001
3.131962e+003,6.542543e-001
3.135819e+003,6.586288e-001
3.139676e+003,6.623144e-001
3.143533e+003,6.650687e-001
3.147390e+003,6.711152e-001
3.151248e+003,6.739525e-001
3.155105e+003,6.786979e-001
3.158962e+003,6.834786e-001
3.162819e+003,6.886592e-001
3.166676e+003,6.946338e-001
3.170533e+003,6.958142e-001
3.174390e+003,6.995227e-001
3.178247e+003,7.057289e-001
3.182104e+003,7.088168e-001
3.185961e+003,7.123435e-001
3.189819e+003,7.161595e-001
3.193676e+003,7.207198e-001
3.197533e+003,7.233558e-001
3.201390e+003,7.273899e-001
3.205247e+003,7.305219e-001
3.209104e+003,7.293554e-001
3.212961e+003,7.358841e-001
3.216818e+003,7.454208e-001
3.220675e+003,7.500497e-001
3.224532e+003,7.560590e-001
3.228389e+003,7.530303e-001
3.232247e+003,7.505938e-001
3.236104e+003,7.556289e-001
3.239961e+003,7.573371e-001
3.243818e+003,7.553892e-001
3.247675e+003,7.562750e-001
3.251532e+003,7.623479e-001
3.255389e+003,7.694759e-001
3.259246e+003,7.722669e-001
3.263103e+003,7.699649e-001
3.266960e+003,7.698394e-001
3.270818e+003,7.727554e-001
3.274675e+003,7.758679e-001
3.278532e+003,7.775387e-001
3.282389e+003,7.826126e-001
3.286246e+003,7.881472e-001
3.290103e+003,7.923316e-001
3.293960e+003,7.964096e-001
3.297817e+003,7.988325e-001
3.301674e+003,8.056241e-001
3.305531e+003,8.145080e-001
3.309388e+003,8.179604e-001
3.313246e+003,8.222577e-001
3.317103e+003,8.219481e-001
3.320960e+003,8.241680e-001
3.324817e+003,8.281818e-001
3.328674e+003,8.329221e-001
3.332531e+003,8.372478e-001
3.336388e+003,8.413271e-001
3.340245e+003,8.492743e-001
3.344102e+003,8.503671e-001
3.347959e+003,8.494635e-001
3.351817e+003,8.518065e-001
3.355674e+003,8.568325e-001
3.359531e+003,8.615028e-001
3.363388e+003,8.694935e-001
3.367245e+003,8.712674e-001
3.371102e+003,8.744897e-001
3.374959e+003,8.747023e-001
3.378816e+003,8.758022e-001
3.382673e+003,8.803998e-001
3.386530e+003,8.786614e-001
3.390387e+003,8.807139e-001
3.394245e+003,8.877404e-001
3.398102e+003,8.889972e-001
3.401959e+003,9.000769e-001
3.405816e+003,9.056589e-001
3.409673e+003,9.025656e-001
3.413530e+003,8.975393e-001
3.417387e+003,8.985831e-001
3.421244e+003,9.032941e-001
3.425101e+003,8.966988e-001
3.428958e+003,8.969930e-001
3.432815e+003,9.065557e-001
3.436673e+003,9.101471e-001
3.440530e+003,9.117479e-001
3.444387e+003,9.146906e-001
3.448244e+003,9.174394e-001
3.452101e+003,9.194520e-001
3.455958e+003,9.120950e-001
3.459815e+003,9.218453e-001
3.463672e+003,9.312245e-001
3.467529e+003,9.297953e-001
3.471386e+003,9.280373e-001
3.475244e+003,9.256817e-001
3.479101e+003,9.236427e-001
3.482958e+003,9.297351e-001
3.486815e+003,9.271131e-001
3.490672e+003,9.259542e-001
3.494529e+003,9.268158e-001
3.498386e+003,9.225451e-001
3.502243e+003,9.246129e-001
3.506100e+003,9.292612e-001
3.509958e+003,9.239628e-001
3.513814e+003,9.168183e-001
3.517672e+003,9.268686e-001
3.521529e+003,9.357310e-001
3.525386e+003,9.265513e-001
3.529243e+003,9.225411e-001
3.533100e+003,9.194469e-001
3.536957e+003,9.243226e-001
3.540814e+003,9.242501e-001
3.544671e+003,9.116777e-001
3.548528e+003,9.127646e-001
3.552385e+003,9.145576e-001
3.556243e+003,9.034457e-001
3.560100e+003,9.008200e-001
3.563957e+003,8.935669e-001
3.567814e+003,8.823551e-001
3.571671e+003,8.763265e-001
3.575528e+003,8.689917e-001
3.579385e+003,8.649031e-001
3.583242e+003,8.533324e-001
3.587099e+003,8.335790e-001
3.590957e+003,8.285280e-001
3.594813e+003,8.161193e-001
3.598671e+003,7.914931e-001
3.602528e+003,7.715198e-001
3.606385e+003,7.535434e-001
3.610242e+003,7.283009e-001
3.614099e+003,6.978159e-001
3.617956e+003,6.671576e-001
3.621813e+003,6.395106e-001
3.625670e+003,6.139340e-001
3.629527e+003,5.835223e-001
3.633385e+003,5.501105e-001
3.637242e+003,5.167754e-001
3.641099e+003,4.881251e-001
3.644956e+003,4.611752e-001
3.648813e+003,4.340170e-001
3.652670e+003,4.059413e-001
3.656527e+003,3.793652e-001
3.660384e+003,3.567362e-001
3.664241e+003,3.363420e-001
3.668098e+003,3.171390e-001
3.671956e+003,3.019411e-001
3.675813e+003,2.883499e-001
3.679670e+003,2.764101e-001
3.683527e+003,2.640283e-001
3.687384e+003,2.554280e-001
3.691241e+003,2.492100e-001
3.695098e+003,2.409401e-001
3.698955e+003,2.349543e-001
3.702812e+003,2.289492e-001
3.706669e+003,2.226247e-001
3.710526e+003,2.182582e-001
3.714384e+003,2.146242e-001
3.718241e+003,2.127082e-001
3.722098e+003,2.113759e-001
3.725955e+003,2.093530e-001
3.729812e+003,2.067194e-001
3.733669e+003,2.030362e-001
3.737526e+003,1.994572e-001
3.741383e+003,2.008950e-001
3.745240e+003,2.019637e-001
3.749097e+003,2.006879e-001
3.752955e+003,2.001788e-001
3.756812e+003,1.973508e-001
3.760669e+003,1.933530e-001
3.764526e+003,1.920010e-001
3.768383e+003,1.923635e-001
3.772240e+003,1.935873e-001
3.776097e+003,1.944559e-001
3.779954e+003,1.921490e-001
3.783811e+003,1.930912e-001
3.787668e+003,1.935892e-001
3.791525e+003,1.933244e-001
3.795383e+003,1.933587e-001
3.799240e+003,1.942427e-001
3.803097e+003,1.948078e-001
3.806954e+003,1.963717e-001
3.810811e+003,1.963134e-001
3.814668e+003,1.959626e-001
3.818525e+003,1.957380e-001
3.822382e+003,1.977692e-001
3.826239e+003,1.978298e-001
3.830096e+003,1.962890e-001
3.833954e+003,1.954921e-001
3.837811e+003,1.966882e-001
3.841668e+003,1.978295e-001
3.845525e+003,1.976589e-001
3.849382e+003,1.977626e-001
3.853239e+003,1.954161e-001
3.857096e+003,1.940607e-001
3.860953e+003,1.952980e-001
3.864810e+003,1.939213e-001
3.868667e+003,1.916990e-001
3.872524e+003,1.918251e-001
3.876382e+003,1.929098e-001
3.880239e+003,1.928492e-001
3.884096e+003,1.899923e-001
3.887953e+003,1.881789e-001
3.891810e+003,1.887752e-001
3.895667e+003,1.894587e-001
3.899524e+003,1.898079e-001
3.903381e+003,1.906456e-001
3.907238e+003,1.899918e-001
3.911095e+003,1.867356e-001
3.914953e+003,1.849825e-001
3.918810e+003,1.865735e-001
3.922667e+003,1.885027e-001
3.926524e+003,1.898021e-001
3.930381e+003,1.901869e-001
3.934238e+003,1.915193e-001
3.938095e+003,1.911770e-001
3.941952e+003,1.912753e-001
3.945809e+003,1.923688e-001
3.949667e+003,1.935373e-001
3.953523e+003,1.923461e-001
3.957381e+003,1.931934e-001
3.961238e+003,1.955484e-001
3.965095e+003,1.958382e-001
3.968952e+003,1.957867e-001
3.972809e+003,1.964029e-001
3.976666e+003,1.961706e-001
3.980523e+003,1.947758e-001
3.984380e+003,1.939596e-001
3.988237e+003,1.927340e-001
3.992094e+003,1.921110e-001
3.995952e+003,1.911514e-001
3.999809e+003,1.913978e-001
4.003666e+003,1.942466e-001
4.007523e+003,1.954967e-001
4.011380e+003,1.938772e-001
4.015237e+003,1.898208e-001
4.019094e+003,1.904303e-001
4.022951e+003,1.910624e-001
4.026808e+003,1.894792e-001
4.030666e+003,1.885532e-001
4.034522e+003,1.868579e-001
4.038380e+003,1.842057e-001
4.042237e+003,1.829143e-001
4.046094e+003,1.828208e-001
4.049951e+003,1.824675e-001
4.053808e+003,1.827760e-001
4.057665e+003,1.825426e-001
4.061522e+003,1.828012e-001
4.065379e+003,1.820423e-001
4.069236e+003,1.802184e-001
4.073094e+003,1.826551e-001
4.076951e+003,1.884082e-001
4.080808e+003,1.900455e-001
4.084665e+003,1.898453e-001
4.088522e+003,1.892905e-001
4.092379e+003,1.885803e-001
4.096236e+003,1.906898e-001
4.100093e+003,1.938308e-001
4.103950e+003,1.922110e-001
4.107808e+003,1.918733e-001
4.111665e+003,1.927784e-001
4.115521e+003,1.944180e-001
4.119379e+003,1.959178e-001
4.123236e+003,1.941662e-001
4.127093e+003,1.898326e-001
4.130950e+003,1.888001e-001
4.134807e+003,1.917207e-001
4.138664e+003,1.919582e-001
4.142521e+003,1.920112e-001
4.146378e+003,1.920132e-001
4.150235e+003,1.896746e-001
4.154093e+003,1.871379e-001
4.157950e+003,1.864325e-001
4.161807e+003,1.870023e-001
4.165664e+003,1.869873e-001
4.169521e+003,1.854311e-001
4.173378e+003,1.832726e-001
4.177235e+003,1.828561e-001
4.181092e+003,1.828019e-001
4.184949e+003,1.819581e-001
4.188807e+003,1.828956e-001
4.192664e+003,1.835849e-001
4.196521e+003,1.789923e-001
4.200378e+003,1.783896e-001
4.204235e+003,1.816442e-001
4.208092e+003,1.834611e-001
4.211949e+003,1.847372e-001
4.215806e+003,1.863738e-001
4.219663e+003,1.857033e-001
4.223521e+003,1.860064e-001
4.227377e+003,1.881717e-001
4.231234e+003,1.881134e-001
4.235092e+003,1.886258e-001
4.238949e+003,1.917833e-001
4.242806e+003,1.943451e-001
4.246663e+003,1.950824e-001
4.250520e+003,1.944933e-001
4.254377e+003,1.923453e-001
4.258234e+003,1.915119e-001
4.262091e+003,1.930092e-001
4.265948e+003,1.952603e-001
4.269806e+003,1.956713e-001
4.273663e+003,1.968584e-001
4.277520e+003,1.971247e-001
4.281377e+003,1.959221e-001
4.285234e+003,1.947939e-001
4.289091e+003,1.958290e-001
4.292948e+003,1.959175e-001
4.296805e+003,1.951161e-001
4.300662e+003,1.942545e-001
4.304520e+003,1.945385e-001
4.308376e+003,1.919604e-001
4.312233e+003,1.936171e-001
4.316091e+003,1.945969e-001
4.319948e+003,1.921651e-001
4.323805e+003,1.898748e-001
4.327662e+003,1.899885e-001
4.331519e+003,1.921843e-001
4.335376e+003,1.914900e-001
4.339233e+003,1.908872e-001
4.343090e+003,1.914766e-001
4.346947e+003,1.927247e-001
4.350805e+003,1.934842e-001
4.354662e+003,1.945739e-001
4.358519e+003,1.957820e-001
4.362376e+003,1.967533e-001
4.366233e+003,1.973961e-001
4.370090e+003,1.968321e-001
4.373947e+003,1.997650e-001
4.377804e+003,2.042315e-001
4.381661e+003,2.047915e-001
4.385519e+003,2.050200e-001
4.389375e+003,2.051649e-001
4.393232e+003,2.073736e-001
4.397090e+003,2.063902e-001
4.400947e+003,2.058419e-001
4.404804e+003,2.082283e-001
4.408661e+003,2.108643e-001
4.412518e+003,2.121432e-001
4.416375e+003,2.110630e-001
4.420232e+003,2.112905e-001
4.424089e+003,2.099378e-001
4.427946e+003,2.070247e-001
4.431804e+003,2.061921e-001
4.435661e+003,2.057240e-001
4.439518e+003,2.034977e-001
4.443375e+003,2.030851e-001
4.447232e+003,2.049898e-001
4.451089e+003,2.033393e-001
4.454946e+003,2.012888e-001
4.458803e+003,2.030727e-001
4.462660e+003,2.055074e-001
4.466518e+003,2.046073e-001
4.470375e+003,2.044050e-001
4.474231e+003,2.019416e-001
4.478089e+003,2.006401e-001
4.481946e+003,2.024914e-001
4.485803e+003,2.034727e-001
4.489660e+003,2.071928e-001
4.493517e+003,2.097696e-001
4.497375e+003,2.079417e-001
4.501231e+003,2.061758e-001
4.505088e+003,2.040737e-001
4.508946e+003,2.033284e-001
4.512803e+003,2.034939e-001
4.516660e+003,2.029168e-001
4.520517e+003,2.065698e-001
4.524374e+003,2.091905e-001
4.528231e+003,2.091976e-001
4.532088e+003,2.098933e-001
4.535945e+003,2.104493e-001
4.539802e+003,2.118992e-001
4.543660e+003,2.138804e-001
4.547517e+003,2.142428e-001
4.551374e+003,2.122870e-001
4.555231e+003,2.123137e-001
4.559088e+003,2.144907e-001
4.562945e+003,2.172206e-001
4.566802e+003,2.125695e-001
4.570659e+003,2.066504e-001
4.574516e+003,2.047470e-001
4.578374e+003,2.084973e-001
4.582230e+003,2.105616e-001
4.586087e+003,2.095784e-001
4.589945e+003,2.086874e-001
4.593802e+003,2.064696e-001
4.597659e+003,2.060304e-001
4.601516e+003,2.075429e-001
4.605373e+003,2.043917e-001
4.609230e+003,2.003530e-001
4.613087e+003,2.025074e-001
4.616944e+003,2.061100e-001
4.620801e+003,2.016571e-001
4.624659e+003,1.964054e-001
4.628516e+003,2.005975e-001
4.632373e+003,2.040388e-001
4.636230e+003,2.051788e-001
4.640087e+003,2.035896e-001
4.643944e+003,2.012616e-001
4.647801e+003,2.019763e-001
4.651658e+003,2.042455e-001
4.655515e+003,2.057468e-001
4.659373e+003,2.066248e-001
4.663229e+003,2.078758e-001
4.667086e+003,2.091477e-001
4.670944e+003,2.091473e-001
4.674801e+003,2.083427e-001
4.678658e+003,2.084106e-001
4.682515e+003,2.078264e-001
4.686372e+003,2.048198e-001
4.690229e+003,2.046361e-001
4.694086e+003,2.095944e-001
4.697943e+003,2.129053e-001
4.701800e+003,2.116600e-001
4.705658e+003,2.105448e-001
4.709515e+003,2.099344e-001
4.713372e+003,2.070284e-001
4.717229e+003,2.047293e-001
4.721086e+003,2.055349e-001
4.724943e+003,2.072365e-001
4.728800e+003,2.098803e-001
4.732657e+003,2.083138e-001
4.736514e+003,2.073095e-001
4.740372e+003,2.064655e-001
4.744229e+003,2.077287e-001
4.748085e+003,2.054110e-001
4.751943e+003,2.029746e-001
4.755800e+003,2.018080e-001
4.759657e+003,2.026275e-001
4.763514e+003,2.006108e-001
4.767371e+003,1.986105e-001
4.771228e+003,2.003887e-001
4.775085e+003,2.020928e-001
4.778942e+003,1.992032e-001
4.782799e+003,1.969024e-001
4.786657e+003,2.022541e-001
4.790514e+003,2.046072e-001
4.794371e+003,2.034090e-001
4.798228e+003,2.026489e-001
4.802085e+003,2.005363e-001
4.805942e+003,1.990351e-001
4.809799e+003,1.989986e-001
4.813656e+003,2.040516e-001
4.817513e+003,2.101337e-001
4.821371e+003,2.128841e-001
4.825228e+003,2.133946e-001
4.829084e+003,2.107834e-001
4.832942e+003,2.105838e-001
4.836799e+003,2.083442e-001
4.840656e+003,2.090981e-001
4.844513e+003,2.124199e-001
4.848370e+003,2.140436e-001
4.852227e+003,2.096569e-001
4.856084e+003,2.072656e-001
4.859941e+003,2.078911e-001
4.863798e+003,2.044811e-001
4.867656e+003,2.042567e-001
4.871513e+003,2.031893e-001
4.875370e+003,2.037817e-001
4.879227e+003,2.055924e-001
4.883084e+003,2.046103e-001
4.886941e+003,2.043085e-001
4.890798e+003,2.055368e-001
4.894655e+003,2.035187e-001
4.898512e+003,2.007736e-001
4.902370e+003,2.009458e-001
4.906227e+003,2.048947e-001
4.910083e+003,1.993001e-001
4.913941e+003,1.976913e-001
4.917798e+003,2.057551e-001
4.921655e+003,2.067851e-001
4.925512e+003,2.036418e-001
4.929369e+003,2.023815e-001
4.933226e+003,2.044300e-001
4.937083e+003,2.046678e-001
4.940940e+003,2.048092e-001
4.944797e+003,2.030497e-001
4.948655e+003,2.015069e-001
4.952512e+003,2.040163e-001
4.956369e+003,2.037774e-001
4.960226e+003,1.989565e-001
4.964083e+003,1.984274e-001
4.967940e+003,1.983487e-001
4.971797e+003,2.014344e-001
4.975654e+003,2.026731e-001
4.979511e+003,2.020616e-001
4.983369e+003,2.077458e-001
4.987226e+003,2.131664e-001
4.991083e+003,2.161859e-001
4.994940e+003,2.141695e-001
4.998797e+003,2.115996e-001
5.002654e+003,2.137415e-001
5.006511e+003,2.156610e-001
5.010368e+003,2.114617e-001
5.014225e+003,2.110181e-001
5.018083e+003,2.134031e-001
5.021939e+003,2.153303e-001
5.025796e+003,2.096148e-001
5.029654e+003,2.035250e-001
5.033511e+003,2.033207e-001
5.037368e+003,2.001875e-001
5.041225e+003,2.008074e-001
5.045082e+003,2.075184e-001
5.048939e+003,2.081825e-001
5.052796e+003,2.081899e-001
5.056653e+003,2.036796e-001
5.060510e+003,1.998855e-001
5.064368e+003,2.047423e-001
5.068225e+003,2.098019e-001
5.072082e+003,2.044430e-001
5.075939e+003,2.035333e-001
5.079796e+003,2.049139e-001
5.083653e+003,2.065644e-001
5.087510e+003,2.097557e-001
5.091367e+003,2.093905e-001
5.095224e+003,2.068103e-001
5.099082e+003,2.064406e-001
5.102938e+003,2.057649e-001
5.106795e+003,2.034891e-001
5.110653e+003,2.055096e-001
5.114510e+003,2.100908e-001
5.118367e+003,2.117421e-001
5.122224e+003,2.118773e-001
5.126081e+003,2.181082e-001
5.129938e+003,2.196795e-001
5.133795e+003,2.151675e-001
5.137652e+003,2.185069e-001
5.141509e+003,2.174604e-001
5.145367e+003,2.159171e-001
5.149224e+003,2.214885e-001
5.153081e+003,2.222000e-001
5.156938e+003,2.228997e-001
5.160795e+003,2.240229e-001
5.164652e+003,2.216721e-001
5.168509e+003,2.180514e-001
5.172366e+003,2.154074e-001
5.176223e+003,2.146408e-001
5.180081e+003,2.160094e-001
5.183938e+003,2.174434e-001
5.187794e+003,2.135890e-001
5.191652e+003,2.135897e-001
5.195509e+003,2.139175e-001
5.199366e+003,2.152612e-001
5.203223e+003,2.213889e-001
5.207080e+003,2.218202e-001
5.210937e+003,2.113718e-001
5.214794e+003,2.078521e-001
5.218651e+003,2.111757e-001
5.222508e+003,2.130774e-001
5.226366e+003,2.165993e-001
5.230223e+003,2.182924e-001
5.234080e+003,2.185774e-001
5.237937e+003,2.187278e-001
5.241794e+003,2.160623e-001
5.245651e+003,2.131883e-001
5.249508e+003,2.138778e-001
5.253365e+003,2.125535e-001
5.257222e+003,2.131113e-001
5.261080e+003,2.145908e-001
5.264937e+003,2.140543e-001
5.268793e+003,2.128342e-001
5.272651e+003,2.145784e-001
5.276508e+003,2.163897e-001
5.280365e+003,2.168127e-001
5.284222e+003,2.175599e-001
5.288079e+003,2.156934e-001
5.291936e+003,2.133386e-001
5.295793e+003,2.167846e-001
5.299650e+003,2.164752e-001
5.303507e+003,2.105662e-001
5.307365e+003,2.056520e-001
5.311222e+003,2.061124e-001
5.315079e+003,2.111960e-001
5.318936e+003,2.095515e-001
5.322793e+003,2.063635e-001
5.326650e+003,2.069657e-001
5.330507e+003,2.091533e-001
5.334364e+003,2.092459e-001
5.338221e+003,2.078842e-001
5.342079e+003,2.066959e-001
5.345936e+003,2.001687e-001
5.349792e+003,2.048056e-001
5.353650e+003,2.127496e-001
5.357507e+003,2.046640e-001
5.361364e+003,2.023242e-001
5.365221e+003,2.062924e-001
5.369078e+003,2.072273e-001
5.372935e+003,2.063242e-001
5.376792e+003,2.025382e-001
5.380649e+003,2.075137e-001
5.384506e+003,2.113693e-001
5.388364e+003,2.093555e-001
5.392221e+003,2.060179e-001
5.396078e+003,2.025759e-001
5.399935e+003,2.029886e-001
5.403792e+003,2.087464e-001
5.407649e+003,2.113933e-001
5.411506e+003,2.045180e-001
5.415363e+003,2.001078e-001
5.419220e+003,1.992906e-001
5.423078e+003,1.984532e-001
5.426935e+003,2.015356e-001
5.430792e+003,2.068695e-001
5.434649e+003,2.096198e-001
5.438506e+003,2.128324e-001
5.442363e+003,2.136065e-001
5.446220e+003,2.102766e-001
5.450077e+003,2.057944e-001
5.453934e+003,2.018067e-001
5.457792e+003,2.010308e-001
5.461648e+003,2.022839e-001
5.465505e+003,2.055156e-001
5.469363e+003,2.045312e-001
5.473220e+003,2.005395e-001
5.477077e+003,1.994127e-001
5.480934e+003,1.991503e-001
5.484791e+003,2.004759e-001
5.488648e+003,2.025458e-001
5.492505e+003,1.994488e-001
5.496362e+003,1.972314e-001
5.500219e+003,2.018725e-001
5.504077e+003,2.098664e-001
5.507934e+003,2.089397e-001
5.511791e+003,1.975477e-001
5.515648e+003,1.903412e-001
5.519505e+003,1.908275e-001
5.523362e+003,1.957696e-001
5.527219e+003,1.999145e-001
5.531076e+003,1.996922e-001
5.534933e+003,1.959950e-001
5.538791e+003,1.958805e-001
5.542647e+003,2.015450e-001
5.546504e+003,2.043064e-001
5.550362e+003,2.007122e-001
5.554219e+003,1.935790e-001
5.558076e+003,1.914931e-001
5.561933e+003,1.929573e-001
5.565790e+003,1.976088e-001
5.569647e+003,2.016309e-001
5.573504e+003,2.026157e-001
5.577361e+003,2.018497e-001
5.581218e+003,2.023795e-001
5.585076e+003,1.999203e-001
5.588933e+003,1.958484e-001
5.592790e+003,1.931424e-001
5.596647e+003,1.946052e-001
5.600504e+003,1.979671e-001
5.604361e+003,1.957489e-001
5.608218e+003,1.959657e-001
5.612075e+003,1.975269e-001
5.615932e+003,1.981922e-001
5.619790e+003,1.980016e-001
5.623646e+003,1.952545e-001
5.627503e+003,1.930286e-001
5.631361e+003,1.949306e-001
5.635218e+003,1.951030e-001
5.639075e+003,1.954631e-001
5.642932e+003,1.934271e-001
5.646789e+003,1.889973e-001
5.650646e+003,1.912411e-001
5.654503e+003,1.972545e-001
5.658360e+003,1.933734e-001
5.662217e+003,1.885313e-001
5.666075e+003,1.929049e-001
5.669932e+003,1.959452e-001
5.673789e+003,1.879316e-001
5.677646e+003,1.866488e-001
5.681503e+003,1.895191e-001
5.685360e+003,1.876020e-001
5.689217e+003,1.909479e-001
5.693074e+003,1.906459e-001
5.696931e+003,1.901555e-001
5.700789e+003,1.951667e-001
5.704646e+003,1.922816e-001
5.708502e+003,1.895092e-001
5.712360e+003,1.947123e-001
5.716217e+003,1.967732e-001
5.720074e+003,1.944865e-001
5.723931e+003,1.926671e-001
5.727788e+003,1.942489e-001
5.731645e+003,1.925576e-001
5.735502e+003,1.899954e-001
5.739359e+003,1.920139e-001
5.743216e+003,1.994181e-001
5.747074e+003,2.022885e-001
5.750931e+003,1.974875e-001
5.754788e+003,1.929213e-001
5.758645e+003,1.892296e-001
5.762502e+003,1.883214e-001
5.766359e+003,1.950858e-001
5.770216e+003,1.956532e-001
5.774073e+003,1.903018e-001
5.777930e+003,1.851133e-001
5.781788e+003,1.827393e-001
5.785645e+003,1.881749e-001
5.789501e+003,1.886189e-001
5.793359e+003,1.849761e-001
5.797216e+003,1.850334e-001
5.801073e+003,1.888601e-001
5.804930e+003,1.837593e-001
5.808787e+003,1.801678e-001
5.812644e+003,1.835990e-001
5.816501e+003,1.847322e-001
5.820358e+003,1.844718e-001
5.824215e+003,1.886290e-001
5.828073e+003,1.908793e-001
5.831930e+003,1.851534e-001
5.835787e+003,1.844687e-001
5.839644e+003,1.900546e-001
5.843501e+003,1.844130e-001
5.847358e+003,1.810371e-001
5.851215e+003,1.821348e-001
5.855072e+003,1.791698e-001
5.858929e+003,1.816418e-001
5.862787e+003,1.872701e-001
5.866644e+003,1.952474e-001
5.870500e+003,1.982625e-001
5.874358e+003,1.962253e-001
5.878215e+003,1.926135e-001
5.882072e+003,1.928854e-001
5.885929e+003,1.943574e-001
5.889786e+003,1.958557e-001
5.893643e+003,1.923208e-001
5.897500e+003,1.903714e-001
5.901357e+003,1.924229e-001
5.905214e+003,1.929556e-001
5.909072e+003,1.917112e-001
5.912929e+003,1.904040e-001
5.916786e+003,1.872241e-001
5.920643e+003,1.874418e-001
5.924500e+003,1.906197e-001
5.928357e+003,1.886377e-001
5.932214e+003,1.840656e-001
5.936071e+003,1.901174e-001
5.939928e+003,1.931751e-001
5.943786e+003,1.846870e-001
5.947643e+003,1.787863e-001
5.951500e+003,1.781657e-001
5.955357e+003,1.776892e-001
5.959214e+003,1.849737e-001
5.963071e+003,1.790730e-001
5.966928e+003,1.750724e-001
5.970785e+003,1.842647e-001
5.974642e+003,1.860257e-001
5.978500e+003,1.815481e-001
5.982356e+003,1.753126e-001
5.986213e+003,1.757233e-001
5.990071e+003,1.732834e-001
5.993928e+003,1.709276e-001
5.997785e+003,1.759033e-001
6.001642e+003,1.818833e-001
6.005499e+003,1.853352e-001
6.009356e+003,1.853520e-001
6.013213e+003,1.874966e-001
6.017070e+003,1.898746e-001
6.020927e+003,1.850471e-001
6.024785e+003,1.777571e-001
6.028642e+003,1.754890e-001
6.032499e+003,1.811059e-001
6.036356e+003,1.855024e-001
6.040213e+003,1.888318e-001
6.044070e+003,1.850293e-001
6.047927e+003,1.821424e-001
6.051784e+003,1.811385e-001
6.055641e+003,1.752484e-001
6.059499e+003,1.806744e-001
6.063355e+003,1.825971e-001
6.067212e+003,1.764526e-001
6.071070e+003,1.793610e-001
6.074927e+003,1.844716e-001
6.078784e+003,1.819946e-001
6.082641e+003,1.747963e-001
6.086498e+003,1.731944e-001
6.090355e+003,1.771072e-001
6.094212e+003,1.774317e-001
6.098069e+003,1.739372e-001
6.101926e+003,1.751816e-001
6.105784e+003,1.804424e-001
6.109641e+003,1.842603e-001
6.113498e+003,1.876603e-001
6.117355e+003,1.852601e-001
6.121212e+003,1.782764e-001
6.125069e+003,1.841663e-001
6.128926e+003,1.896250e-001
6.132783e+003,1.848660e-001
6.136640e+003,1.830287e-001
6.140498e+003,1.885240e-001
6.144354e+003,1.918749e-001
6.148211e+003,1.787502e-001
6.152069e+003,1.748877e-001
6.155926e+003,1.789578e-001
6.159783e+003,1.776758e-001
6.163640e+003,1.792630e-001
6.167497e+003,1.862837e-001
6.171354e+003,1.873748e-001
6.175211e+003,1.822430e-001
6.179068e+003,1.819266e-001
6.182925e+003,1.842695e-001
6.186783e+003,1.906386e-001
6.190640e+003,1.875295e-001
6.194497e+003,1.854517e-001
6.198354e+003,1.817628e-001
6.202211e+003,1.779723e-001
6.206068e+003,1.798096e-001
6.209925e+003,1.817916e-001
6.213782e+003,1.793428e-001
6.217639e+003,1.770403e-001
6.221497e+003,1.790005e-001
6.225354e+003,1.725969e-001
6.229210e+003,1.688135e-001
6.233068e+003,1.710239e-001
6.236925e+003,1.725983e-001
6.240782e+003,1.718863e-001
6.244639e+003,1.669152e-001
6.248496e+003,1.655088e-001
6.252353e+003,1.734350e-001
6.256210e+003,1.776459e-001
6.260067e+003,1.730176e-001
6.263924e+003,1.677612e-001
6.267782e+003,1.783554e-001
6.271639e+003,1.839824e-001
6.275496e+003,1.755531e-001
6.279353e+003,1.751923e-001
6.283210e+003,1.695034e-001
6.287067e+003,1.660007e-001
6.290924e+003,1.706893e-001
6.294781e+003,1.751153e-001
6.298638e+003,1.812807e-001
6.302496e+003,1.770831e-001
6.306353e+003,1.683401e-001
6.310209e+003,1.658045e-001
6.314067e+003,1.652138e-001
6.317924e+003,1.678501e-001
6.321781e+003,1.731462e-001
6.325638e+003,1.702354e-001
6.329495e+003,1.660909e-001
6.333352e+003,1.681122e-001
6.337209e+003,1.791196e-001
6.341066e+003,1.866771e-001
6.344923e+003,1.779405e-001
6.348780e+003,1.695289e-001
6.352638e+003,1.668510e-001
6.356495e+003,1.672752e-001
6.360352e+003,1.705850e-001
6.364209e+003,1.703108e-001
6.368066e+003,1.721450e-001
6.371923e+003,1.804555e-001
6.375780e+003,1.783731e-001
6.379637e+003,1.705765e-001
6.383494e+003,1.673036e-001
6.387352e+003,1.740770e-001
6.391208e+003,1.721322e-001
6.395065e+003,1.720475e-001
6.398923e+003,1.733043e-001
6.402780e+003,1.667067e-001
6.406637e+003,1.624589e-001
6.410494e+003,1.718981e-001
6.414351e+003,1.823127e-001
6.418208e+003,1.854102e-001
6.422065e+003,1.782240e-001
6.425922e+003,1.661757e-001
6.429779e+003,1.625888e-001
6.433637e+003,1.682245e-001
6.437494e+003,1.712261e-001
6.441351e+003,1.745165e-001
6.445208e+003,1.757690e-001
6.449065e+003,1.694784e-001
6.452922e+003,1.645083e-001
6.456779e+003,1.726664e-001
6.460636e+003,1.744093e-001
6.464493e+003,1.668495e-001
6.468351e+003,1.652266e-001
6.472208e+003,1.793273e-001
6.476064e+003,1.783230e-001
6.479922e+003,1.742273e-001
6.483779e+003,1.776824e-001
6.487636e+003,1.733467e-001
6.491493e+003,1.699721e-001
6.495350e+003,1.695530e-001
6.499207e+003,1.766996e-001
6.503064e+003,1.802296e-001
6.506921e+003,1.806708e-001
6.510778e+003,1.817576e-001
6.514636e+003,1.792066e-001
6.518493e+003,1.787357e-001
6.522350e+003,1.763587e-001
6.526207e+003,1.761364e-001
6.530064e+003,1.772016e-001
6.533921e+003,1.780462e-001
6.537778e+003,1.755502e-001
6.541635e+003,1.665561e-001
6.545492e+003,1.639572e-001
6.549350e+003,1.733944e-001
6.553207e+003,1.779712e-001
6.557063e+003,1.698671e-001
6.560921e+003,1.648557e-001
6.564778e+003,1.642836e-001
6.568635e+003,1.685986e-001
6.572492e+003,1.746624e-001
6.576349e+003,1.672368e-001
6.580206e+003,1.656691e-001
6.584063e+003,1.710613e-001
6.587920e+003,1.683851e-001
6.591777e+003,1.667117e-001
6.595635e+003,1.736939e-001
6.599492e+003,1.712684e-001
6.603349e+003,1.642800e-001
6.607206e+003,1.845590e-001
6.611063e+003,1.854717e-001
6.614920e+003,1.720407e-001
6.618777e+003,1.641447e-001
6.622634e+003,1.598574e-001
6.626491e+003,1.679437e-001
6.630349e+003,1.826447e-001
6.634206e+003,1.856917e-001
6.638063e+003,1.843998e-001
6.641920e+003,1.861248e-001
6.645777e+003,1.832159e-001
6.649634e+003,1.731509e-001
6.653491e+003,1.731156e-001
6.657348e+003,1.706139e-001
6.661205e+003,1.733698e-001
6.665063e+003,1.786327e-001
6.668919e+003,1.795238e-001
6.672776e+003,1.805836e-001
6.676634e+003,1.734588e-001
6.680491e+003,1.828874e-001
6.684348e+003,1.902607e-001
6.688205e+003,1.775660e-001
6.692062e+003,1.817560e-001
6.695919e+003,1.816337e-001
6.699776e+003,1.731804e-001
6.703633e+003,1.731391e-001
6.707490e+003,1.797618e-001
6.711348e+003,1.877489e-001
6.715205e+003,1.893884e-001
6.719062e+003,1.856304e-001
6.722919e+003,1.799660e-001
6.726776e+003,1.769869e-001
6.730633e+003,1.767023e-001
6.734490e+003,1.672936e-001
6.738347e+003,1.646531e-001
6.742204e+003,1.766683e-001
6.746062e+003,1.746174e-001
6.749918e+003,1.726502e-001
6.753775e+003,1.694228e-001
6.757633e+003,1.628449e-001
6.761490e+003,1.657601e-001
6.765347e+003,1.610055e-001
6.769204e+003,1.722835e-001
6.773061e+003,1.792661e-001
6.776918e+003,1.753742e-001
6.780775e+003,1.766028e-001
6.784632e+003,1.656142e-001
6.788489e+003,1.733491e-001
6.792347e+003,1.889981e-001
6.796204e+003,1.842491e-001
6.800061e+003,1.782371e-001
6.803918e+003,1.792682e-001
6.807775e+003,1.804853e-001
6.811632e+003,1.871644e-001
6.815489e+003,1.866950e-001
6.819346e+003,1.905624e-001
6.823203e+003,1.846656e-001
6.827061e+003,1.931995e-001
6.830917e+003,1.920800e-001
6.834774e+003,1.856634e-001
6.838632e+003,1.837051e-001
6.842489e+003,1.784928e-001
6.846346e+003,1.746164e-001
6.850203e+003,1.801138e-001
6.854060e+003,1.766079e-001
6.857917e+003,1.763815e-001
6.861774e+003,1.741858e-001
6.865631e+003,1.872104e-001
6.869488e+003,2.096374e-001
6.873346e+003,2.023152e-001
6.877203e+003,1.880867e-001
6.881060e+003,1.839687e-001
6.884917e+003,1.910908e-001
6.888774e+003,1.945998e-001
6.892631e+003,1.864865e-001
6.896488e+003,1.886263e-001
6.900345e+003,1.873560e-001
6.904202e+003,1.762251e-001
6.908060e+003,1.701910e-001
6.911917e+003,1.702582e-001
6.915773e+003,1.857481e-001
6.919631e+003,2.087344e-001
6.923488e+003,2.088408e-001
6.927345e+003,1.930531e-001
6.931202e+003,1.725359e-001
6.935059e+003,1.695556e-001
6.938916e+003,1.967104e-001
6.942773e+003,2.122469e-001
6.946630e+003,2.022928e-001
6.950487e+003,1.900126e-001
6.954345e+003,1.796158e-001
6.958202e+003,1.838839e-001
6.962059e+003,1.885655e-001
6.965916e+003,1.902356e-001
6.969773e+003,1.876581e-001
6.973630e+003,1.966058e-001
6.977487e+003,2.046569e-001
6.981344e+003,1.997479e-001
6.985201e+003,2.045209e-001
6.989059e+003,2.120127e-001
6.992916e+003,1.915458e-001
6.996772e+003,1.807324e-001
7.000630e+003,1.831152e-001
7.004487e+003,1.844714e-001
7.008344e+003,1.883443e-001
7.012201e+003,1.794719e-001
7.016058e+003,1.854159e-001
7.019915e+003,1.996759e-001
7.023772e+003,1.946638e-001
7.027629e+003,1.880714e-001
7.031486e+003,1.974472e-001
7.035344e+003,1.928142e-001
7.039201e+003,1.749029e-001
7.043058e+003,1.770849e-001
7.046915e+003,1.863808e-001
7.050772e+003,1.802411e-001
7.054629e+003,1.851343e-001
7.058486e+003,1.984240e-001
7.062343e+003,1.931999e-001
7.066200e+003,1.886489e-001
7.070058e+003,1.970074e-001
7.073915e+003,2.078562e-001
7.077771e+003,2.135448e-001
7.081629e+003,2.098117e-001
7.085486e+003,2.066282e-001
7.089343e+003,2.017167e-001
7.093200e+003,1.909074e-001
7.097057e+003,1.906342e-001
7.100914e+003,2.008084e-001
7.104771e+003,2.159025e-001
7.108628e+003,2.265043e-001
7.112485e+003,2.156688e-001
7.116343e+003,1.916861e-001
7.120200e+003,1.753310e-001
7.124057e+003,1.740328e-001
7.127914e+003,1.771611e-001
7.131771e+003,2.008601e-001
7.135628e+003,2.069896e-001
7.139485e+003,2.036457e-001
7.143342e+003,2.013531e-001
7.147199e+003,2.035139e-001
7.151057e+003,1.830747e-001
7.154914e+003,1.753761e-001
7.158771e+003,1.737630e-001
7.162628e+003,1.884151e-001
7.166485e+003,2.078249e-001
7.170342e+003,1.922918e-001
7.174199e+003,1.686386e-001
7.178056e+003,1.728552e-001
7.181913e+003,1.710040e-001
7.185771e+003,1.830461e-001
7.189627e+003,2.069169e-001
7.193484e+003,2.016426e-001
7.197342e+003,2.009192e-001
7.201199e+003,2.106832e-001
7.205056e+003,2.058578e-001
7.208913e+003,1.982943e-001
7.212770e+003,1.857834e-001
7.216627e+003,1.753398e-001
7.220484e+003,1.911880e-001
7.224341e+003,2.001829e-001
7.228198e+003,2.054098e-001
7.232056e+003,2.176728e-001
7.235913e+003,2.209199e-001
7.239770e+003,2.212237e-001
7.243627e+003,2.062222e-001
7.247484e+003,1.839597e-001
7.251341e+003,1.875142e-001
7.255198e+003,2.036238e-001
7.259055e+003,2.252942e-001
7.262912e+003,2.145652e-001
7.266770e+003,2.016327e-001
7.270626e+003,1.964144e-001
7.274483e+003,2.094458e-001
7.278341e+003,2.208567e-001
7.282198e+003,2.131310e-001
7.286055e+003,2.080323e-001
7.289912e+003,1.989525e-001
7.293769e+003,1.912523e-001
7.297626e+003,2.024675e-001
7.301483e+003,2.034989e-001
7.305340e+003,2.117487e-001
7.309197e+003,2.004104e-001
7.313055e+003,1.623367e-001
7.316912e+003,1.598617e-001
7.320769e+003,1.963405e-001
7.324626e+003,1.857676e-001
7.328483e+003,1.695753e-001
7.332340e+003,1.779853e-001
7.336197e+003,1.671338e-001
7.340054e+003,1.645974e-001
7.343911e+003,1.804429e-001
7.347769e+003,1.834576e-001
7.351625e+003,1.566560e-001
7.355482e+003,1.592768e-001
7.359340e+003,1.941217e-001
7.363197e+003,2.118398e-001
7.367054e+003,2.135353e-001
7.370911e+003,1.888092e-001
7.374768e+003,1.700852e-001
7.378625e+003,1.734163e-001
7.382482e+003,1.729204e-001
7.386339e+003,1.717940e-001
7.390196e+003,1.616621e-001
7.394054e+003,1.508775e-001
7.397911e+003,1.670469e-001
7.401768e+003,1.845399e-001
7.405625e+003,1.850874e-001
7.409482e+003,2.040793e-001
7.413339e+003,1.971914e-001
7.417196e+003,1.898521e-001
7.421053e+003,2.054248e-001
7.424910e+003,2.208841e-001
7.428768e+003,2.158948e-001
7.432625e+003,1.996732e-001
7.436481e+003,1.978356e-001
7.440339e+003,2.016657e-001
7.444196e+003,1.839290e-001
7.448053e+003,1.709521e-001
7.451910e+003,1.703579e-001
7.455767e+003,1.763728e-001
7.459624e+003,1.814114e-001
7.463481e+003,1.971520e-001
7.467338e+003,1.854082e-001
7.471195e+003,1.734561e-001
7.475053e+003,1.714132e-001
7.478910e+003,1.472096e-001
7.482767e+003,1.425355e-001
7.486624e+003,1.381032e-001
7.490481e+003,1.516756e-001
7.494338e+003,1.631942e-001
7.498195e+003,1.870176e-001
7.502052e+003,1.854458e-001
7.505909e+003,1.723185e-001
7.509767e+003,1.699467e-001
7.513624e+003,1.666994e-001
7.517480e+003,1.939902e-001
7.521338e+003,1.962750e-001
7.525195e+003,1.893639e-001
7.529052e+003,2.351725e-001
7.532909e+003,2.580891e-001
7.536766e+003,2.207890e-001
7.540623e+003,2.137427e-001
7.544480e+003,2.035760e-001
7.548337e+003,1.991856e-001
7.552194e+003,1.900564e-001
7.556052e+003,1.997762e-001
7.559909e+003,2.027393e-001
7.563766e+003,1.886172e-001
7.567623e+003,1.844795e-001
7.571480e+003,2.127813e-001
7.575337e+003,2.165027e-001
7.579194e+003,2.031123e-001
7.583051e+003,1.766124e-001
7.586908e+003,1.314781e-001
7.590766e+003,1.220455e-001
7.594623e+003,1.440517e-001
7.598479e+003,1.790300e-001
7.602337e+003,2.084944e-001
7.606194e+003,2.157422e-001
7.610051e+003,2.343284e-001
7.613908e+003,2.170743e-001
7.617765e+003,1.923724e-001
7.621622e+003,2.051183e-001
7.625479e+003,2.000410e-001
7.629336e+003,1.615173e-001
7.633193e+003,1.575420e-001
7.637051e+003,1.809345e-001
7.640908e+003,1.726406e-001
7.644765e+003,1.745784e-001
7.648622e+003,1.769710e-001
7.652479e+003,1.292091e-001
7.656336e+003,1.455339e-001
7.660193e+003,2.058049e-001
7.664050e+003,2.110017e-001
7.667907e+003,2.061749e-001
7.671765e+003,2.014592e-001
7.675622e+003,1.934911e-001
7.679479e+003,1.750603e-001
7.683336e+003,1.448008e-001
7.687193e+003,1.855502e-001
7.691050e+003,2.190743e-001
7.694907e+003,1.562441e-001
7.698764e+003,1.405971e-001
7.702621e+003,1.897998e-001
7.706479e+003,1.658209e-001
7.710335e+003,1.493060e-001
7.714192e+003,1.414727e-001
7.718050e+003,1.207186e-001
7.721907e+003,1.452711e-001
7.725764e+003,1.766018e-001
7.729621e+003,1.887653e-001
7.733478e+003,1.877242e-001
7.737335e+003,1.657279e-001
7.741192e+003,1.737133e-001
7.745049e+003,1.885968e-001
7.748906e+003,2.098342e-001
7.752764e+003,2.011777e-001
7.756621e+003,1.396470e-001
7.760478e+003,1.104895e-001
7.764335e+003,1.438769e-001
7.768192e+003,1.782802e-001
7.772049e+003,2.150915e-001
7.775906e+003,2.510236e-001
7.779763e+003,2.457605e-001
7.783620e+003,2.245809e-001
7.787478e+003,2.410624e-001
7.791334e+003,2.184067e-001
7.795191e+003,2.200456e-001
7.799049e+003,2.157497e-001
7.802906e+003,1.912309e-001
7.806763e+003,1.712756e-001
7.810620e+003,1.582149e-001
7.814477e+003,1.629457e-001
7.818334e+003,1.651613e-001
7.822191e+003,1.096285e-001
7.826048e+003,1.308371e-001
7.829905e+003,2.098861e-001
7.833763e+003,2.297601e-001
7.837620e+003,2.069382e-001
7.841477e+003,1.721922e-001
7.845334e+003,1.343235e-001
7.849191e+003,1.629565e-001
7.853048e+003,2.073216e-001
7.856905e+003,1.990634e-001
7.860762e+003,1.353474e-001
7.864619e+003,1.237517e-001
7.868477e+003,1.567185e-001
7.872333e+003,2.358136e-001
7.876190e+003,2.705604e-001
7.880048e+003,2.279748e-001
7.883905e+003,1.763985e-001
7.887762e+003,1.113416e-001
7.891619e+003,1.047696e-001
7.895476e+003,1.641948e-001
7.899333e+003,1.778528e-001
7.903190e+003,1.440237e-001
7.907047e+003,1.883081e-001
7.910904e+003,2.323186e-001
7.914762e+003,2.108519e-001
7.918619e+003,2.325386e-001
7.922476e+003,2.353160e-001
7.926333e+003,2.292731e-001
7.930190e+003,2.066160e-001
7.934047e+003,1.755740e-001
7.937904e+003,1.842849e-001
7.941761e+003,1.987128e-001
7.945618e+003,1.914846e-001
7.949476e+003,1.353612e-001
7.953333e+003,1.307706e-001
7.957189e+003,1.967614e-001
7.961047e+003,2.447806e-001
7.964904e+003,1.747608e-001
7.968761e+003,1.141522e-001
7.972618e+003,1.044782e-001
7.976475e+003,1.244091e-001
7.980332e+003,1.957641e-001
7.984189e+003,2.464014e-001
7.988046e+003,2.349112e-001
7.991903e+003,1.563479e-001
7.995761e+003,7.756887e-002
7.999618e+003,1.352243e-001
