4.011380e+002,5.175195e-001
4.049951e+002,4.025018e-001
4.088522e+002,7.677771e-001
4.127093e+002,6.000000e+000
4.165664e+002,6.000000e+000
4.204235e+002,2.207831e-001
4.242806e+002,6.000000e+000
4.281377e+002,6.000000e+000
4.319948e+002,-5.678544e-001
4.358519e+002,6.000000e+000
4.397090e+002,6.000000e+000
4.435661e+002,3.847361e-001
4.474232e+002,6.000000e+000
4.512803e+002,6.000000e+000
4.551374e+002,7.579641e-001
4.589945e+002,1.031678e-001
4.628516e+002,6.000000e+000
4.667087e+002,6.000000e+000
4.705658e+002,6.000000e+000
4.744229e+002,6.000000e+000
4.782800e+002,6.000000e+000
4.821371e+002,4.668655e-001
4.859941e+002,8.689241e-001
4.898513e+002,6.000000e+000
4.937083e+002,6.000000e+000
4.975654e+002,6.000000e+000
5.014225e+002,6.000000e+000
5.052796e+002,6.000000e+000
5.091367e+002,1.051007e+000
5.129938e+002,1.476286e-002
5.168509e+002,-1.062337e-001
5.207080e+002,-1.395573e-001
5.245651e+002,6.000000e+000
5.284222e+002,6.000000e+000
5.322793e+002,-1.294655e-001
5.361364e+002,7.909329e-002
5.399935e+002,6.000000e+000
5.438506e+002,7.529962e-001
5.477077e+002,6.000000e+000
5.515648e+002,-2.883851e-001
5.554219e+002,2.309656e-001
5.592790e+002,4.310899e-001
5.631361e+002,5.725162e-001
5.669932e+002,6.000000e+000
5.708503e+002,6.000000e+000
5.747074e+002,8.618215e-002
5.785645e+002,9.930382e-002
5.824216e+002,-1.296517e-002
5.862787e+002,-4.113662e-001
5.901357e+002,-1.105135e-001
5.939929e+002,1.490861e-001
5.978499e+002,4.493539e-001
6.017070e+002,1.256233e+000
6.055641e+002,6.000000e+000
6.094212e+002,6.000000e+000
6.132783e+002,-3.558455e-001
6.171354e+002,6.178639e-001
6.209925e+002,6.000000e+000
6.248496e+002,6.000000e+000
6.287067e+002,1.797746e+000
6.325638e+002,6.000000e+000
6.364209e+002,6.000000e+000
6.402780e+002,5.610451e-001
6.441351e+002,5.224585e-001
6.479922e+002,6.000000e+000
6.518493e+002,6.000000e+000
6.557064e+002,1.549518e-001
6.595635e+002,6.000000e+000
6.634205e+002,6.000000e+000
6.672777e+002,6.000000e+000
6.711348e+002,1.918883e-001
6.749918e+002,6.000000e+000
6.788490e+002,1.177970e+000
6.827061e+002,-5.316260e-001
6.865631e+002,6.000000e+000
6.904203e+002,6.000000e+000
6.942773e+002,1.015750e-001
6.981344e+002,2.352709e-001
7.019916e+002,7.727722e-001
7.058486e+002,5.158426e-001
7.097057e+002,6.000000e+000
7.135629e+002,-1.391086e+000
7.174199e+002,-4.025629e-001
7.212770e+002,3.181120e-001
7.251342e+002,2.399366e-001
7.289912e+002,-2.431078e-001
7.328483e+002,-3.628676e-001
7.367054e+002,-6.316727e-001
7.405625e+002,-4.142656e-001
7.444196e+002,3.614917e-001
7.482767e+002,6.000000e+000
7.521338e+002,1.761763e+000
7.559908e+002,6.000000e+000
7.598480e+002,6.000000e+000
7.637051e+002,6.000000e+000
7.675621e+002,2.179980e-002
7.714193e+002,6.000000e+000
7.752764e+002,-7.851490e-001
7.791334e+002,3.905233e-001
7.829905e+002,9.873511e-001
7.868477e+002,6.000000e+000
7.907047e+002,6.000000e+000
7.945618e+002,6.000000e+000
7.984189e+002,-9.739451e-001
8.022760e+002,1.525078e-001
8.061331e+002,6.000000e+000
8.099902e+002,-1.173828e-001
8.138473e+002,1.074883e-001
8.177044e+002,-2.259764e-002
8.215615e+002,1.490121e+000
8.254186e+002,6.000000e+000
8.292757e+002,6.000000e+000
8.331328e+002,3.902180e-001
8.369899e+002,9.132118e-001
8.408470e+002,6.000000e+000
8.447041e+002,6.000000e+000
8.485612e+002,6.000000e+000
8.524183e+002,6.000000e+000
8.562754e+002,1.226438e+000
8.601324e+002,1.651665e+000
8.639896e+002,1.382503e+000
8.678467e+002,2.117455e+000
8.717037e+002,6.000000e+000
8.755609e+002,6.000000e+000
8.794180e+002,6.000000e+000
8.832750e+002,6.000000e+000
8.871321e+002,6.000000e+000
8.909893e+002,2.137408e+000
8.948463e+002,6.000000e+000
8.987034e+002,6.000000e+000
9.025605e+002,1.519481e+000
9.064176e+002,1.081068e+000
9.102747e+002,1.309845e+000
9.141318e+002,1.531359e+000
9.179889e+002,2.500673e+000
9.218461e+002,6.000000e+000
9.257031e+002,6.000000e+000
9.295602e+002,6.000000e+000
9.334174e+002,6.000000e+000
9.372744e+002,6.000000e+000
9.411315e+002,6.000000e+000
9.449886e+002,6.000000e+000
9.488457e+002,6.000000e+000
9.527028e+002,6.000000e+000
9.565599e+002,6.000000e+000
9.604170e+002,6.000000e+000
9.642740e+002,2.096745e+000
9.681312e+002,2.177461e+000
9.719883e+002,6.000000e+000
9.758453e+002,6.000000e+000
9.797025e+002,2.060425e+000
9.835596e+002,2.036510e+000
9.874166e+002,1.945730e+000
9.912738e+002,2.670131e+000
9.951309e+002,6.000000e+000
9.989879e+002,6.000000e+000
1.002845e+003,6.000000e+000
1.006702e+003,6.000000e+000
1.010559e+003,6.000000e+000
1.014416e+003,2.894876e+000
1.018273e+003,1.956661e+000
1.022130e+003,1.916415e+000
1.025988e+003,2.192923e+000
1.029845e+003,2.372310e+000
1.033702e+003,2.750952e+000
1.037559e+003,2.467545e+000
1.041416e+003,1.740536e+000
1.045273e+003,1.474354e+000
1.049130e+003,1.564843e+000
1.052987e+003,1.889603e+000
1.056844e+003,1.883875e+000
1.060702e+003,1.606938e+000
1.064559e+003,1.566957e+000
1.068416e+003,1.899590e+000
1.072273e+003,2.946165e+000
1.076130e+003,1.862225e+000
1.079987e+003,1.748384e+000
1.083844e+003,1.938413e+000
1.087701e+003,1.673289e+000
1.091558e+003,1.555870e+000
1.095415e+003,1.534941e+000
1.099272e+003,1.474074e+000
1.103130e+003,1.515804e+000
1.106987e+003,1.519553e+000
1.110844e+003,1.453872e+000
1.114701e+003,1.500533e+000
1.118558e+003,1.500251e+000
1.122415e+003,1.478157e+000
1.126272e+003,1.499956e+000
1.130129e+003,1.555455e+000
1.133986e+003,1.640736e+000
1.137843e+003,1.633528e+000
1.141701e+003,1.588054e+000
1.145558e+003,1.531299e+000
1.149415e+003,1.504167e+000
1.153272e+003,1.550480e+000
1.157129e+003,1.535105e+000
1.160986e+003,1.483428e+000
1.164843e+003,1.453487e+000
1.168700e+003,1.424406e+000
1.172557e+003,1.424234e+000
1.176414e+003,1.439300e+000
1.180271e+003,1.456044e+000
1.184129e+003,1.517579e+000
1.187986e+003,1.517898e+000
1.191843e+003,1.518768e+000
1.195700e+003,1.461010e+000
1.199557e+003,1.435751e+000
1.203414e+003,1.475066e+000
1.207271e+003,1.454498e+000
1.211128e+003,1.375036e+000
1.214985e+003,1.318453e+000
1.218842e+003,1.295719e+000
1.222699e+003,1.243789e+000
1.226557e+003,1.170714e+000
1.230414e+003,1.092265e+000
1.234271e+003,1.033893e+000
1.238128e+003,9.831890e-001
1.241985e+003,9.378740e-001
1.245842e+003,8.898009e-001
1.249699e+003,8.147301e-001
1.253556e+003,7.699784e-001
1.257413e+003,7.495240e-001
1.261271e+003,7.189794e-001
1.265128e+003,6.969765e-001
1.268985e+003,6.749395e-001
1.272842e+003,6.546019e-001
1.276699e+003,6.301870e-001
1.280556e+003,6.068739e-001
1.284413e+003,5.899068e-001
1.288270e+003,5.761957e-001
1.292127e+003,5.647895e-001
1.295984e+003,5.567352e-001
1.299841e+003,5.476248e-001
1.303698e+003,5.407788e-001
1.307556e+003,5.253800e-001
1.311413e+003,5.155006e-001
1.315270e+003,5.137081e-001
1.319127e+003,5.042864e-001
1.322984e+003,4.900019e-001
1.326841e+003,4.876872e-001
1.330698e+003,4.908617e-001
1.334555e+003,4.850943e-001
1.338412e+003,4.774524e-001
1.342270e+003,4.713653e-001
1.346127e+003,4.626884e-001
1.349984e+003,4.634280e-001
1.353841e+003,4.704393e-001
1.357698e+003,4.753220e-001
1.361555e+003,4.759933e-001
1.365412e+003,4.712993e-001
1.369269e+003,4.719556e-001
1.373126e+003,4.850903e-001
1.376983e+003,4.919702e-001
1.380840e+003,5.065200e-001
1.384698e+003,5.215083e-001
1.388555e+003,5.306524e-001
1.392412e+003,5.447398e-001
1.396269e+003,5.641151e-001
1.400126e+003,5.837926e-001
1.403983e+003,5.977209e-001
1.407840e+003,5.983801e-001
1.411697e+003,6.137331e-001
1.415554e+003,6.348984e-001
1.419411e+003,6.559334e-001
1.423269e+003,6.737590e-001
1.427126e+003,6.857027e-001
1.430983e+003,6.797488e-001
1.434840e+003,6.800532e-001
1.438697e+003,6.816621e-001
1.442554e+003,6.805934e-001
1.446411e+003,6.701403e-001
1.450268e+003,6.671105e-001
1.454125e+003,6.635823e-001
1.457982e+003,6.470460e-001
1.461839e+003,6.336586e-001
1.465697e+003,6.308151e-001
1.469554e+003,6.251359e-001
1.473411e+003,6.134915e-001
1.477268e+003,6.076010e-001
1.481125e+003,6.179639e-001
1.484982e+003,6.324441e-001
1.488839e+003,6.459383e-001
1.492696e+003,6.594681e-001
1.496553e+003,6.789744e-001
1.500411e+003,6.999667e-001
1.504268e+003,7.057934e-001
1.508125e+003,7.053601e-001
1.511982e+003,7.080696e-001
1.515839e+003,7.002813e-001
1.519696e+003,6.895428e-001
1.523553e+003,6.820195e-001
1.527410e+003,6.719615e-001
1.531267e+003,6.562989e-001
1.535124e+003,6.406513e-001
1.538981e+003,6.312665e-001
1.542839e+003,6.180561e-001
1.546696e+003,5.882943e-001
1.550553e+003,5.730536e-001
1.554410e+003,5.674408e-001
1.558267e+003,5.527486e-001
1.562124e+003,5.487707e-001
1.565981e+003,5.368052e-001
1.569838e+003,5.259586e-001
1.573695e+003,5.258659e-001
1.577552e+003,5.156292e-001
1.581410e+003,5.095983e-001
1.585267e+003,5.191934e-001
1.589124e+003,5.258436e-001
1.592981e+003,5.258651e-001
1.596838e+003,5.413318e-001
1.600695e+003,5.582581e-001
1.604552e+003,5.704907e-001
1.608409e+003,5.962992e-001
1.612266e+003,6.274834e-001
1.616123e+003,6.562161e-001
1.619980e+003,6.776926e-001
1.623838e+003,7.023960e-001
1.627695e+003,7.337201e-001
1.631552e+003,7.521259e-001
1.635409e+003,7.562194e-001
1.639266e+003,7.611599e-001
1.643123e+003,7.533346e-001
1.646980e+003,7.358588e-001
1.650837e+003,7.081265e-001
1.654694e+003,6.930615e-001
1.658551e+003,6.811283e-001
1.662409e+003,6.583112e-001
1.666266e+003,6.317624e-001
1.670123e+003,6.089267e-001
1.673980e+003,5.865763e-001
1.677837e+003,5.560004e-001
1.681694e+003,5.315809e-001
1.685551e+003,5.098032e-001
1.689408e+003,4.907757e-001
1.693265e+003,4.753630e-001
1.697122e+003,4.652951e-001
1.700979e+003,4.563072e-001
1.704837e+003,4.443710e-001
1.708694e+003,4.337042e-001
1.712551e+003,4.299413e-001
1.716408e+003,4.304025e-001
1.720265e+003,4.212337e-001
1.724122e+003,4.115891e-001
1.727979e+003,4.099554e-001
1.731836e+003,4.052881e-001
1.735693e+003,3.996232e-001
1.739550e+003,4.003994e-001
1.743408e+003,3.957447e-001
1.747265e+003,3.935139e-001
1.751122e+003,3.949088e-001
1.754979e+003,3.929945e-001
1.758836e+003,3.915849e-001
1.762693e+003,3.909875e-001
1.766550e+003,3.902962e-001
1.770407e+003,3.882571e-001
1.774264e+003,3.882768e-001
1.778121e+003,3.900342e-001
1.781979e+003,3.892039e-001
1.785836e+003,3.853484e-001
1.789693e+003,3.849135e-001
1.793550e+003,3.856598e-001
1.797407e+003,3.834775e-001
1.801264e+003,3.812619e-001
1.805121e+003,3.787273e-001
1.808978e+003,3.806632e-001
1.812835e+003,3.814356e-001
1.816692e+003,3.829722e-001
1.820549e+003,3.794737e-001
1.824407e+003,3.721232e-001
1.828264e+003,3.716293e-001
1.832121e+003,3.689551e-001
1.835978e+003,3.644035e-001
1.839835e+003,3.628103e-001
1.843692e+003,3.619016e-001
1.847549e+003,3.664948e-001
1.851406e+003,3.688644e-001
1.855263e+003,3.668768e-001
1.859120e+003,3.653798e-001
1.862978e+003,3.600460e-001
1.866835e+003,3.612676e-001
1.870692e+003,3.634048e-001
1.874549e+003,3.611592e-001
1.878406e+003,3.598753e-001
1.882263e+003,3.590707e-001
1.886120e+003,3.610131e-001
1.889977e+003,3.625865e-001
1.893834e+003,3.589004e-001
1.897691e+003,3.531818e-001
1.901548e+003,3.482820e-001
1.905406e+003,3.484517e-001
1.909263e+003,3.496458e-001
1.913120e+003,3.471057e-001
1.916977e+003,3.458359e-001
1.920834e+003,3.456939e-001
1.924691e+003,3.436292e-001
1.928548e+003,3.453537e-001
1.932405e+003,3.485925e-001
1.936262e+003,3.456008e-001
1.940119e+003,3.403579e-001
1.943977e+003,3.384929e-001
1.947834e+003,3.413806e-001
1.951691e+003,3.412987e-001
1.955548e+003,3.385993e-001
1.959405e+003,3.362002e-001
1.963262e+003,3.345589e-001
1.967119e+003,3.332204e-001
1.970976e+003,3.318819e-001
1.974833e+003,3.298358e-001
1.978690e+003,3.293216e-001
1.982547e+003,3.274621e-001
1.986405e+003,3.266313e-001
1.990262e+003,3.268230e-001
1.994119e+003,3.260717e-001
1.997976e+003,3.267332e-001
2.001833e+003,3.252679e-001
2.005690e+003,3.241978e-001
2.009547e+003,3.226133e-001
2.013404e+003,3.224096e-001
2.017261e+003,3.246096e-001
2.021118e+003,3.253773e-001
2.024976e+003,3.252994e-001
2.028833e+003,3.197193e-001
2.032690e+003,3.168829e-001
2.036547e+003,3.163504e-001
2.040404e+003,3.139034e-001
2.044261e+003,3.123550e-001
2.048118e+003,3.120783e-001
2.051975e+003,3.099643e-001
2.055832e+003,3.106980e-001
2.059689e+003,3.076851e-001
2.063546e+003,3.080746e-001
2.067404e+003,3.109190e-001
2.071261e+003,3.072677e-001
2.075118e+003,3.057591e-001
2.078975e+003,3.082818e-001
2.082832e+003,3.073533e-001
2.086689e+003,3.056982e-001
2.090546e+003,3.058643e-001
2.094403e+003,3.071459e-001
2.098260e+003,3.059877e-001
2.102117e+003,3.052335e-001
2.105975e+003,3.076859e-001
2.109832e+003,3.061749e-001
2.113689e+003,3.022715e-001
2.117546e+003,3.018811e-001
2.121403e+003,3.014470e-001
2.125260e+003,3.008767e-001
2.129117e+003,3.025120e-001
2.132974e+003,3.027980e-001
2.136831e+003,3.032239e-001
2.140688e+003,3.083661e-001
2.144545e+003,3.103923e-001
2.148403e+003,3.106531e-001
2.152260e+003,3.106543e-001
2.156117e+003,3.120073e-001
2.159974e+003,3.156241e-001
2.163831e+003,3.170062e-001
2.167688e+003,3.150919e-001
2.171545e+003,3.101737e-001
2.175402e+003,3.092660e-001
2.179259e+003,3.148935e-001
2.183116e+003,3.144901e-001
2.186974e+003,3.133124e-001
2.190831e+003,3.147326e-001
2.194688e+003,3.135563e-001
2.198545e+003,3.131063e-001
2.202402e+003,3.119815e-001
2.206259e+003,3.108558e-001
2.210116e+003,3.097681e-001
2.213973e+003,3.121244e-001
2.217830e+003,3.135069e-001
2.221688e+003,3.179740e-001
2.225544e+003,3.218257e-001
2.229402e+003,3.207452e-001
2.233259e+003,3.194458e-001
2.237116e+003,3.195619e-001
2.240973e+003,3.208418e-001
2.244830e+003,3.214820e-001
2.248687e+003,3.215420e-001
2.252544e+003,3.214655e-001
2.256401e+003,3.217668e-001
2.260258e+003,3.205739e-001
2.264115e+003,3.204295e-001
2.267973e+003,3.227670e-001
2.271830e+003,3.232199e-001
2.275687e+003,3.226998e-001
2.279544e+003,3.247124e-001
2.283401e+003,3.265259e-001
2.287258e+003,3.253406e-001
2.291115e+003,3.250393e-001
2.294972e+003,3.289181e-001
2.298829e+003,3.357580e-001
2.302687e+003,3.385689e-001
2.306543e+003,3.343937e-001
2.310401e+003,3.363419e-001
2.314258e+003,3.437976e-001
2.318115e+003,3.443616e-001
2.321972e+003,3.460049e-001
2.325829e+003,3.484634e-001
2.329686e+003,3.474317e-001
2.333543e+003,3.423138e-001
2.337400e+003,3.443527e-001
2.341257e+003,3.483188e-001
2.345115e+003,3.494776e-001
2.348972e+003,3.510424e-001
2.352829e+003,3.530439e-001
2.356686e+003,3.510051e-001
2.360543e+003,3.526192e-001
2.364400e+003,3.544367e-001
2.368257e+003,3.525621e-001
2.372114e+003,3.490315e-001
2.375971e+003,3.439007e-001
2.379828e+003,3.373871e-001
2.383686e+003,3.346399e-001
2.387542e+003,3.352219e-001
2.391400e+003,3.345635e-001
2.395257e+003,3.371844e-001
2.399114e+003,3.396043e-001
2.402971e+003,3.354616e-001
2.406828e+003,3.364373e-001
2.410685e+003,3.400635e-001
2.414542e+003,3.402440e-001
2.418399e+003,3.387433e-001
2.422256e+003,3.374490e-001
2.426114e+003,3.351386e-001
2.429971e+003,3.341710e-001
2.433828e+003,3.332558e-001
2.437685e+003,3.301848e-001
2.441542e+003,3.329355e-001
2.445399e+003,3.358006e-001
2.449256e+003,3.350177e-001
2.453113e+003,3.330444e-001
2.456970e+003,3.331391e-001
2.460827e+003,3.320227e-001
2.464684e+003,3.307517e-001
2.468542e+003,3.313774e-001
2.472399e+003,3.359971e-001
2.476256e+003,3.379455e-001
2.480113e+003,3.343495e-001
2.483970e+003,3.338343e-001
2.487827e+003,3.332423e-001
2.491684e+003,3.327488e-001
2.495541e+003,3.317668e-001
2.499398e+003,3.272576e-001
2.503255e+003,3.285404e-001
2.507113e+003,3.320143e-001
2.510969e+003,3.343096e-001
2.514827e+003,3.365100e-001
2.518684e+003,3.314964e-001
2.522541e+003,3.284305e-001
2.526398e+003,3.338696e-001
2.530255e+003,3.363683e-001
2.534112e+003,3.377572e-001
2.537969e+003,3.406371e-001
2.541826e+003,3.419369e-001
2.545683e+003,3.424501e-001
2.549541e+003,3.451493e-001
2.553398e+003,3.459462e-001
2.557255e+003,3.473048e-001
2.561112e+003,3.478613e-001
2.564969e+003,3.458375e-001
2.568826e+003,3.461822e-001
2.572683e+003,3.480321e-001
2.576540e+003,3.467692e-001
2.580397e+003,3.483546e-001
2.584254e+003,3.528395e-001
2.588112e+003,3.560169e-001
2.591969e+003,3.585751e-001
2.595826e+003,3.608194e-001
2.599683e+003,3.654152e-001
2.603540e+003,3.673758e-001
2.607397e+003,3.691403e-001
2.611254e+003,3.713322e-001
2.615111e+003,3.741748e-001
2.618968e+003,3.764900e-001
2.622825e+003,3.789388e-001
2.626682e+003,3.813046e-001
2.630540e+003,3.844435e-001
2.634397e+003,3.836642e-001
2.638254e+003,3.887103e-001
2.642111e+003,3.931109e-001
2.645968e+003,3.917564e-001
2.649825e+003,3.943587e-001
2.653682e+003,3.977993e-001
2.657539e+003,3.988710e-001
2.661396e+003,4.043676e-001
2.665253e+003,4.022086e-001
2.669111e+003,4.062936e-001
2.672968e+003,4.155967e-001
2.676825e+003,4.141829e-001
2.680682e+003,4.168014e-001
2.684539e+003,4.217232e-001
2.688396e+003,4.226510e-001
2.692253e+003,4.276277e-001
2.696110e+003,4.327829e-001
2.699967e+003,4.356270e-001
2.703824e+003,4.384324e-001
2.707681e+003,4.427953e-001
2.711539e+003,4.464498e-001
2.715396e+003,4.517519e-001
2.719253e+003,4.553843e-001
2.723110e+003,4.596874e-001
2.726967e+003,4.606206e-001
2.730824e+003,4.634676e-001
2.734681e+003,4.659736e-001
2.738538e+003,4.703367e-001
2.742395e+003,4.764243e-001
2.746252e+003,4.828905e-001
2.750110e+003,4.901610e-001
2.753967e+003,4.945747e-001
2.757824e+003,4.961760e-001
2.761681e+003,5.010486e-001
2.765538e+003,5.064785e-001
2.769395e+003,5.129582e-001
2.773252e+003,5.170208e-001
2.777109e+003,5.174496e-001
2.780966e+003,5.227840e-001
2.784823e+003,5.261767e-001
2.788680e+003,5.281968e-001
2.792538e+003,5.316710e-001
2.796395e+003,5.395427e-001
2.800252e+003,5.441854e-001
2.804109e+003,5.485802e-001
2.807966e+003,5.498483e-001
2.811823e+003,5.513058e-001
2.815680e+003,5.619370e-001
2.819537e+003,5.683523e-001
2.823394e+003,5.790354e-001
2.827251e+003,5.856851e-001
2.831109e+003,5.794351e-001
2.834966e+003,5.798867e-001
2.838823e+003,5.887422e-001
2.842680e+003,5.844612e-001
2.846537e+003,5.884721e-001
2.850394e+003,6.048719e-001
2.854251e+003,6.111608e-001
2.858108e+003,6.156645e-001
2.861965e+003,6.142091e-001
2.865823e+003,6.213637e-001
2.869679e+003,6.332023e-001
2.873537e+003,6.389775e-001
2.877394e+003,6.413316e-001
2.881251e+003,6.455072e-001
2.885108e+003,6.502375e-001
2.888965e+003,6.550084e-001
2.892822e+003,6.573672e-001
2.896679e+003,6.700653e-001
2.900536e+003,6.774988e-001
2.904393e+003,6.779425e-001
2.908250e+003,6.751464e-001
2.912108e+003,6.781440e-001
2.915965e+003,6.952767e-001
2.919822e+003,7.068172e-001
2.923679e+003,7.082567e-001
2.927536e+003,7.114263e-001
2.931393e+003,7.250064e-001
2.935250e+003,7.364146e-001
2.939107e+003,7.381039e-001
2.942964e+003,7.363612e-001
2.946822e+003,7.349198e-001
2.950678e+003,7.472660e-001
2.954536e+003,7.559442e-001
2.958393e+003,7.563003e-001
2.962250e+003,7.561944e-001
2.966107e+003,7.664093e-001
2.969964e+003,7.821863e-001
2.973821e+003,7.880919e-001
2.977678e+003,7.892216e-001
2.981535e+003,7.977920e-001
2.985392e+003,8.077578e-001
2.989250e+003,8.166807e-001
2.993107e+003,8.177617e-001
2.996964e+003,8.124807e-001
3.000821e+003,8.202394e-001
3.004678e+003,8.405901e-001
3.008535e+003,8.551260e-001
3.012392e+003,8.576842e-001
3.016249e+003,8.557715e-001
3.020106e+003,8.575866e-001
3.023963e+003,8.683420e-001
3.027821e+003,8.708244e-001
3.031677e+003,8.757539e-001
3.035535e+003,8.847719e-001
3.039392e+003,8.876569e-001
3.043249e+003,8.919073e-001
3.047106e+003,9.129626e-001
3.050963e+003,9.218249e-001
3.054820e+003,9.272931e-001
3.058677e+003,9.409451e-001
3.062534e+003,9.451885e-001
3.066391e+003,9.340332e-001
3.070249e+003,9.339215e-001
3.074106e+003,9.490848e-001
3.077963e+003,9.622362e-001
3.081820e+003,9.754061e-001
3.085677e+003,9.708474e-001
3.089534e+003,9.700145e-001
3.093391e+003,9.736427e-001
3.097248e+003,9.733269e-001
3.101105e+003,9.929464e-001
3.104962e+003,1.010029e+000
3.108820e+003,1.013416e+000
3.112677e+003,1.009415e+000
3.116534e+003,1.009188e+000
3.120391e+003,1.024650e+000
3.124248e+003,1.035579e+000
3.128105e+003,1.040248e+000
3.131962e+003,1.055879e+000
3.135819e+003,1.083220e+000
3.139676e+003,1.105062e+000
3.143533e+003,1.112392e+000
3.147390e+003,1.110549e+000
3.151248e+003,1.121151e+000
3.155105e+003,1.122536e+000
3.158962e+003,1.116359e+000
3.162819e+003,1.135597e+000
3.166676e+003,1.150860e+000
3.170533e+003,1.153311e+000
3.174390e+003,1.151848e+000
3.178247e+003,1.166458e+000
3.182104e+003,1.179860e+000
3.185961e+003,1.194990e+000
3.189819e+003,1.193753e+000
3.193676e+003,1.190166e+000
3.197533e+003,1.172657e+000
3.201390e+003,1.166849e+000
3.205247e+003,1.189203e+000
3.209104e+003,1.208332e+000
3.212961e+003,1.217301e+000
3.216818e+003,1.236801e+000
3.220675e+003,1.257433e+000
3.224532e+003,1.262473e+000
3.228389e+003,1.250065e+000
3.232247e+003,1.248519e+000
3.236104e+003,1.234823e+000
3.239961e+003,1.254993e+000
3.243818e+003,1.264066e+000
3.247675e+003,1.242653e+000
3.251532e+003,1.266467e+000
3.255389e+003,1.281562e+000
3.259246e+003,1.281925e+000
3.263103e+003,1.320378e+000
3.266960e+003,1.326240e+000
3.270818e+003,1.311877e+000
3.274675e+003,1.321467e+000
3.278532e+003,1.285610e+000
3.282389e+003,1.304960e+000
3.286246e+003,1.352462e+000
3.290103e+003,1.338003e+000
3.293960e+003,1.338286e+000
3.297817e+003,1.336563e+000
3.301674e+003,1.343575e+000
3.305531e+003,1.393309e+000
3.309388e+003,1.440114e+000
3.313246e+003,1.440943e+000
3.317103e+003,1.451830e+000
3.320960e+003,1.446689e+000
3.324817e+003,1.405940e+000
3.328674e+003,1.388019e+000
3.332531e+003,1.379726e+000
3.336388e+003,1.425634e+000
3.340245e+003,1.486071e+000
3.344102e+003,1.487839e+000
3.347959e+003,1.492816e+000
3.351817e+003,1.480492e+000
3.355674e+003,1.427981e+000
3.359531e+003,1.426064e+000
3.363388e+003,1.411515e+000
3.367245e+003,1.440083e+000
3.371102e+003,1.427591e+000
3.374959e+003,1.394463e+000
3.378816e+003,1.417892e+000
3.382673e+003,1.475873e+000
3.386530e+003,1.510403e+000
3.390387e+003,1.514752e+000
3.394245e+003,1.565616e+000
3.398102e+003,1.600449e+000
3.401959e+003,1.562289e+000
3.405816e+003,1.559560e+000
3.409673e+003,1.580374e+000
3.413530e+003,1.533501e+000
3.417387e+003,1.497028e+000
3.421244e+003,1.528280e+000
3.425101e+003,1.516800e+000
3.428958e+003,1.473433e+000
3.432815e+003,1.495858e+000
3.436673e+003,1.528690e+000
3.440530e+003,1.513255e+000
3.444387e+003,1.511398e+000
3.448244e+003,1.538398e+000
3.452101e+003,1.544914e+000
3.455958e+003,1.551303e+000
3.459815e+003,1.537405e+000
3.463672e+003,1.544405e+000
3.467529e+003,1.523152e+000
3.471386e+003,1.490025e+000
3.475244e+003,1.511649e+000
3.479101e+003,1.521380e+000
3.482958e+003,1.515502e+000
3.486815e+003,1.527617e+000
3.490672e+003,1.519501e+000
3.494529e+003,1.559406e+000
3.498386e+003,1.561452e+000
3.502243e+003,1.592452e+000
3.506100e+003,1.668169e+000
3.509958e+003,1.650239e+000
3.513814e+003,1.596892e+000
3.517672e+003,1.621486e+000
3.521529e+003,1.637992e+000
3.525386e+003,1.639982e+000
3.529243e+003,1.624581e+000
3.533100e+003,1.565730e+000
3.536957e+003,1.555187e+000
3.540814e+003,1.553625e+000
3.544671e+003,1.605756e+000
3.548528e+003,1.620045e+000
3.552385e+003,1.628464e+000
3.556243e+003,1.630194e+000
3.560100e+003,1.538745e+000
3.563957e+003,1.516809e+000
3.567814e+003,1.541686e+000
3.571671e+003,1.558653e+000
3.575528e+003,1.561321e+000
3.579385e+003,1.576451e+000
3.583242e+003,1.549056e+000
3.587099e+003,1.498159e+000
3.590957e+003,1.455430e+000
3.594813e+003,1.366578e+000
3.598671e+003,1.316285e+000
3.602528e+003,1.331078e+000
3.606385e+003,1.300603e+000
3.610242e+003,1.234097e+000
3.614099e+003,1.193721e+000
3.617956e+003,1.179087e+000
3.621813e+003,1.140338e+000
3.625670e+003,1.066751e+000
3.629527e+003,9.974758e-001
3.633385e+003,9.535388e-001
3.637242e+003,8.976248e-001
3.641099e+003,8.248473e-001
3.644956e+003,7.574091e-001
3.648813e+003,6.947978e-001
3.652670e+003,6.374581e-001
3.656527e+003,5.873328e-001
3.660384e+003,5.422774e-001
3.664241e+003,4.959602e-001
3.668098e+003,4.546295e-001
3.671956e+003,4.234254e-001
3.675813e+003,3.906932e-001
3.679670e+003,3.668492e-001
3.683527e+003,3.471119e-001
3.687384e+003,3.270862e-001
3.691241e+003,3.098211e-001
3.695098e+003,2.937544e-001
3.698955e+003,2.839872e-001
3.702812e+003,2.725451e-001
3.706669e+003,2.630031e-001
3.710526e+003,2.570248e-001
3.714384e+003,2.513926e-001
3.718241e+003,2.410375e-001
3.722098e+003,2.321609e-001
3.725955e+003,2.304358e-001
3.729812e+003,2.245088e-001
3.733669e+003,2.189540e-001
3.737526e+003,2.191373e-001
3.741383e+003,2.146383e-001
3.745240e+003,2.099086e-001
3.749097e+003,2.089667e-001
3.752955e+003,2.112423e-001
3.756812e+003,2.098796e-001
3.760669e+003,2.061967e-001
3.764526e+003,2.071337e-001
3.768383e+003,2.071064e-001
3.772240e+003,2.060697e-001
3.776097e+003,2.042463e-001
3.779954e+003,2.011467e-001
3.783811e+003,1.997381e-001
3.787668e+003,1.982244e-001
3.791525e+003,1.930989e-001
3.795383e+003,1.956715e-001
3.799240e+003,2.021059e-001
3.803097e+003,1.974574e-001
3.806954e+003,1.944110e-001
3.810811e+003,1.949235e-001
3.814668e+003,1.981485e-001
3.818525e+003,2.017532e-001
3.822382e+003,2.016394e-001
3.826239e+003,1.992615e-001
3.830096e+003,1.959328e-001
3.833954e+003,1.953649e-001
3.837811e+003,1.942393e-001
3.841668e+003,1.936558e-001
3.845525e+003,1.924413e-001
3.849382e+003,1.936898e-001
3.853239e+003,1.935153e-001
3.857096e+003,1.906431e-001
3.860953e+003,1.931103e-001
3.864810e+003,1.939763e-001
3.868667e+003,1.904343e-001
3.872524e+003,1.854269e-001
3.876382e+003,1.857224e-001
3.880239e+003,1.913354e-001
3.884096e+003,1.890758e-001
3.887953e+003,1.894957e-001
3.891810e+003,1.927708e-001
3.895667e+003,1.895736e-001
3.899524e+003,1.932454e-001
3.903381e+003,1.982755e-001
3.907238e+003,1.950008e-001
3.911095e+003,1.878510e-001
3.914953e+003,1.864599e-001
3.918810e+003,1.893288e-001
3.922667e+003,1.869868e-001
3.926524e+003,1.848667e-001
3.930381e+003,1.837249e-001
3.934238e+003,1.872675e-001
3.938095e+003,1.874960e-001
3.941952e+003,1.848417e-001
3.945809e+003,1.837368e-001
3.949667e+003,1.854868e-001
3.953523e+003,1.866168e-001
3.957381e+003,1.871972e-001
3.961238e+003,1.899556e-001
3.965095e+003,1.888765e-001
3.968952e+003,1.867749e-001
3.972809e+003,1.843486e-001
3.976666e+003,1.795940e-001
3.980523e+003,1.803761e-001
3.984380e+003,1.866610e-001
3.988237e+003,1.889183e-001
3.992094e+003,1.876623e-001
3.995952e+003,1.879641e-001
3.999809e+003,1.867714e-001
4.003666e+003,1.842801e-001
4.007523e+003,1.839920e-001
4.011380e+003,1.794428e-001
4.015237e+003,1.779123e-001
4.019094e+003,1.824948e-001
4.022951e+003,1.847776e-001
4.026808e+003,1.794641e-001
4.030666e+003,1.768469e-001
4.034522e+003,1.767758e-001
4.038380e+003,1.808538e-001
4.042237e+003,1.893881e-001
4.046094e+003,1.872128e-001
4.049951e+003,1.770858e-001
4.053808e+003,1.780918e-001
4.057665e+003,1.813354e-001
4.061522e+003,1.846778e-001
4.065379e+003,1.828443e-001
4.069236e+003,1.788851e-001
4.073094e+003,1.822385e-001
4.076951e+003,1.805986e-001
4.080808e+003,1.772890e-001
4.084665e+003,1.789055e-001
4.088522e+003,1.828448e-001
4.092379e+003,1.789802e-001
4.096236e+003,1.749521e-001
4.100093e+003,1.737035e-001
4.103950e+003,1.731773e-001
4.107808e+003,1.744377e-001
4.111665e+003,1.770797e-001
4.115521e+003,1.799309e-001
4.119379e+003,1.813617e-001
4.123236e+003,1.819562e-001
4.127093e+003,1.796965e-001
4.130950e+003,1.793819e-001
4.134807e+003,1.780856e-001
4.138664e+003,1.790818e-001
4.142521e+003,1.779179e-001
4.146378e+003,1.764986e-001
4.150235e+003,1.785952e-001
4.154093e+003,1.764327e-001
4.157950e+003,1.736223e-001
4.161807e+003,1.736815e-001
4.165664e+003,1.758918e-001
4.169521e+003,1.733680e-001
4.173378e+003,1.728087e-001
4.177235e+003,1.749541e-001
4.181092e+003,1.682533e-001
4.184949e+003,1.624416e-001
4.188807e+003,1.676024e-001
4.192664e+003,1.732817e-001
4.196521e+003,1.698727e-001
4.200378e+003,1.672192e-001
4.204235e+003,1.688468e-001
4.208092e+003,1.679191e-001
4.211949e+003,1.679188e-001
4.215806e+003,1.706147e-001
4.219663e+003,1.733011e-001
4.223521e+003,1.741616e-001
4.227377e+003,1.688123e-001
4.231234e+003,1.698392e-001
4.235092e+003,1.689077e-001
4.238949e+003,1.662512e-001
4.242806e+003,1.652955e-001
4.246663e+003,1.640285e-001
4.250520e+003,1.660103e-001
4.254377e+003,1.664211e-001
4.258234e+003,1.687445e-001
4.262091e+003,1.722156e-001
4.265948e+003,1.722955e-001
4.269806e+003,1.680825e-001
4.273663e+003,1.683864e-001
4.277520e+003,1.683120e-001
4.281377e+003,1.682106e-001
4.285234e+003,1.682178e-001
4.289091e+003,1.647776e-001
4.292948e+003,1.680785e-001
4.296805e+003,1.692149e-001
4.300662e+003,1.665505e-001
4.304520e+003,1.650107e-001
4.308376e+003,1.667503e-001
4.312233e+003,1.689512e-001
4.316091e+003,1.688662e-001
4.319948e+003,1.704232e-001
4.323805e+003,1.690904e-001
4.327662e+003,1.675014e-001
4.331519e+003,1.696917e-001
4.335376e+003,1.682546e-001
4.339233e+003,1.677153e-001
4.343090e+003,1.670032e-001
4.346947e+003,1.694262e-001
4.350805e+003,1.712430e-001
4.354662e+003,1.698762e-001
4.358519e+003,1.647586e-001
4.362376e+003,1.627198e-001
4.366233e+003,1.690684e-001
4.370090e+003,1.703318e-001
4.373947e+003,1.660609e-001
4.377804e+003,1.616158e-001
4.381661e+003,1.590587e-001
4.385519e+003,1.617863e-001
4.389375e+003,1.689109e-001
4.393232e+003,1.734259e-001
4.397090e+003,1.719474e-001
4.400947e+003,1.673072e-001
4.404804e+003,1.694519e-001
4.408661e+003,1.725129e-001
4.412518e+003,1.692782e-001
4.416375e+003,1.698397e-001
4.420232e+003,1.721166e-001
4.424089e+003,1.723755e-001
4.427946e+003,1.695291e-001
4.431804e+003,1.648314e-001
4.435661e+003,1.676951e-001
4.439518e+003,1.697111e-001
4.443375e+003,1.683794e-001
4.447232e+003,1.669019e-001
4.451089e+003,1.675938e-001
4.454946e+003,1.720840e-001
4.458803e+003,1.715261e-001
4.462660e+003,1.703780e-001
4.466518e+003,1.723605e-001
4.470375e+003,1.687424e-001
4.474231e+003,1.677590e-001
4.478089e+003,1.760952e-001
4.481946e+003,1.777100e-001
4.485803e+003,1.714480e-001
4.489660e+003,1.678519e-001
4.493517e+003,1.720691e-001
4.497375e+003,1.769925e-001
4.501231e+003,1.744851e-001
4.505088e+003,1.745283e-001
4.508946e+003,1.699240e-001
4.512803e+003,1.659701e-001
4.516660e+003,1.690091e-001
4.520517e+003,1.701868e-001
4.524374e+003,1.663173e-001
4.528231e+003,1.621219e-001
4.532088e+003,1.662187e-001
4.535945e+003,1.651921e-001
4.539802e+003,1.614836e-001
4.543660e+003,1.644457e-001
4.547517e+003,1.734506e-001
4.551374e+003,1.704666e-001
4.555231e+003,1.657123e-001
4.559088e+003,1.637673e-001
4.562945e+003,1.647573e-001
4.566802e+003,1.645919e-001
4.570659e+003,1.674417e-001
4.574516e+003,1.649347e-001
4.578374e+003,1.634151e-001
4.582230e+003,1.644529e-001
4.586087e+003,1.610280e-001
4.589945e+003,1.561925e-001
4.593802e+003,1.598338e-001
4.597659e+003,1.637823e-001
4.601516e+003,1.677652e-001
4.605373e+003,1.608633e-001
4.609230e+003,1.541298e-001
4.613087e+003,1.610869e-001
4.616944e+003,1.661498e-001
4.620801e+003,1.626272e-001
4.624659e+003,1.658199e-001
4.628516e+003,1.634182e-001
4.632373e+003,1.582069e-001
4.636230e+003,1.573430e-001
4.640087e+003,1.587180e-001
4.643944e+003,1.578631e-001
4.647801e+003,1.603620e-001
4.651658e+003,1.654647e-001
4.655515e+003,1.661017e-001
4.659373e+003,1.549750e-001
4.663229e+003,1.477428e-001
4.667086e+003,1.540405e-001
4.670944e+003,1.597099e-001
4.674801e+003,1.603717e-001
4.678658e+003,1.632052e-001
4.682515e+003,1.645056e-001
4.686372e+003,1.621880e-001
4.690229e+003,1.596019e-001
4.694086e+003,1.614835e-001
4.697943e+003,1.665012e-001
4.701800e+003,1.636388e-001
4.705658e+003,1.653674e-001
4.709515e+003,1.678616e-001
4.713372e+003,1.616616e-001
4.717229e+003,1.609946e-001
4.721086e+003,1.588434e-001
4.724943e+003,1.552545e-001
4.728800e+003,1.551173e-001
4.732657e+003,1.563850e-001
4.736514e+003,1.584476e-001
4.740372e+003,1.522618e-001
4.744229e+003,1.530390e-001
4.748085e+003,1.592765e-001
4.751943e+003,1.664842e-001
4.755800e+003,1.626950e-001
4.759657e+003,1.652230e-001
4.763514e+003,1.653958e-001
4.767371e+003,1.551877e-001
4.771228e+003,1.512548e-001
4.775085e+003,1.521796e-001
4.778942e+003,1.544624e-001
4.782799e+003,1.575216e-001
4.786657e+003,1.575815e-001
4.790514e+003,1.639671e-001
4.794371e+003,1.663036e-001
4.798228e+003,1.651329e-001
4.802085e+003,1.716981e-001
4.805942e+003,1.670424e-001
4.809799e+003,1.618600e-001
4.813656e+003,1.648168e-001
4.817513e+003,1.594799e-001
4.821371e+003,1.590235e-001
4.825228e+003,1.582151e-001
4.829084e+003,1.511135e-001
4.832942e+003,1.525719e-001
4.836799e+003,1.562317e-001
4.840656e+003,1.579768e-001
4.844513e+003,1.671992e-001
4.848370e+003,1.661233e-001
4.852227e+003,1.579191e-001
4.856084e+003,1.568649e-001
4.859941e+003,1.553251e-001
4.863798e+003,1.513927e-001
4.867656e+003,1.516193e-001
4.871513e+003,1.513094e-001
4.875370e+003,1.532153e-001
4.879227e+003,1.578594e-001
4.883084e+003,1.593107e-001
4.886941e+003,1.513507e-001
4.890798e+003,1.523494e-001
4.894655e+003,1.576574e-001
4.898512e+003,1.617209e-001
4.902370e+003,1.625053e-001
4.906227e+003,1.610424e-001
4.910083e+003,1.631710e-001
4.913941e+003,1.586079e-001
4.917798e+003,1.486033e-001
4.921655e+003,1.503538e-001
4.925512e+003,1.578633e-001
4.929369e+003,1.596075e-001
4.933226e+003,1.598782e-001
4.937083e+003,1.605582e-001
4.940940e+003,1.636846e-001
4.944797e+003,1.638238e-001
4.948655e+003,1.515209e-001
4.952512e+003,1.465604e-001
4.956369e+003,1.567255e-001
4.960226e+003,1.647765e-001
4.964083e+003,1.596485e-001
4.967940e+003,1.562288e-001
4.971797e+003,1.532788e-001
4.975654e+003,1.587236e-001
4.979511e+003,1.659350e-001
4.983369e+003,1.604500e-001
4.987226e+003,1.539718e-001
4.991083e+003,1.593224e-001
4.994940e+003,1.678590e-001
4.998797e+003,1.692438e-001
5.002654e+003,1.667534e-001
5.006511e+003,1.620400e-001
5.010368e+003,1.599102e-001
5.014225e+003,1.617734e-001
5.018083e+003,1.663875e-001
5.021939e+003,1.662381e-001
5.025796e+003,1.580588e-001
5.029654e+003,1.660400e-001
5.033511e+003,1.687143e-001
5.037368e+003,1.574923e-001
5.041225e+003,1.587334e-001
5.045082e+003,1.558176e-001
5.048939e+003,1.487358e-001
5.052796e+003,1.514825e-001
5.056653e+003,1.539385e-001
5.060510e+003,1.564960e-001
5.064368e+003,1.601934e-001
5.068225e+003,1.628635e-001
5.072082e+003,1.661557e-001
5.075939e+003,1.612527e-001
5.079796e+003,1.603871e-001
5.083653e+003,1.649076e-001
5.087510e+003,1.602425e-001
5.091367e+003,1.605748e-001
5.095224e+003,1.645442e-001
5.099082e+003,1.627798e-001
5.102938e+003,1.545486e-001
5.106795e+003,1.503617e-001
5.110653e+003,1.599874e-001
5.114510e+003,1.594030e-001
5.118367e+003,1.553801e-001
5.122224e+003,1.697334e-001
5.126081e+003,1.724024e-001
5.129938e+003,1.635621e-001
5.133795e+003,1.658712e-001
5.137652e+003,1.653332e-001
5.141509e+003,1.613311e-001
5.145367e+003,1.602968e-001
5.149224e+003,1.603573e-001
5.153081e+003,1.673110e-001
5.156938e+003,1.683818e-001
5.160795e+003,1.606799e-001
5.164652e+003,1.579535e-001
5.168509e+003,1.646681e-001
5.172366e+003,1.737986e-001
5.176223e+003,1.705951e-001
5.180081e+003,1.676152e-001
5.183938e+003,1.617865e-001
5.187794e+003,1.612877e-001
5.191652e+003,1.674082e-001
5.195509e+003,1.711515e-001
5.199366e+003,1.669477e-001
5.203223e+003,1.607422e-001
5.207080e+003,1.606500e-001
5.210937e+003,1.633191e-001
5.214794e+003,1.657400e-001
5.218651e+003,1.698917e-001
5.222508e+003,1.695581e-001
5.226366e+003,1.681046e-001
5.230223e+003,1.646864e-001
5.234080e+003,1.590158e-001
5.237937e+003,1.546650e-001
5.241794e+003,1.568043e-001
5.245651e+003,1.528838e-001
5.249508e+003,1.457314e-001
5.253365e+003,1.485703e-001
5.257222e+003,1.561631e-001
5.261080e+003,1.617213e-001
5.264937e+003,1.543453e-001
5.268793e+003,1.506154e-001
5.272651e+003,1.528788e-001
5.276508e+003,1.499258e-001
5.280365e+003,1.550411e-001
5.284222e+003,1.599441e-001
5.288079e+003,1.617342e-001
5.291936e+003,1.619033e-001
5.295793e+003,1.589592e-001
5.299650e+003,1.452781e-001
5.303507e+003,1.464407e-001
5.307365e+003,1.500132e-001
5.311222e+003,1.412522e-001
5.315079e+003,1.364888e-001
5.318936e+003,1.418121e-001
5.322793e+003,1.494646e-001
5.326650e+003,1.494371e-001
5.330507e+003,1.473955e-001
5.334364e+003,1.517964e-001
5.338221e+003,1.553880e-001
5.342079e+003,1.503978e-001
5.345936e+003,1.474715e-001
5.349792e+003,1.565164e-001
5.353650e+003,1.568359e-001
5.357507e+003,1.480341e-001
5.361364e+003,1.462586e-001
5.365221e+003,1.469180e-001
5.369078e+003,1.523129e-001
5.372935e+003,1.612702e-001
5.376792e+003,1.586879e-001
5.380649e+003,1.555639e-001
5.384506e+003,1.520197e-001
5.388364e+003,1.513099e-001
5.392221e+003,1.553147e-001
5.396078e+003,1.522637e-001
5.399935e+003,1.458494e-001
5.403792e+003,1.534228e-001
5.407649e+003,1.521354e-001
5.411506e+003,1.449606e-001
5.415363e+003,1.526354e-001
5.419220e+003,1.623121e-001
5.423078e+003,1.582027e-001
5.426935e+003,1.447767e-001
5.430792e+003,1.423452e-001
5.434649e+003,1.503743e-001
5.438506e+003,1.535532e-001
5.442363e+003,1.558055e-001
5.446220e+003,1.625873e-001
5.450077e+003,1.581391e-001
5.453934e+003,1.539335e-001
5.457792e+003,1.496189e-001
5.461648e+003,1.467671e-001
5.465505e+003,1.450557e-001
5.469363e+003,1.389618e-001
5.473220e+003,1.366414e-001
5.477077e+003,1.370275e-001
5.480934e+003,1.361952e-001
5.484791e+003,1.441163e-001
5.488648e+003,1.544991e-001
5.492505e+003,1.572488e-001
5.496362e+003,1.574696e-001
5.500219e+003,1.550347e-001
5.504077e+003,1.446223e-001
5.507934e+003,1.503442e-001
5.511791e+003,1.565329e-001
5.515648e+003,1.603554e-001
5.519505e+003,1.624559e-001
5.523362e+003,1.594520e-001
5.527219e+003,1.511184e-001
5.531076e+003,1.490803e-001
5.534933e+003,1.432365e-001
5.538791e+003,1.362355e-001
5.542647e+003,1.389811e-001
5.546504e+003,1.473161e-001
5.550362e+003,1.572962e-001
5.554219e+003,1.615988e-001
5.558076e+003,1.538086e-001
5.561933e+003,1.490683e-001
5.565790e+003,1.520679e-001
5.569647e+003,1.560079e-001
5.573504e+003,1.569348e-001
5.577361e+003,1.539259e-001
5.581218e+003,1.496771e-001
5.585076e+003,1.489432e-001
5.588933e+003,1.561349e-001
5.592790e+003,1.635127e-001
5.596647e+003,1.598285e-001
5.600504e+003,1.562600e-001
5.604361e+003,1.503185e-001
5.608218e+003,1.480631e-001
5.612075e+003,1.459081e-001
5.615932e+003,1.359184e-001
5.619790e+003,1.386583e-001
5.623646e+003,1.506492e-001
5.627503e+003,1.552516e-001
5.631361e+003,1.546909e-001
5.635218e+003,1.462473e-001
5.639075e+003,1.433865e-001
5.642932e+003,1.458192e-001
5.646789e+003,1.384542e-001
5.650646e+003,1.297414e-001
5.654503e+003,1.364535e-001
5.658360e+003,1.430934e-001
5.662217e+003,1.388152e-001
5.666075e+003,1.398664e-001
5.669932e+003,1.413541e-001
5.673789e+003,1.399564e-001
5.677646e+003,1.422784e-001
5.681503e+003,1.476425e-001
5.685360e+003,1.457701e-001
5.689217e+003,1.512410e-001
5.693074e+003,1.456292e-001
5.696931e+003,1.326199e-001
5.700789e+003,1.405557e-001
5.704646e+003,1.542249e-001
5.708502e+003,1.591808e-001
5.712360e+003,1.543142e-001
5.716217e+003,1.492718e-001
5.720074e+003,1.464871e-001
5.723931e+003,1.404057e-001
5.727788e+003,1.408999e-001
5.731645e+003,1.436485e-001
5.735502e+003,1.421182e-001
5.739359e+003,1.478286e-001
5.743216e+003,1.493007e-001
5.747074e+003,1.463794e-001
5.750931e+003,1.515649e-001
5.754788e+003,1.530010e-001
5.758645e+003,1.527943e-001
5.762502e+003,1.482063e-001
5.766359e+003,1.423700e-001
5.770216e+003,1.415153e-001
5.774073e+003,1.409901e-001
5.777930e+003,1.402884e-001
5.781788e+003,1.521363e-001
5.785645e+003,1.611509e-001
5.789501e+003,1.595956e-001
5.793359e+003,1.492331e-001
5.797216e+003,1.423588e-001
5.801073e+003,1.468737e-001
5.804930e+003,1.427085e-001
5.808787e+003,1.447388e-001
5.812644e+003,1.493743e-001
5.816501e+003,1.423203e-001
5.820358e+003,1.380980e-001
5.824215e+003,1.385473e-001
5.828073e+003,1.385880e-001
5.831930e+003,1.347658e-001
5.835787e+003,1.421773e-001
5.839644e+003,1.406783e-001
5.843501e+003,1.373420e-001
5.847358e+003,1.326185e-001
5.851215e+003,1.334018e-001
5.855072e+003,1.399977e-001
5.858929e+003,1.390208e-001
5.862787e+003,1.437259e-001
5.866644e+003,1.445767e-001
5.870500e+003,1.423736e-001
5.874358e+003,1.457039e-001
5.878215e+003,1.451056e-001
5.882072e+003,1.372243e-001
5.885929e+003,1.339111e-001
5.889786e+003,1.402731e-001
5.893643e+003,1.472257e-001
5.897500e+003,1.408415e-001
5.901357e+003,1.313008e-001
5.905214e+003,1.335906e-001
5.909072e+003,1.351093e-001
5.912929e+003,1.297307e-001
5.916786e+003,1.257294e-001
5.920643e+003,1.332455e-001
5.924500e+003,1.488158e-001
5.928357e+003,1.514390e-001
5.932214e+003,1.495848e-001
5.936071e+003,1.459569e-001
5.939928e+003,1.419023e-001
5.943786e+003,1.371574e-001
5.947643e+003,1.322254e-001
5.951500e+003,1.351367e-001
5.955357e+003,1.340282e-001
5.959214e+003,1.310593e-001
5.963071e+003,1.433060e-001
5.966928e+003,1.449593e-001
5.970785e+003,1.379268e-001
5.974642e+003,1.313552e-001
5.978500e+003,1.352147e-001
5.982356e+003,1.474043e-001
5.986213e+003,1.606158e-001
5.990071e+003,1.505809e-001
5.993928e+003,1.357464e-001
5.997785e+003,1.392770e-001
6.001642e+003,1.444210e-001
6.005499e+003,1.429046e-001
6.009356e+003,1.410333e-001
6.013213e+003,1.347080e-001
6.017070e+003,1.295832e-001
6.020927e+003,1.307146e-001
6.024785e+003,1.316711e-001
6.028642e+003,1.306466e-001
6.032499e+003,1.337328e-001
6.036356e+003,1.324161e-001
6.040213e+003,1.331995e-001
6.044070e+003,1.336822e-001
6.047927e+003,1.388724e-001
6.051784e+003,1.373540e-001
6.055641e+003,1.347902e-001
6.059499e+003,1.484770e-001
6.063355e+003,1.467732e-001
6.067212e+003,1.396170e-001
6.071070e+003,1.378038e-001
6.074927e+003,1.303229e-001
6.078784e+003,1.319069e-001
6.082641e+003,1.349676e-001
6.086498e+003,1.330415e-001
6.090355e+003,1.289088e-001
6.094212e+003,1.306906e-001
6.098069e+003,1.420280e-001
6.101926e+003,1.362147e-001
6.105784e+003,1.240493e-001
6.109641e+003,1.242385e-001
6.113498e+003,1.197662e-001
6.117355e+003,1.141763e-001
6.121212e+003,1.178179e-001
6.125069e+003,1.244856e-001
6.128926e+003,1.330273e-001
6.132783e+003,1.346206e-001
6.136640e+003,1.313042e-001
6.140498e+003,1.370028e-001
6.144354e+003,1.438299e-001
6.148211e+003,1.512745e-001
6.152069e+003,1.451863e-001
6.155926e+003,1.300670e-001
6.159783e+003,1.156446e-001
6.163640e+003,1.245524e-001
6.167497e+003,1.409121e-001
6.171354e+003,1.391702e-001
6.175211e+003,1.363506e-001
6.179068e+003,1.320373e-001
6.182925e+003,1.227030e-001
6.186783e+003,1.201982e-001
6.190640e+003,1.358086e-001
6.194497e+003,1.415780e-001
6.198354e+003,1.308891e-001
6.202211e+003,1.224587e-001
6.206068e+003,1.202858e-001
6.209925e+003,1.185817e-001
6.213782e+003,1.298900e-001
6.217639e+003,1.408522e-001
6.221497e+003,1.396497e-001
6.225354e+003,1.281549e-001
6.229210e+003,1.236497e-001
6.233068e+003,1.343572e-001
6.236925e+003,1.256214e-001
6.240782e+003,1.125844e-001
6.244639e+003,1.210463e-001
6.248496e+003,1.338699e-001
6.252353e+003,1.406180e-001
6.256210e+003,1.390948e-001
6.260067e+003,1.308195e-001
6.263924e+003,1.275321e-001
6.267782e+003,1.328800e-001
6.271639e+003,1.434500e-001
6.275496e+003,1.397250e-001
6.279353e+003,1.327939e-001
6.283210e+003,1.416279e-001
6.287067e+003,1.369315e-001
6.290924e+003,1.243415e-001
6.294781e+003,1.196679e-001
6.298638e+003,1.293016e-001
6.302496e+003,1.438503e-001
6.306353e+003,1.401735e-001
6.310209e+003,1.348700e-001
6.314067e+003,1.199891e-001
6.317924e+003,1.228172e-001
6.321781e+003,1.335480e-001
6.325638e+003,1.345523e-001
6.329495e+003,1.301991e-001
6.333352e+003,1.243165e-001
6.337209e+003,1.285361e-001
6.341066e+003,1.302506e-001
6.344923e+003,1.365793e-001
6.348780e+003,1.359384e-001
6.352638e+003,1.335466e-001
6.356495e+003,1.308843e-001
6.360352e+003,1.281440e-001
6.364209e+003,1.238460e-001
6.368066e+003,1.213692e-001
6.371923e+003,1.357016e-001
6.375780e+003,1.394389e-001
6.379637e+003,1.339166e-001
6.383494e+003,1.292513e-001
6.387352e+003,1.213336e-001
6.391208e+003,1.235948e-001
6.395065e+003,1.302854e-001
6.398923e+003,1.236934e-001
6.402780e+003,1.157983e-001
6.406637e+003,1.173304e-001
6.410494e+003,1.306695e-001
6.414351e+003,1.311677e-001
6.418208e+003,1.131254e-001
6.422065e+003,1.162499e-001
6.425922e+003,1.278048e-001
6.429779e+003,1.324939e-001
6.433637e+003,1.269466e-001
6.437494e+003,1.207043e-001
6.441351e+003,1.282978e-001
6.445208e+003,1.361749e-001
6.449065e+003,1.289318e-001
6.452922e+003,1.378847e-001
6.456779e+003,1.433619e-001
6.460636e+003,1.401808e-001
6.464493e+003,1.325451e-001
6.468351e+003,1.185766e-001
6.472208e+003,1.150092e-001
6.476064e+003,1.305196e-001
6.479922e+003,1.340877e-001
6.483779e+003,1.242105e-001
6.487636e+003,1.423852e-001
6.491493e+003,1.502351e-001
6.495350e+003,1.364180e-001
6.499207e+003,1.324683e-001
6.503064e+003,1.345750e-001
6.506921e+003,1.351046e-001
6.510778e+003,1.351317e-001
6.514636e+003,1.291403e-001
6.518493e+003,1.397446e-001
6.522350e+003,1.461321e-001
6.526207e+003,1.445560e-001
6.530064e+003,1.446867e-001
6.533921e+003,1.495135e-001
6.537778e+003,1.417491e-001
6.541635e+003,1.407418e-001
6.545492e+003,1.396433e-001
6.549350e+003,1.261778e-001
6.553207e+003,1.277041e-001
6.557063e+003,1.401728e-001
6.560921e+003,1.307814e-001
6.564778e+003,1.319641e-001
6.568635e+003,1.466628e-001
6.572492e+003,1.408998e-001
6.576349e+003,1.252783e-001
6.580206e+003,1.246077e-001
6.584063e+003,1.502345e-001
6.587920e+003,1.574513e-001
6.591777e+003,1.391241e-001
6.595635e+003,1.219610e-001
6.599492e+003,1.292567e-001
6.603349e+003,1.334155e-001
6.607206e+003,1.207310e-001
6.611063e+003,1.223439e-001
6.614920e+003,1.422452e-001
6.618777e+003,1.512318e-001
6.622634e+003,1.401456e-001
6.626491e+003,1.342690e-001
6.630349e+003,1.291650e-001
6.634206e+003,1.467491e-001
6.638063e+003,1.476020e-001
6.641920e+003,1.324410e-001
6.645777e+003,1.292703e-001
6.649634e+003,1.281661e-001
6.653491e+003,1.318748e-001
6.657348e+003,1.374408e-001
6.661205e+003,1.194290e-001
6.665063e+003,1.242920e-001
6.668919e+003,1.485559e-001
6.672776e+003,1.418151e-001
6.676634e+003,1.214426e-001
6.680491e+003,1.164213e-001
6.684348e+003,1.243732e-001
6.688205e+003,1.305437e-001
6.692062e+003,1.396525e-001
6.695919e+003,1.345222e-001
6.699776e+003,1.258027e-001
6.703633e+003,1.289375e-001
6.707490e+003,1.313853e-001
6.711348e+003,1.270480e-001
6.715205e+003,1.317914e-001
6.719062e+003,1.338215e-001
6.722919e+003,1.371450e-001
6.726776e+003,1.406896e-001
6.730633e+003,1.351874e-001
6.734490e+003,1.370288e-001
6.738347e+003,1.352176e-001
6.742204e+003,1.343066e-001
6.746062e+003,1.268524e-001
6.749918e+003,1.412769e-001
6.753775e+003,1.443299e-001
6.757633e+003,1.457767e-001
6.761490e+003,1.242414e-001
6.765347e+003,1.077913e-001
6.769204e+003,1.128884e-001
6.773061e+003,1.149424e-001
6.776918e+003,1.281050e-001
6.780775e+003,1.468757e-001
6.784632e+003,1.468465e-001
6.788489e+003,1.449378e-001
6.792347e+003,1.506003e-001
6.796204e+003,1.483115e-001
6.800061e+003,1.297609e-001
6.803918e+003,1.450308e-001
6.807775e+003,1.438841e-001
6.811632e+003,1.328081e-001
6.815489e+003,1.468361e-001
6.819346e+003,1.605393e-001
6.823203e+003,1.486331e-001
6.827061e+003,1.454567e-001
6.830917e+003,1.583815e-001
6.834774e+003,1.626550e-001
6.838632e+003,1.553965e-001
6.842489e+003,1.531761e-001
6.846346e+003,1.477460e-001
6.850203e+003,1.376798e-001
6.854060e+003,1.288881e-001
6.857917e+003,1.298396e-001
6.861774e+003,1.394348e-001
6.865631e+003,1.408024e-001
6.869488e+003,1.395555e-001
6.873346e+003,1.379708e-001
6.877203e+003,1.285965e-001
6.881060e+003,1.137291e-001
6.884917e+003,1.269549e-001
6.888774e+003,1.412092e-001
6.892631e+003,1.379475e-001
6.896488e+003,1.358296e-001
6.900345e+003,1.255496e-001
6.904202e+003,1.297808e-001
6.908060e+003,1.410300e-001
6.911917e+003,1.439393e-001
6.915773e+003,1.464522e-001
6.919631e+003,1.348750e-001
6.923488e+003,1.326169e-001
6.927345e+003,1.462911e-001
6.931202e+003,1.515962e-001
6.935059e+003,1.476639e-001
6.938916e+003,1.432345e-001
6.942773e+003,1.381461e-001
6.946630e+003,1.276970e-001
6.950487e+003,1.251105e-001
6.954345e+003,1.482513e-001
6.958202e+003,1.510346e-001
6.962059e+003,1.393853e-001
6.965916e+003,1.344412e-001
6.969773e+003,1.391239e-001
6.973630e+003,1.575369e-001
6.977487e+003,1.661047e-001
6.981344e+003,1.679959e-001
6.985201e+003,1.562028e-001
6.989059e+003,1.653779e-001
6.992916e+003,1.749420e-001
6.996772e+003,1.608078e-001
7.000630e+003,1.460897e-001
7.004487e+003,1.262760e-001
7.008344e+003,1.464887e-001
7.012201e+003,1.604309e-001
7.016058e+003,1.606961e-001
7.019915e+003,1.712336e-001
7.023772e+003,1.657054e-001
7.027629e+003,1.717785e-001
7.031486e+003,1.558761e-001
7.035344e+003,1.273458e-001
7.039201e+003,1.313212e-001
7.043058e+003,1.492711e-001
7.046915e+003,1.466258e-001
7.050772e+003,1.426693e-001
7.054629e+003,1.451096e-001
7.058486e+003,1.401420e-001
7.062343e+003,1.286592e-001
7.066200e+003,1.400568e-001
7.070058e+003,1.601556e-001
7.073915e+003,1.492873e-001
7.077771e+003,1.466994e-001
7.081629e+003,1.438432e-001
7.085486e+003,1.590505e-001
7.089343e+003,1.674079e-001
7.093200e+003,1.472392e-001
7.097057e+003,1.492063e-001
7.100914e+003,1.359448e-001
7.104771e+003,1.226619e-001
7.108628e+003,1.311810e-001
7.112485e+003,1.659122e-001
7.116343e+003,1.588157e-001
7.120200e+003,1.565299e-001
7.124057e+003,1.632873e-001
7.127914e+003,1.782069e-001
7.131771e+003,1.872871e-001
7.135628e+003,1.795786e-001
7.139485e+003,1.442371e-001
7.143342e+003,1.295291e-001
7.147199e+003,1.462633e-001
7.151057e+003,1.549845e-001
7.154914e+003,1.627405e-001
7.158771e+003,1.584435e-001
7.162628e+003,1.537703e-001
7.166485e+003,1.609586e-001
7.170342e+003,1.652269e-001
7.174199e+003,1.813646e-001
7.178056e+003,1.633695e-001
7.181913e+003,1.521416e-001
7.185771e+003,1.681189e-001
7.189627e+003,1.675111e-001
7.193484e+003,1.615036e-001
7.197342e+003,1.578873e-001
7.201199e+003,1.668574e-001
7.205056e+003,1.679054e-001
7.208913e+003,1.574805e-001
7.212770e+003,1.488311e-001
7.216627e+003,1.571538e-001
7.220484e+003,1.782063e-001
7.224341e+003,1.811656e-001
7.228198e+003,1.627981e-001
7.232056e+003,1.598605e-001
7.235913e+003,1.524272e-001
7.239770e+003,1.345039e-001
7.243627e+003,1.414503e-001
7.247484e+003,1.526541e-001
7.251341e+003,1.548454e-001
7.255198e+003,1.503122e-001
7.259055e+003,1.433774e-001
7.262912e+003,1.386171e-001
7.266770e+003,1.611028e-001
7.270626e+003,1.904639e-001
7.274483e+003,1.576208e-001
7.278341e+003,1.793210e-001
7.282198e+003,2.101020e-001
7.286055e+003,1.519359e-001
7.289912e+003,1.113730e-001
7.293769e+003,1.447565e-001
7.297626e+003,1.716060e-001
7.301483e+003,1.697684e-001
7.305340e+003,1.901167e-001
7.309197e+003,1.814603e-001
7.313055e+003,1.393024e-001
7.316912e+003,1.222157e-001
7.320769e+003,1.529295e-001
7.324626e+003,1.905975e-001
7.328483e+003,1.886284e-001
7.332340e+003,1.709002e-001
7.336197e+003,1.684275e-001
7.340054e+003,1.609194e-001
7.343911e+003,1.130042e-001
7.347769e+003,8.958144e-002
7.351625e+003,1.352247e-001
7.355482e+003,1.216536e-001
7.359340e+003,1.158655e-001
7.363197e+003,1.600508e-001
7.367054e+003,1.708648e-001
7.370911e+003,1.701985e-001
7.374768e+003,1.590782e-001
7.378625e+003,1.470650e-001
7.382482e+003,1.296615e-001
7.386339e+003,1.866410e-001
7.390196e+003,1.844807e-001
7.394054e+003,1.131278e-001
7.397911e+003,1.255422e-001
7.401768e+003,1.760862e-001
7.405625e+003,1.526428e-001
7.409482e+003,1.643584e-001
7.413339e+003,1.807718e-001
7.417196e+003,1.839766e-001
7.421053e+003,1.516963e-001
7.424910e+003,1.417276e-001
7.428768e+003,1.438114e-001
7.432625e+003,1.521904e-001
7.436481e+003,1.828422e-001
7.440339e+003,1.856907e-001
7.444196e+003,1.592425e-001
7.448053e+003,1.515390e-001
7.451910e+003,1.250930e-001
7.455767e+003,1.689631e-001
7.459624e+003,2.142434e-001
7.463481e+003,1.825352e-001
7.467338e+003,1.678111e-001
7.471195e+003,1.380617e-001
7.475053e+003,1.017870e-001
7.478910e+003,1.615137e-001
7.482767e+003,1.752023e-001
7.486624e+003,1.689127e-001
7.490481e+003,1.795452e-001
7.494338e+003,2.115814e-001
7.498195e+003,2.112279e-001
7.502052e+003,1.923620e-001
7.505909e+003,1.433215e-001
7.509767e+003,1.465363e-001
7.513624e+003,1.766847e-001
7.517480e+003,1.468965e-001
7.521338e+003,1.758884e-001
7.525195e+003,2.333354e-001
7.529052e+003,2.357270e-001
7.532909e+003,2.307103e-001
7.536766e+003,1.946734e-001
7.540623e+003,1.541972e-001
7.544480e+003,1.680440e-001
7.548337e+003,1.902604e-001
7.552194e+003,1.898573e-001
7.556052e+003,1.553329e-001
7.559909e+003,1.088846e-001
7.563766e+003,1.350990e-001
7.567623e+003,1.493267e-001
7.571480e+003,1.588915e-001
7.575337e+003,1.706833e-001
7.579194e+003,1.575218e-001
7.583051e+003,1.501991e-001
7.586908e+003,1.725942e-001
7.590766e+003,2.059317e-001
7.594623e+003,1.987453e-001
7.598479e+003,1.498822e-001
7.602337e+003,1.297422e-001
7.606194e+003,1.343654e-001
7.610051e+003,1.095688e-001
7.613908e+003,1.299480e-001
7.617765e+003,1.825582e-001
7.621622e+003,1.980124e-001
7.625479e+003,2.047346e-001
7.629336e+003,1.654763e-001
7.633193e+003,1.621186e-001
7.637051e+003,1.767726e-001
7.640908e+003,2.062050e-001
7.644765e+003,2.266466e-001
7.648622e+003,1.685625e-001
7.652479e+003,1.565877e-001
7.656336e+003,1.980629e-001
7.660193e+003,1.479527e-001
7.664050e+003,1.698323e-001
7.667907e+003,2.302485e-001
7.671765e+003,1.751216e-001
7.675622e+003,1.177443e-001
7.679479e+003,1.171607e-001
7.683336e+003,1.731081e-001
7.687193e+003,2.255147e-001
7.691050e+003,1.845806e-001
7.694907e+003,2.836873e-001
7.698764e+003,3.208259e-001
7.702621e+003,2.373827e-001
7.706479e+003,1.832957e-001
7.710335e+003,1.345951e-001
7.714192e+003,1.863334e-001
7.718050e+003,2.103972e-001
7.721907e+003,1.859442e-001
7.725764e+003,1.208950e-001
7.729621e+003,1.660123e-001
7.733478e+003,2.168927e-001
7.737335e+003,2.626204e-001
7.741192e+003,2.631685e-001
7.745049e+003,2.069422e-001
7.748906e+003,1.581678e-001
7.752764e+003,1.962781e-001
7.756621e+003,2.557506e-001
7.760478e+003,1.928800e-001
7.764335e+003,1.146095e-001
7.768192e+003,1.462708e-001
7.772049e+003,2.145886e-001
7.775906e+003,2.338964e-001
7.779763e+003,2.096677e-001
7.783620e+003,2.056361e-001
7.787478e+003,2.187559e-001
7.791334e+003,2.246117e-001
7.795191e+003,2.132817e-001
7.799049e+003,2.381009e-001
7.802906e+003,2.057252e-001
7.806763e+003,1.033085e-001
7.810620e+003,1.045964e-001
7.814477e+003,1.927067e-001
7.818334e+003,2.214606e-001
7.822191e+003,1.178185e-001
7.826048e+003,1.020497e-001
7.829905e+003,1.509132e-001
7.833763e+003,2.012531e-001
7.837620e+003,2.273891e-001
7.841477e+003,2.088922e-001
7.845334e+003,1.845167e-001
7.849191e+003,1.453833e-001
7.853048e+003,1.623033e-001
7.856905e+003,2.604999e-001
7.860762e+003,2.213384e-001
7.864619e+003,1.669119e-001
7.868477e+003,1.722345e-001
7.872333e+003,2.686236e-001
7.876190e+003,2.328945e-001
7.880048e+003,2.327593e-001
7.883905e+003,2.720758e-001
7.887762e+003,2.506485e-001
7.891619e+003,1.901955e-001
7.895476e+003,1.731372e-001
7.899333e+003,1.580163e-001
7.903190e+003,1.623451e-001
7.907047e+003,2.463701e-001
7.910904e+003,1.719227e-001
7.914762e+003,5.395013e-002
7.918619e+003,1.457804e-001
7.922476e+003,4.204009e-001
7.926333e+003,3.072440e-001
7.930190e+003,2.072714e-001
7.934047e+003,2.230790e-001
7.937904e+003,1.271009e-001
7.941761e+003,4.667122e-002
7.945618e+003,9.437970e-002
7.949476e+003,1.395659e-001
7.953333e+003,1.478964e-001
7.957189e+003,1.333178e-001
7.961047e+003,8.033571e-002
7.964904e+003,1.574086e-001
7.968761e+003,2.511783e-001
7.972618e+003,2.405067e-001
7.976475e+003,1.833540e-001
7.980332e+003,1.690335e-001
7.984189e+003,1.648765e-001
7.988046e+003,2.109093e-001
7.991903e+003,2.213197e-001
7.995761e+003,1.812807e-001
7.999618e+003,3.048994e-001
