4.011380e+002,3.661461e-002
4.049951e+002,-2.444562e-001
4.088522e+002,6.000000e+000
4.127093e+002,6.000000e+000
4.165664e+002,6.000000e+000
4.204235e+002,-9.913655e-001
4.242806e+002,6.000000e+000
4.281377e+002,8.916255e-001
4.319948e+002,6.000000e+000
4.358519e+002,6.000000e+000
4.397090e+002,-1.979553e-001
4.435661e+002,6.000000e+000
4.474232e+002,6.000000e+000
4.512803e+002,1.522952e+000
4.551374e+002,6.000000e+000
4.589945e+002,6.000000e+000
4.628516e+002,6.000000e+000
4.667087e+002,6.000000e+000
4.705658e+002,6.000000e+000
4.744229e+002,6.000000e+000
4.782800e+002,6.000000e+000
4.821371e+002,7.509298e-001
4.859941e+002,6.000000e+000
4.898513e+002,6.000000e+000
4.937083e+002,6.000000e+000
4.975654e+002,6.000000e+000
5.014225e+002,6.000000e+000
5.052796e+002,3.948548e-001
5.091367e+002,6.000000e+000
5.129938e+002,6.000000e+000
5.168509e+002,-3.803102e-001
5.207080e+002,-4.545197e-001
5.245651e+002,6.000000e+000
5.284222e+002,-1.361578e-001
5.322793e+002,6.000000e+000
5.361364e+002,6.000000e+000
5.399935e+002,5.555600e-001
5.438506e+002,6.000000e+000
5.477077e+002,6.000000e+000
5.515648e+002,4.439309e-001
5.554219e+002,6.000000e+000
5.592790e+002,2.220121e-001
5.631361e+002,6.000000e+000
5.669932e+002,-4.637469e-001
5.708503e+002,2.290855e-001
5.747074e+002,6.000000e+000
5.785645e+002,3.883571e-001
5.824216e+002,1.017758e+000
5.862787e+002,4.967233e-001
5.901357e+002,1.724346e-001
5.939929e+002,-7.129670e-001
5.978499e+002,-2.857831e-001
6.017070e+002,-2.067936e-001
6.055641e+002,6.000000e+000
6.094212e+002,6.000000e+000
6.132783e+002,2.158608e-001
6.171354e+002,6.000000e+000
6.209925e+002,6.000000e+000
6.248496e+002,6.000000e+000
6.287067e+002,6.000000e+000
6.325638e+002,6.000000e+000
6.364209e+002,6.000000e+000
6.402780e+002,6.000000e+000
6.441351e+002,6.000000e+000
6.479922e+002,6.000000e+000
6.518493e+002,-3.181535e-002
6.557064e+002,-2.746702e-001
6.595635e+002,-7.593154e-001
6.634205e+002,-1.804863e+000
6.672777e+002,-3.077430e-001
6.711348e+002,6.000000e+000
6.749918e+002,6.000000e+000
6.788490e+002,6.000000e+000
6.827061e+002,-7.520276e-001
6.865631e+002,5.962378e-001
6.904203e+002,1.629474e-001
6.942773e+002,-1.128869e-001
6.981344e+002,6.000000e+000
7.019916e+002,6.000000e+000
7.058486e+002,1.756554e-001
7.097057e+002,7.270171e-002
7.135629e+002,4.055847e-001
7.174199e+002,6.000000e+000
7.212770e+002,6.000000e+000
7.251342e+002,2.792497e-001
7.289912e+002,7.292540e-002
7.328483e+002,2.796356e-001
7.367054e+002,4.308643e-001
7.405625e+002,5.542023e-001
7.444196e+002,6.000000e+000
7.482767e+002,6.409742e-001
7.521338e+002,-4.882513e-001
7.559908e+002,-4.688393e-001
7.598480e+002,-3.607061e-001
7.637051e+002,2.770705e-002
7.675621e+002,3.329690e-001
7.714193e+002,6.000000e+000
7.752764e+002,-4.726476e-002
7.791334e+002,6.000000e+000
7.829905e+002,-7.711753e-001
7.868477e+002,-6.085411e-001
7.907047e+002,6.000000e+000
7.945618e+002,6.000000e+000
7.984189e+002,6.000000e+000
8.022760e+002,6.000000e+000
8.061331e+002,6.000000e+000
8.099902e+002,6.000000e+000
8.138473e+002,-1.063235e+000
8.177044e+002,2.604496e-001
8.215615e+002,7.069634e-001
8.254186e+002,3.916866e-001
8.292757e+002,4.676241e-001
8.331328e+002,8.635812e-001
8.369899e+002,7.016292e-001
8.408470e+002,7.066765e-001
8.447041e+002,8.023772e-001
8.485612e+002,3.733061e-001
8.524183e+002,1.098304e+000
8.562754e+002,6.000000e+000
8.601324e+002,6.000000e+000
8.639896e+002,1.253348e+000
8.678467e+002,1.126509e+000
8.717037e+002,7.337331e-001
8.755609e+002,1.042579e+000
8.794180e+002,6.000000e+000
8.832750e+002,6.000000e+000
8.871321e+002,2.119747e+000
8.909893e+002,6.000000e+000
8.948463e+002,6.000000e+000
8.987034e+002,1.131094e+000
9.025605e+002,1.199422e+000
9.064176e+002,3.367057e+000
9.102747e+002,6.000000e+000
9.141318e+002,6.000000e+000
9.179889e+002,6.000000e+000
9.218461e+002,1.519818e+000
9.257031e+002,1.249405e+000
9.295602e+002,1.541541e+000
9.334174e+002,6.000000e+000
9.372744e+002,2.467482e+000
9.411315e+002,3.816696e+000
9.449886e+002,6.000000e+000
9.488457e+002,6.000000e+000
9.527028e+002,2.187003e+000
9.565599e+002,1.641292e+000
9.604170e+002,1.846370e+000
9.642740e+002,1.489390e+000
9.681312e+002,1.433967e+000
9.719883e+002,1.744760e+000
9.758453e+002,6.000000e+000
9.797025e+002,6.000000e+000
9.835596e+002,6.000000e+000
9.874166e+002,2.016819e+000
9.912738e+002,2.213673e+000
9.951309e+002,3.622416e+000
9.989879e+002,6.000000e+000
1.002845e+003,6.000000e+000
1.006702e+003,6.000000e+000
1.010559e+003,2.055653e+000
1.014416e+003,2.002101e+000
1.018273e+003,2.009366e+000
1.022130e+003,1.982597e+000
1.025988e+003,2.312139e+000
1.029845e+003,6.000000e+000
1.033702e+003,1.842433e+000
1.037559e+003,1.590328e+000
1.041416e+003,1.661912e+000
1.045273e+003,1.605387e+000
1.049130e+003,1.375648e+000
1.052987e+003,1.402930e+000
1.056844e+003,1.500772e+000
1.060702e+003,1.607469e+000
1.064559e+003,1.632057e+000
1.068416e+003,1.514092e+000
1.072273e+003,1.516335e+000
1.076130e+003,1.887779e+000
1.079987e+003,2.092625e+000
1.083844e+003,1.789095e+000
1.087701e+003,1.675819e+000
1.091558e+003,1.753901e+000
1.095415e+003,1.526018e+000
1.099272e+003,1.438542e+000
1.103130e+003,1.495451e+000
1.106987e+003,1.538461e+000
1.110844e+003,1.411841e+000
1.114701e+003,1.369512e+000
1.118558e+003,1.375959e+000
1.122415e+003,1.412107e+000
1.126272e+003,1.448128e+000
1.130129e+003,1.479370e+000
1.133986e+003,1.448208e+000
1.137843e+003,1.338167e+000
1.141701e+003,1.403812e+000
1.145558e+003,1.474792e+000
1.149415e+003,1.457219e+000
1.153272e+003,1.432146e+000
1.157129e+003,1.340640e+000
1.160986e+003,1.280199e+000
1.164843e+003,1.377899e+000
1.168700e+003,1.386469e+000
1.172557e+003,1.368035e+000
1.176414e+003,1.331968e+000
1.180271e+003,1.322928e+000
1.184129e+003,1.355512e+000
1.187986e+003,1.339241e+000
1.191843e+003,1.252886e+000
1.195700e+003,1.266677e+000
1.199557e+003,1.283711e+000
1.203414e+003,1.253583e+000
1.207271e+003,1.248837e+000
1.211128e+003,1.194268e+000
1.214985e+003,1.118827e+000
1.218842e+003,1.080045e+000
1.222699e+003,1.026505e+000
1.226557e+003,9.835143e-001
1.230414e+003,9.263739e-001
1.234271e+003,8.505151e-001
1.238128e+003,8.080074e-001
1.241985e+003,7.697604e-001
1.245842e+003,7.309725e-001
1.249699e+003,7.029589e-001
1.253556e+003,6.746583e-001
1.257413e+003,6.513739e-001
1.261271e+003,6.378471e-001
1.265128e+003,6.075426e-001
1.268985e+003,5.793239e-001
1.272842e+003,5.603967e-001
1.276699e+003,5.474474e-001
1.280556e+003,5.400964e-001
1.284413e+003,5.292679e-001
1.288270e+003,5.184131e-001
1.292127e+003,5.037246e-001
1.295984e+003,4.950313e-001
1.299841e+003,4.879754e-001
1.303698e+003,4.732812e-001
1.307556e+003,4.626070e-001
1.311413e+003,4.591450e-001
1.315270e+003,4.500023e-001
1.319127e+003,4.435219e-001
1.322984e+003,4.423273e-001
1.326841e+003,4.415161e-001
1.330698e+003,4.374290e-001
1.334555e+003,4.306156e-001
1.338412e+003,4.284580e-001
1.342270e+003,4.336308e-001
1.346127e+003,4.282728e-001
1.349984e+003,4.164848e-001
1.353841e+003,4.134484e-001
1.357698e+003,4.085780e-001
1.361555e+003,4.036858e-001
1.365412e+003,4.042866e-001
1.369269e+003,4.138956e-001
1.373126e+003,4.282001e-001
1.376983e+003,4.316429e-001
1.380840e+003,4.462919e-001
1.384698e+003,4.650421e-001
1.388555e+003,4.738977e-001
1.392412e+003,4.905394e-001
1.396269e+003,5.035638e-001
1.400126e+003,5.059534e-001
1.403983e+003,5.131165e-001
1.407840e+003,5.194855e-001
1.411697e+003,5.291160e-001
1.415554e+003,5.506881e-001
1.419411e+003,5.609966e-001
1.423269e+003,5.640475e-001
1.427126e+003,5.639920e-001
1.430983e+003,5.647265e-001
1.434840e+003,5.584289e-001
1.438697e+003,5.577604e-001
1.442554e+003,5.589458e-001
1.446411e+003,5.645937e-001
1.450268e+003,5.605705e-001
1.454125e+003,5.489969e-001
1.457982e+003,5.411159e-001
1.461839e+003,5.388262e-001
1.465697e+003,5.320418e-001
1.469554e+003,5.250769e-001
1.473411e+003,5.271582e-001
1.477268e+003,5.269498e-001
1.481125e+003,5.275919e-001
1.484982e+003,5.298740e-001
1.488839e+003,5.384175e-001
1.492696e+003,5.455722e-001
1.496553e+003,5.476972e-001
1.500411e+003,5.659975e-001
1.504268e+003,5.847473e-001
1.508125e+003,5.832116e-001
1.511982e+003,5.683067e-001
1.515839e+003,5.609394e-001
1.519696e+003,5.582877e-001
1.523553e+003,5.616746e-001
1.527410e+003,5.516916e-001
1.531267e+003,5.326733e-001
1.535124e+003,5.253009e-001
1.538981e+003,5.194911e-001
1.542839e+003,5.032397e-001
1.546696e+003,4.908764e-001
1.550553e+003,4.818618e-001
1.554410e+003,4.703426e-001
1.558267e+003,4.558733e-001
1.562124e+003,4.466745e-001
1.565981e+003,4.395183e-001
1.569838e+003,4.318054e-001
1.573695e+003,4.286974e-001
1.577552e+003,4.272856e-001
1.581410e+003,4.255889e-001
1.585267e+003,4.221573e-001
1.589124e+003,4.225270e-001
1.592981e+003,4.354095e-001
1.596838e+003,4.530996e-001
1.600695e+003,4.727379e-001
1.604552e+003,4.926650e-001
1.608409e+003,5.138119e-001
1.612266e+003,5.411119e-001
1.616123e+003,5.606332e-001
1.619980e+003,5.868968e-001
1.623838e+003,6.081774e-001
1.627695e+003,6.169241e-001
1.631552e+003,6.352494e-001
1.635409e+003,6.418144e-001
1.639266e+003,6.398296e-001
1.643123e+003,6.315869e-001
1.646980e+003,6.167348e-001
1.650837e+003,5.999260e-001
1.654694e+003,5.878965e-001
1.658551e+003,5.677159e-001
1.662409e+003,5.449976e-001
1.666266e+003,5.258946e-001
1.670123e+003,5.062401e-001
1.673980e+003,4.806671e-001
1.677837e+003,4.629058e-001
1.681694e+003,4.476211e-001
1.685551e+003,4.299753e-001
1.689408e+003,4.202219e-001
1.693265e+003,4.122142e-001
1.697122e+003,4.009384e-001
1.700979e+003,3.932406e-001
1.704837e+003,3.829015e-001
1.708694e+003,3.700316e-001
1.712551e+003,3.592202e-001
1.716408e+003,3.523917e-001
1.720265e+003,3.476126e-001
1.724122e+003,3.427181e-001
1.727979e+003,3.394038e-001
1.731836e+003,3.338600e-001
1.735693e+003,3.291444e-001
1.739550e+003,3.303512e-001
1.743408e+003,3.242716e-001
1.747265e+003,3.214705e-001
1.751122e+003,3.268445e-001
1.754979e+003,3.299901e-001
1.758836e+003,3.341490e-001
1.762693e+003,3.371369e-001
1.766550e+003,3.390555e-001
1.770407e+003,3.386162e-001
1.774264e+003,3.416257e-001
1.778121e+003,3.406322e-001
1.781979e+003,3.363862e-001
1.785836e+003,3.333711e-001
1.789693e+003,3.269703e-001
1.793550e+003,3.222797e-001
1.797407e+003,3.167897e-001
1.801264e+003,3.117454e-001
1.805121e+003,3.072420e-001
1.808978e+003,3.016640e-001
1.812835e+003,3.015264e-001
1.816692e+003,2.997971e-001
1.820549e+003,2.971018e-001
1.824407e+003,2.990099e-001
1.828264e+003,3.018201e-001
1.832121e+003,3.025815e-001
1.835978e+003,3.028057e-001
1.839835e+003,3.027377e-001
1.843692e+003,3.027116e-001
1.847549e+003,3.023544e-001
1.851406e+003,3.015508e-001
1.855263e+003,3.024586e-001
1.859120e+003,3.000630e-001
1.862978e+003,2.981023e-001
1.866835e+003,2.951956e-001
1.870692e+003,2.907214e-001
1.874549e+003,2.914248e-001
1.878406e+003,2.923200e-001
1.882263e+003,2.852687e-001
1.886120e+003,2.810575e-001
1.889977e+003,2.790027e-001
1.893834e+003,2.753021e-001
1.897691e+003,2.737138e-001
1.901548e+003,2.741175e-001
1.905406e+003,2.772571e-001
1.909263e+003,2.764747e-001
1.913120e+003,2.712805e-001
1.916977e+003,2.726929e-001
1.920834e+003,2.733465e-001
1.924691e+003,2.702017e-001
1.928548e+003,2.700230e-001
1.932405e+003,2.766740e-001
1.936262e+003,2.735421e-001
1.940119e+003,2.709500e-001
1.943977e+003,2.730263e-001
1.947834e+003,2.670214e-001
1.951691e+003,2.612102e-001
1.955548e+003,2.614582e-001
1.959405e+003,2.599582e-001
1.963262e+003,2.560486e-001
1.967119e+003,2.525786e-001
1.970976e+003,2.513841e-001
1.974833e+003,2.490772e-001
1.978690e+003,2.455099e-001
1.982547e+003,2.402603e-001
1.986405e+003,2.348284e-001
1.990262e+003,2.334621e-001
1.994119e+003,2.332083e-001
1.997976e+003,2.353614e-001
2.001833e+003,2.385048e-001
2.005690e+003,2.408981e-001
2.009547e+003,2.436205e-001
2.013404e+003,2.450005e-001
2.017261e+003,2.431562e-001
2.021118e+003,2.421269e-001
2.024976e+003,2.396934e-001
2.028833e+003,2.395942e-001
2.032690e+003,2.392500e-001
2.036547e+003,2.373008e-001
2.040404e+003,2.328492e-001
2.044261e+003,2.297533e-001
2.048118e+003,2.277439e-001
2.051975e+003,2.237946e-001
2.055832e+003,2.201605e-001
2.059689e+003,2.183475e-001
2.063546e+003,2.184265e-001
2.067404e+003,2.168266e-001
2.071261e+003,2.157287e-001
2.075118e+003,2.151256e-001
2.078975e+003,2.162205e-001
2.082832e+003,2.188206e-001
2.086689e+003,2.200225e-001
2.090546e+003,2.204449e-001
2.094403e+003,2.234363e-001
2.098260e+003,2.243381e-001
2.102117e+003,2.249901e-001
2.105975e+003,2.276441e-001
2.109832e+003,2.290609e-001
2.113689e+003,2.263180e-001
2.117546e+003,2.242849e-001
2.121403e+003,2.216311e-001
2.125260e+003,2.214670e-001
2.129117e+003,2.227786e-001
2.132974e+003,2.203840e-001
2.136831e+003,2.151401e-001
2.140688e+003,2.116250e-001
2.144545e+003,2.139925e-001
2.148403e+003,2.153644e-001
2.152260e+003,2.126955e-001
2.156117e+003,2.108706e-001
2.159974e+003,2.102325e-001
2.163831e+003,2.134370e-001
2.167688e+003,2.161998e-001
2.171545e+003,2.166817e-001
2.175402e+003,2.144145e-001
2.179259e+003,2.155787e-001
2.183116e+003,2.185544e-001
2.186974e+003,2.211079e-001
2.190831e+003,2.223831e-001
2.194688e+003,2.227929e-001
2.198545e+003,2.251454e-001
2.202402e+003,2.257244e-001
2.206259e+003,2.241049e-001
2.210116e+003,2.223030e-001
2.213973e+003,2.206689e-001
2.217830e+003,2.201291e-001
2.221688e+003,2.200551e-001
2.225544e+003,2.200194e-001
2.229402e+003,2.211998e-001
2.233259e+003,2.228223e-001
2.237116e+003,2.208959e-001
2.240973e+003,2.183726e-001
2.244830e+003,2.183162e-001
2.248687e+003,2.195120e-001
2.252544e+003,2.225901e-001
2.256401e+003,2.234427e-001
2.260258e+003,2.221729e-001
2.264115e+003,2.225760e-001
2.267973e+003,2.269004e-001
2.271830e+003,2.274576e-001
2.275687e+003,2.277604e-001
2.279544e+003,2.309714e-001
2.283401e+003,2.333523e-001
2.287258e+003,2.342456e-001
2.291115e+003,2.334216e-001
2.294972e+003,2.348282e-001
2.298829e+003,2.361223e-001
2.302687e+003,2.355359e-001
2.306543e+003,2.342893e-001
2.310401e+003,2.299666e-001
2.314258e+003,2.301777e-001
2.318115e+003,2.269552e-001
2.321972e+003,2.262442e-001
2.325829e+003,2.285196e-001
2.329686e+003,2.319370e-001
2.333543e+003,2.344395e-001
2.337400e+003,2.327246e-001
2.341257e+003,2.312613e-001
2.345115e+003,2.334781e-001
2.348972e+003,2.334767e-001
2.352829e+003,2.370243e-001
2.356686e+003,2.374854e-001
2.360543e+003,2.357459e-001
2.364400e+003,2.375339e-001
2.368257e+003,2.366968e-001
2.372114e+003,2.356244e-001
2.375971e+003,2.388648e-001
2.379828e+003,2.376111e-001
2.383686e+003,2.330588e-001
2.387542e+003,2.326836e-001
2.391400e+003,2.330078e-001
2.395257e+003,2.312842e-001
2.399114e+003,2.312377e-001
2.402971e+003,2.325427e-001
2.406828e+003,2.321341e-001
2.410685e+003,2.297602e-001
2.414542e+003,2.296556e-001
2.418399e+003,2.289150e-001
2.422256e+003,2.286013e-001
2.426114e+003,2.289189e-001
2.429971e+003,2.258752e-001
2.433828e+003,2.256439e-001
2.437685e+003,2.265000e-001
2.441542e+003,2.265406e-001
2.445399e+003,2.270663e-001
2.449256e+003,2.278874e-001
2.453113e+003,2.264418e-001
2.456970e+003,2.251452e-001
2.460827e+003,2.237805e-001
2.464684e+003,2.237639e-001
2.468542e+003,2.236891e-001
2.472399e+003,2.263753e-001
2.476256e+003,2.299279e-001
2.480113e+003,2.280664e-001
2.483970e+003,2.273565e-001
2.487827e+003,2.268425e-001
2.491684e+003,2.250001e-001
2.495541e+003,2.234392e-001
2.499398e+003,2.214893e-001
2.503255e+003,2.230230e-001
2.507113e+003,2.257933e-001
2.510969e+003,2.259606e-001
2.514827e+003,2.278558e-001
2.518684e+003,2.284674e-001
2.522541e+003,2.268950e-001
2.526398e+003,2.244218e-001
2.530255e+003,2.305798e-001
2.534112e+003,2.344321e-001
2.537969e+003,2.303912e-001
2.541826e+003,2.270093e-001
2.545683e+003,2.293293e-001
2.549541e+003,2.353580e-001
2.553398e+003,2.370026e-001
2.557255e+003,2.346118e-001
2.561112e+003,2.366109e-001
2.564969e+003,2.426282e-001
2.568826e+003,2.421609e-001
2.572683e+003,2.421977e-001
2.576540e+003,2.466440e-001
2.580397e+003,2.485974e-001
2.584254e+003,2.495483e-001
2.588112e+003,2.489372e-001
2.591969e+003,2.488682e-001
2.595826e+003,2.528331e-001
2.599683e+003,2.561560e-001
2.603540e+003,2.548294e-001
2.607397e+003,2.559183e-001
2.611254e+003,2.575384e-001
2.615111e+003,2.589099e-001
2.618968e+003,2.614571e-001
2.622825e+003,2.643115e-001
2.626682e+003,2.676434e-001
2.630540e+003,2.693512e-001
2.634397e+003,2.705167e-001
2.638254e+003,2.719174e-001
2.642111e+003,2.766638e-001
2.645968e+003,2.763037e-001
2.649825e+003,2.772953e-001
2.653682e+003,2.784173e-001
2.657539e+003,2.788878e-001
2.661396e+003,2.848824e-001
2.665253e+003,2.910438e-001
2.669111e+003,2.929597e-001
2.672968e+003,2.917125e-001
2.676825e+003,2.935445e-001
2.680682e+003,2.985274e-001
2.684539e+003,3.019690e-001
2.688396e+003,3.071397e-001
2.692253e+003,3.114693e-001
2.696110e+003,3.132688e-001
2.699967e+003,3.196534e-001
2.703824e+003,3.249161e-001
2.707681e+003,3.274475e-001
2.711539e+003,3.298738e-001
2.715396e+003,3.274143e-001
2.719253e+003,3.269829e-001
2.723110e+003,3.323961e-001
2.726967e+003,3.343212e-001
2.730824e+003,3.387115e-001
2.734681e+003,3.451186e-001
2.738538e+003,3.517824e-001
2.742395e+003,3.535197e-001
2.746252e+003,3.533392e-001
2.750110e+003,3.558745e-001
2.753967e+003,3.616929e-001
2.757824e+003,3.646052e-001
2.761681e+003,3.692839e-001
2.765538e+003,3.718388e-001
2.769395e+003,3.720777e-001
2.773252e+003,3.778821e-001
2.777109e+003,3.831214e-001
2.780966e+003,3.869705e-001
2.784823e+003,3.922124e-001
2.788680e+003,3.929398e-001
2.792538e+003,3.932181e-001
2.796395e+003,3.964442e-001
2.800252e+003,4.027073e-001
2.804109e+003,4.072010e-001
2.807966e+003,4.109194e-001
2.811823e+003,4.155034e-001
2.815680e+003,4.201147e-001
2.819537e+003,4.203558e-001
2.823394e+003,4.240303e-001
2.827251e+003,4.329171e-001
2.831109e+003,4.414181e-001
2.834966e+003,4.489873e-001
2.838823e+003,4.523228e-001
2.842680e+003,4.515828e-001
2.846537e+003,4.601322e-001
2.850394e+003,4.679272e-001
2.854251e+003,4.680574e-001
2.858108e+003,4.711976e-001
2.861965e+003,4.673848e-001
2.865823e+003,4.638543e-001
2.869679e+003,4.755471e-001
2.873537e+003,4.887900e-001
2.877394e+003,4.917898e-001
2.881251e+003,4.928982e-001
2.885108e+003,4.964876e-001
2.888965e+003,5.023499e-001
2.892822e+003,5.095454e-001
2.896679e+003,5.153509e-001
2.900536e+003,5.191146e-001
2.904393e+003,5.239408e-001
2.908250e+003,5.304181e-001
2.912108e+003,5.343690e-001
2.915965e+003,5.370503e-001
2.919822e+003,5.422147e-001
2.923679e+003,5.465145e-001
2.927536e+003,5.567176e-001
2.931393e+003,5.617909e-001
2.935250e+003,5.600498e-001
2.939107e+003,5.570576e-001
2.942964e+003,5.678778e-001
2.946822e+003,5.807347e-001
2.950678e+003,5.817991e-001
2.954536e+003,5.802121e-001
2.958393e+003,5.746863e-001
2.962250e+003,5.802830e-001
2.966107e+003,5.941828e-001
2.969964e+003,6.031509e-001
2.973821e+003,6.078057e-001
2.977678e+003,6.138570e-001
2.981535e+003,6.208751e-001
2.985392e+003,6.251637e-001
2.989250e+003,6.262370e-001
2.993107e+003,6.376778e-001
2.996964e+003,6.477475e-001
3.000821e+003,6.501923e-001
3.004678e+003,6.530687e-001
3.008535e+003,6.526117e-001
3.012392e+003,6.574667e-001
3.016249e+003,6.682950e-001
3.020106e+003,6.815979e-001
3.023963e+003,6.805210e-001
3.027821e+003,6.764785e-001
3.031677e+003,6.787487e-001
3.035535e+003,6.843723e-001
3.039392e+003,6.857140e-001
3.043249e+003,6.982240e-001
3.047106e+003,7.108805e-001
3.050963e+003,7.133301e-001
3.054820e+003,7.170063e-001
3.058677e+003,7.217524e-001
3.062534e+003,7.238206e-001
3.066391e+003,7.320417e-001
3.070249e+003,7.476894e-001
3.074106e+003,7.602538e-001
3.077963e+003,7.574614e-001
3.081820e+003,7.566417e-001
3.085677e+003,7.738150e-001
3.089534e+003,7.852778e-001
3.093391e+003,7.898734e-001
3.097248e+003,7.965264e-001
3.101105e+003,8.104697e-001
3.104962e+003,8.049555e-001
3.108820e+003,7.954054e-001
3.112677e+003,8.038437e-001
3.116534e+003,8.139361e-001
3.120391e+003,8.214293e-001
3.124248e+003,8.327486e-001
3.128105e+003,8.458291e-001
3.131962e+003,8.474033e-001
3.135819e+003,8.547869e-001
3.139676e+003,8.619775e-001
3.143533e+003,8.641014e-001
3.147390e+003,8.750631e-001
3.151248e+003,8.817233e-001
3.155105e+003,8.933434e-001
3.158962e+003,9.068532e-001
3.162819e+003,8.987774e-001
3.166676e+003,8.928536e-001
3.170533e+003,8.948261e-001
3.174390e+003,9.099081e-001
3.178247e+003,9.348879e-001
3.182104e+003,9.373553e-001
3.185961e+003,9.306210e-001
3.189819e+003,9.371275e-001
3.193676e+003,9.282250e-001
3.197533e+003,9.325301e-001
3.201390e+003,9.437709e-001
3.205247e+003,9.532872e-001
3.209104e+003,9.695119e-001
3.212961e+003,9.820867e-001
3.216818e+003,9.823599e-001
3.220675e+003,9.842654e-001
3.224532e+003,9.967503e-001
3.228389e+003,9.905524e-001
3.232247e+003,9.945763e-001
3.236104e+003,9.942359e-001
3.239961e+003,9.921828e-001
3.243818e+003,1.000120e+000
3.247675e+003,1.006459e+000
3.251532e+003,1.009974e+000
3.255389e+003,1.023991e+000
3.259246e+003,1.028809e+000
3.263103e+003,1.022612e+000
3.266960e+003,1.024783e+000
3.270818e+003,1.052581e+000
3.274675e+003,1.055593e+000
3.278532e+003,1.041467e+000
3.282389e+003,1.037915e+000
3.286246e+003,1.044575e+000
3.290103e+003,1.060587e+000
3.293960e+003,1.077666e+000
3.297817e+003,1.074538e+000
3.301674e+003,1.057247e+000
3.305531e+003,1.049161e+000
3.309388e+003,1.055584e+000
3.313246e+003,1.098026e+000
3.317103e+003,1.108419e+000
3.320960e+003,1.090840e+000
3.324817e+003,1.093444e+000
3.328674e+003,1.107515e+000
3.332531e+003,1.089989e+000
3.336388e+003,1.115963e+000
3.340245e+003,1.139192e+000
3.344102e+003,1.140589e+000
3.347959e+003,1.126428e+000
3.351817e+003,1.126225e+000
3.355674e+003,1.138004e+000
3.359531e+003,1.130864e+000
3.363388e+003,1.127674e+000
3.367245e+003,1.146822e+000
3.371102e+003,1.167919e+000
3.374959e+003,1.165843e+000
3.378816e+003,1.154470e+000
3.382673e+003,1.173222e+000
3.386530e+003,1.188728e+000
3.390387e+003,1.183358e+000
3.394245e+003,1.176599e+000
3.398102e+003,1.180251e+000
3.401959e+003,1.189475e+000
3.405816e+003,1.199309e+000
3.409673e+003,1.210591e+000
3.413530e+003,1.180838e+000
3.417387e+003,1.153951e+000
3.421244e+003,1.183594e+000
3.425101e+003,1.187937e+000
3.428958e+003,1.189928e+000
3.432815e+003,1.199926e+000
3.436673e+003,1.218759e+000
3.440530e+003,1.217598e+000
3.444387e+003,1.198183e+000
3.448244e+003,1.203344e+000
3.452101e+003,1.202447e+000
3.455958e+003,1.242877e+000
3.459815e+003,1.296937e+000
3.463672e+003,1.285998e+000
3.467529e+003,1.223810e+000
3.471386e+003,1.223820e+000
3.475244e+003,1.247830e+000
3.479101e+003,1.231247e+000
3.482958e+003,1.249518e+000
3.486815e+003,1.276729e+000
3.490672e+003,1.270425e+000
3.494529e+003,1.248010e+000
3.498386e+003,1.221738e+000
3.502243e+003,1.216231e+000
3.506100e+003,1.221381e+000
3.509958e+003,1.252876e+000
3.513814e+003,1.267978e+000
3.517672e+003,1.293163e+000
3.521529e+003,1.275516e+000
3.525386e+003,1.280244e+000
3.529243e+003,1.245822e+000
3.533100e+003,1.240643e+000
3.536957e+003,1.269556e+000
3.540814e+003,1.260155e+000
3.544671e+003,1.239584e+000
3.548528e+003,1.226535e+000
3.552385e+003,1.223590e+000
3.556243e+003,1.250962e+000
3.560100e+003,1.232531e+000
3.563957e+003,1.217503e+000
3.567814e+003,1.228210e+000
3.571671e+003,1.235562e+000
3.575528e+003,1.215851e+000
3.579385e+003,1.202925e+000
3.583242e+003,1.196367e+000
3.587099e+003,1.195724e+000
3.590957e+003,1.196049e+000
3.594813e+003,1.168833e+000
3.598671e+003,1.135497e+000
3.602528e+003,1.125430e+000
3.606385e+003,1.109400e+000
3.610242e+003,1.054528e+000
3.614099e+003,1.000448e+000
3.617956e+003,9.480599e-001
3.621813e+003,9.242401e-001
3.625670e+003,8.915261e-001
3.629527e+003,8.282288e-001
3.633385e+003,7.776217e-001
3.637242e+003,7.285444e-001
3.641099e+003,6.658665e-001
3.644956e+003,6.192142e-001
3.648813e+003,5.836471e-001
3.652670e+003,5.393677e-001
3.656527e+003,4.981699e-001
3.660384e+003,4.587180e-001
3.664241e+003,4.236131e-001
3.668098e+003,3.923247e-001
3.671956e+003,3.619908e-001
3.675813e+003,3.309279e-001
3.679670e+003,3.125377e-001
3.683527e+003,2.917289e-001
3.687384e+003,2.728480e-001
3.691241e+003,2.626923e-001
3.695098e+003,2.524357e-001
3.698955e+003,2.421766e-001
3.702812e+003,2.328950e-001
3.706669e+003,2.257412e-001
3.710526e+003,2.190188e-001
3.714384e+003,2.117767e-001
3.718241e+003,2.056858e-001
3.722098e+003,2.016501e-001
3.725955e+003,1.975086e-001
3.729812e+003,1.923613e-001
3.733669e+003,1.877464e-001
3.737526e+003,1.856712e-001
3.741383e+003,1.823501e-001
3.745240e+003,1.805945e-001
3.749097e+003,1.801118e-001
3.752955e+003,1.791673e-001
3.756812e+003,1.777660e-001
3.760669e+003,1.757765e-001
3.764526e+003,1.696375e-001
3.768383e+003,1.664851e-001
3.772240e+003,1.701560e-001
3.776097e+003,1.726473e-001
3.779954e+003,1.742508e-001
3.783811e+003,1.719430e-001
3.787668e+003,1.692951e-001
3.791525e+003,1.685571e-001
3.795383e+003,1.652686e-001
3.799240e+003,1.642423e-001
3.803097e+003,1.636999e-001
3.806954e+003,1.624268e-001
3.810811e+003,1.639405e-001
3.814668e+003,1.613133e-001
3.818525e+003,1.598388e-001
3.822382e+003,1.606255e-001
3.826239e+003,1.619912e-001
3.830096e+003,1.630532e-001
3.833954e+003,1.630317e-001
3.837811e+003,1.633513e-001
3.841668e+003,1.603740e-001
3.845525e+003,1.575699e-001
3.849382e+003,1.589051e-001
3.853239e+003,1.605642e-001
3.857096e+003,1.586118e-001
3.860953e+003,1.571061e-001
3.864810e+003,1.582144e-001
3.868667e+003,1.604129e-001
3.872524e+003,1.599998e-001
3.876382e+003,1.586112e-001
3.880239e+003,1.580003e-001
3.884096e+003,1.566652e-001
3.887953e+003,1.551124e-001
3.891810e+003,1.582837e-001
3.895667e+003,1.579680e-001
3.899524e+003,1.550054e-001
3.903381e+003,1.550061e-001
3.907238e+003,1.582762e-001
3.911095e+003,1.583899e-001
3.914953e+003,1.572030e-001
3.918810e+003,1.539452e-001
3.922667e+003,1.549090e-001
3.926524e+003,1.551119e-001
3.930381e+003,1.553576e-001
3.934238e+003,1.522967e-001
3.938095e+003,1.479213e-001
3.941952e+003,1.503473e-001
3.945809e+003,1.512027e-001
3.949667e+003,1.487211e-001
3.953523e+003,1.474889e-001
3.957381e+003,1.539597e-001
3.961238e+003,1.561961e-001
3.965095e+003,1.528180e-001
3.968952e+003,1.547373e-001
3.972809e+003,1.550204e-001
3.976666e+003,1.486010e-001
3.980523e+003,1.458980e-001
3.984380e+003,1.487045e-001
3.988237e+003,1.485918e-001
3.992094e+003,1.488016e-001
3.995952e+003,1.502712e-001
3.999809e+003,1.501078e-001
4.003666e+003,1.504866e-001
4.007523e+003,1.495072e-001
4.011380e+003,1.466823e-001
4.015237e+003,1.433401e-001
4.019094e+003,1.450685e-001
4.022951e+003,1.466014e-001
4.026808e+003,1.457680e-001
4.030666e+003,1.442330e-001
4.034522e+003,1.391211e-001
4.038380e+003,1.415352e-001
4.042237e+003,1.422542e-001
4.046094e+003,1.403999e-001
4.049951e+003,1.359927e-001
4.053808e+003,1.382098e-001
4.057665e+003,1.391510e-001
4.061522e+003,1.363628e-001
4.065379e+003,1.394943e-001
4.069236e+003,1.423042e-001
4.073094e+003,1.452449e-001
4.076951e+003,1.431394e-001
4.080808e+003,1.390014e-001
4.084665e+003,1.378539e-001
4.088522e+003,1.426292e-001
4.092379e+003,1.433354e-001
4.096236e+003,1.387307e-001
4.100093e+003,1.350988e-001
4.103950e+003,1.341240e-001
4.107808e+003,1.364139e-001
4.111665e+003,1.356036e-001
4.115521e+003,1.295820e-001
4.119379e+003,1.319757e-001
4.123236e+003,1.326341e-001
4.127093e+003,1.310770e-001
4.130950e+003,1.299223e-001
4.134807e+003,1.277661e-001
4.138664e+003,1.245348e-001
4.142521e+003,1.254969e-001
4.146378e+003,1.250140e-001
4.150235e+003,1.226735e-001
4.154093e+003,1.258571e-001
4.157950e+003,1.279721e-001
4.161807e+003,1.273501e-001
4.165664e+003,1.284721e-001
4.169521e+003,1.297277e-001
4.173378e+003,1.245712e-001
4.177235e+003,1.224508e-001
4.181092e+003,1.217827e-001
4.184949e+003,1.199612e-001
4.188807e+003,1.196889e-001
4.192664e+003,1.206396e-001
4.196521e+003,1.241612e-001
4.200378e+003,1.266612e-001
4.204235e+003,1.246424e-001
4.208092e+003,1.209046e-001
4.211949e+003,1.178740e-001
4.215806e+003,1.177068e-001
4.219663e+003,1.193092e-001
4.223521e+003,1.190677e-001
4.227377e+003,1.187464e-001
4.231234e+003,1.169302e-001
4.235092e+003,1.177450e-001
4.238949e+003,1.184408e-001
4.242806e+003,1.184075e-001
4.246663e+003,1.167821e-001
4.250520e+003,1.196251e-001
4.254377e+003,1.222931e-001
4.258234e+003,1.155524e-001
4.262091e+003,1.120935e-001
4.265948e+003,1.156160e-001
4.269806e+003,1.160909e-001
4.273663e+003,1.169366e-001
4.277520e+003,1.169356e-001
4.281377e+003,1.128908e-001
4.285234e+003,1.148376e-001
4.289091e+003,1.129653e-001
4.292948e+003,1.127390e-001
4.296805e+003,1.111771e-001
4.300662e+003,1.083049e-001
4.304520e+003,1.113501e-001
4.308376e+003,1.133855e-001
4.312233e+003,1.075127e-001
4.316091e+003,1.031815e-001
4.319948e+003,1.066064e-001
4.323805e+003,1.110260e-001
4.327662e+003,1.103825e-001
4.331519e+003,1.108377e-001
4.335376e+003,1.172365e-001
4.339233e+003,1.191563e-001
4.343090e+003,1.172119e-001
4.346947e+003,1.141913e-001
4.350805e+003,1.120073e-001
4.354662e+003,1.116443e-001
4.358519e+003,1.072829e-001
4.362376e+003,1.026999e-001
4.366233e+003,1.067602e-001
4.370090e+003,1.140907e-001
4.373947e+003,1.195125e-001
4.377804e+003,1.178935e-001
4.381661e+003,1.145859e-001
4.385519e+003,1.105554e-001
4.389375e+003,1.045670e-001
4.393232e+003,1.067195e-001
4.397090e+003,1.142412e-001
4.400947e+003,1.149577e-001
4.404804e+003,1.131996e-001
4.408661e+003,1.133671e-001
4.412518e+003,1.132426e-001
4.416375e+003,1.099701e-001
4.420232e+003,1.078998e-001
4.424089e+003,1.063402e-001
4.427946e+003,1.078060e-001
4.431804e+003,1.080943e-001
4.435661e+003,1.061092e-001
4.439518e+003,1.047729e-001
4.443375e+003,1.048561e-001
4.447232e+003,1.067756e-001
4.451089e+003,1.101111e-001
4.454946e+003,1.083810e-001
4.458803e+003,1.069946e-001
4.462660e+003,1.090029e-001
4.466518e+003,1.059143e-001
4.470375e+003,1.011205e-001
4.474231e+003,1.022287e-001
4.478089e+003,1.079758e-001
4.481946e+003,1.104762e-001
4.485803e+003,1.117482e-001
4.489660e+003,1.128871e-001
4.493517e+003,1.138053e-001
4.497375e+003,1.099875e-001
4.501231e+003,1.032476e-001
4.505088e+003,1.049995e-001
4.508946e+003,1.097461e-001
4.512803e+003,1.071019e-001
4.516660e+003,1.110465e-001
4.520517e+003,1.142758e-001
4.524374e+003,1.087432e-001
4.528231e+003,1.038057e-001
4.532088e+003,1.058854e-001
4.535945e+003,1.069085e-001
4.539802e+003,1.040318e-001
4.543660e+003,1.071163e-001
4.547517e+003,1.043289e-001
4.551374e+003,9.970940e-002
4.555231e+003,1.038094e-001
4.559088e+003,1.071697e-001
4.562945e+003,1.080948e-001
4.566802e+003,1.024781e-001
4.570659e+003,9.430234e-002
4.574516e+003,9.485350e-002
4.578374e+003,9.895513e-002
4.582230e+003,9.757382e-002
4.586087e+003,9.786171e-002
4.589945e+003,9.949677e-002
4.593802e+003,9.788608e-002
4.597659e+003,1.006188e-001
4.601516e+003,9.969202e-002
4.605373e+003,9.810560e-002
4.609230e+003,1.014474e-001
4.613087e+003,1.032591e-001
4.616944e+003,9.924802e-002
4.620801e+003,9.839534e-002
4.624659e+003,1.021001e-001
4.628516e+003,9.945257e-002
4.632373e+003,9.341390e-002
4.636230e+003,9.080976e-002
4.640087e+003,9.222541e-002
4.643944e+003,9.283782e-002
4.647801e+003,9.226450e-002
4.651658e+003,9.360409e-002
4.655515e+003,9.858152e-002
4.659373e+003,1.005101e-001
4.663229e+003,9.949040e-002
4.667086e+003,1.004028e-001
4.670944e+003,1.013785e-001
4.674801e+003,9.913877e-002
4.678658e+003,9.922782e-002
4.682515e+003,1.023382e-001
4.686372e+003,1.014255e-001
4.690229e+003,9.920447e-002
4.694086e+003,1.015450e-001
4.697943e+003,1.025346e-001
4.701800e+003,9.778161e-002
4.705658e+003,9.219800e-002
4.709515e+003,9.516170e-002
4.713372e+003,9.181391e-002
4.717229e+003,8.767845e-002
4.721086e+003,8.657297e-002
4.724943e+003,9.035924e-002
4.728800e+003,9.122276e-002
4.732657e+003,9.280512e-002
4.736514e+003,9.584974e-002
4.740372e+003,9.664788e-002
4.744229e+003,9.379115e-002
4.748085e+003,9.922308e-002
4.751943e+003,1.061473e-001
4.755800e+003,1.014260e-001
4.759657e+003,9.819262e-002
4.763514e+003,1.001196e-001
4.767371e+003,9.768380e-002
4.771228e+003,9.558568e-002
4.775085e+003,9.848271e-002
4.778942e+003,1.050963e-001
4.782799e+003,1.060419e-001
4.786657e+003,1.009638e-001
4.790514e+003,9.794806e-002
4.794371e+003,9.424870e-002
4.798228e+003,9.807063e-002
4.802085e+003,1.033941e-001
4.805942e+003,1.121783e-001
4.809799e+003,1.098763e-001
4.813656e+003,1.025757e-001
4.817513e+003,1.001343e-001
4.821371e+003,9.676777e-002
4.825228e+003,9.522944e-002
4.829084e+003,9.540725e-002
4.832942e+003,9.489571e-002
4.836799e+003,1.002707e-001
4.840656e+003,1.065333e-001
4.844513e+003,1.069287e-001
4.848370e+003,9.900045e-002
4.852227e+003,9.535170e-002
4.856084e+003,1.014861e-001
4.859941e+003,1.034882e-001
4.863798e+003,1.028395e-001
4.867656e+003,1.084609e-001
4.871513e+003,1.135575e-001
4.875370e+003,1.055238e-001
4.879227e+003,1.084038e-001
4.883084e+003,1.148928e-001
4.886941e+003,1.025642e-001
4.890798e+003,9.679787e-002
4.894655e+003,9.812728e-002
4.898512e+003,9.843910e-002
4.902370e+003,9.684106e-002
4.906227e+003,9.708665e-002
4.910083e+003,1.047266e-001
4.913941e+003,1.052840e-001
4.917798e+003,1.007594e-001
4.921655e+003,1.051137e-001
4.925512e+003,1.123637e-001
4.929369e+003,1.045515e-001
4.933226e+003,1.025444e-001
4.937083e+003,1.116510e-001
4.940940e+003,1.117842e-001
4.944797e+003,1.062425e-001
4.948655e+003,1.087095e-001
4.952512e+003,1.107411e-001
4.956369e+003,1.185376e-001
4.960226e+003,1.217307e-001
4.964083e+003,1.117827e-001
4.967940e+003,1.118575e-001
4.971797e+003,1.085786e-001
4.975654e+003,1.066724e-001
4.979511e+003,1.142452e-001
4.983369e+003,1.163478e-001
4.987226e+003,1.091583e-001
4.991083e+003,1.011701e-001
4.994940e+003,9.876637e-002
4.998797e+003,1.008816e-001
5.002654e+003,1.055856e-001
5.006511e+003,1.001386e-001
5.010368e+003,1.030443e-001
5.014225e+003,1.119196e-001
5.018083e+003,1.120073e-001
5.021939e+003,1.128438e-001
5.025796e+003,1.110048e-001
5.029654e+003,1.124005e-001
5.033511e+003,1.200956e-001
5.037368e+003,1.228286e-001
5.041225e+003,1.236206e-001
5.045082e+003,1.173041e-001
5.048939e+003,1.160870e-001
5.052796e+003,1.242490e-001
5.056653e+003,1.195349e-001
5.060510e+003,1.112260e-001
5.064368e+003,1.146585e-001
5.068225e+003,1.238798e-001
5.072082e+003,1.165739e-001
5.075939e+003,1.141207e-001
5.079796e+003,1.144006e-001
5.083653e+003,1.114827e-001
5.087510e+003,1.152671e-001
5.091367e+003,1.206023e-001
5.095224e+003,1.254871e-001
5.099082e+003,1.247216e-001
5.102938e+003,1.139627e-001
5.106795e+003,1.094547e-001
5.110653e+003,1.134659e-001
5.114510e+003,1.225899e-001
5.118367e+003,1.228608e-001
5.122224e+003,1.248101e-001
5.126081e+003,1.257365e-001
5.129938e+003,1.252155e-001
5.133795e+003,1.270629e-001
5.137652e+003,1.258644e-001
5.141509e+003,1.213001e-001
5.145367e+003,1.257798e-001
5.149224e+003,1.306730e-001
5.153081e+003,1.351224e-001
5.156938e+003,1.359528e-001
5.160795e+003,1.307145e-001
5.164652e+003,1.302997e-001
5.168509e+003,1.287775e-001
5.172366e+003,1.213035e-001
5.176223e+003,1.216062e-001
5.180081e+003,1.248587e-001
5.183938e+003,1.218903e-001
5.187794e+003,1.247202e-001
5.191652e+003,1.406100e-001
5.195509e+003,1.511448e-001
5.199366e+003,1.418101e-001
5.203223e+003,1.282213e-001
5.207080e+003,1.248219e-001
5.210937e+003,1.268217e-001
5.214794e+003,1.345217e-001
5.218651e+003,1.367452e-001
5.222508e+003,1.295957e-001
5.226366e+003,1.294042e-001
5.230223e+003,1.332239e-001
5.234080e+003,1.352606e-001
5.237937e+003,1.381243e-001
5.241794e+003,1.357640e-001
5.245651e+003,1.326221e-001
5.249508e+003,1.285349e-001
5.253365e+003,1.243179e-001
5.257222e+003,1.310199e-001
5.261080e+003,1.311109e-001
5.264937e+003,1.261034e-001
5.268793e+003,1.292587e-001
5.272651e+003,1.247606e-001
5.276508e+003,1.281058e-001
5.280365e+003,1.293710e-001
5.284222e+003,1.288676e-001
5.288079e+003,1.336821e-001
5.291936e+003,1.319429e-001
5.295793e+003,1.256967e-001
5.299650e+003,1.276211e-001
5.303507e+003,1.272450e-001
5.307365e+003,1.312522e-001
5.311222e+003,1.302291e-001
5.315079e+003,1.280727e-001
5.318936e+003,1.340647e-001
5.322793e+003,1.320615e-001
5.326650e+003,1.405971e-001
5.330507e+003,1.411774e-001
5.334364e+003,1.351455e-001
5.338221e+003,1.324788e-001
5.342079e+003,1.310863e-001
5.345936e+003,1.340328e-001
5.349792e+003,1.364555e-001
5.353650e+003,1.341576e-001
5.357507e+003,1.357474e-001
5.361364e+003,1.342063e-001
5.365221e+003,1.361830e-001
5.369078e+003,1.428051e-001
5.372935e+003,1.442664e-001
5.376792e+003,1.403118e-001
5.380649e+003,1.388959e-001
5.384506e+003,1.382110e-001
5.388364e+003,1.359057e-001
5.392221e+003,1.406723e-001
5.396078e+003,1.455655e-001
5.399935e+003,1.459690e-001
5.403792e+003,1.445170e-001
5.407649e+003,1.452692e-001
5.411506e+003,1.432123e-001
5.415363e+003,1.435921e-001
5.419220e+003,1.544708e-001
5.423078e+003,1.501209e-001
5.426935e+003,1.458391e-001
5.430792e+003,1.392019e-001
5.434649e+003,1.321410e-001
5.438506e+003,1.320059e-001
5.442363e+003,1.382380e-001
5.446220e+003,1.415321e-001
5.450077e+003,1.328063e-001
5.453934e+003,1.306580e-001
5.457792e+003,1.322413e-001
5.461648e+003,1.275336e-001
5.465505e+003,1.335678e-001
5.469363e+003,1.427762e-001
5.473220e+003,1.484537e-001
5.477077e+003,1.502322e-001
5.480934e+003,1.550330e-001
5.484791e+003,1.609914e-001
5.488648e+003,1.599110e-001
5.492505e+003,1.554310e-001
5.496362e+003,1.535883e-001
5.500219e+003,1.567556e-001
5.504077e+003,1.519368e-001
5.507934e+003,1.419771e-001
5.511791e+003,1.377003e-001
5.515648e+003,1.460264e-001
5.519505e+003,1.484607e-001
5.523362e+003,1.451458e-001
5.527219e+003,1.436608e-001
5.531076e+003,1.481556e-001
5.534933e+003,1.560521e-001
5.538791e+003,1.597797e-001
5.542647e+003,1.538276e-001
5.546504e+003,1.433969e-001
5.550362e+003,1.474317e-001
5.554219e+003,1.435220e-001
5.558076e+003,1.447577e-001
5.561933e+003,1.462369e-001
5.565790e+003,1.493874e-001
5.569647e+003,1.551331e-001
5.573504e+003,1.518509e-001
5.577361e+003,1.539436e-001
5.581218e+003,1.611198e-001
5.585076e+003,1.630300e-001
5.588933e+003,1.731560e-001
5.592790e+003,1.833280e-001
5.596647e+003,1.726587e-001
5.600504e+003,1.517009e-001
5.604361e+003,1.568579e-001
5.608218e+003,1.660681e-001
5.612075e+003,1.557116e-001
5.615932e+003,1.546165e-001
5.619790e+003,1.612556e-001
5.623646e+003,1.527705e-001
5.627503e+003,1.495453e-001
5.631361e+003,1.516108e-001
5.635218e+003,1.637871e-001
5.639075e+003,1.673195e-001
5.642932e+003,1.471064e-001
5.646789e+003,1.402779e-001
5.650646e+003,1.508321e-001
5.654503e+003,1.562143e-001
5.658360e+003,1.493732e-001
5.662217e+003,1.528021e-001
5.666075e+003,1.618334e-001
5.669932e+003,1.626142e-001
5.673789e+003,1.444601e-001
5.677646e+003,1.535937e-001
5.681503e+003,1.710203e-001
5.685360e+003,1.670657e-001
5.689217e+003,1.578294e-001
5.693074e+003,1.487145e-001
5.696931e+003,1.541467e-001
5.700789e+003,1.568932e-001
5.704646e+003,1.496683e-001
5.708502e+003,1.512446e-001
5.712360e+003,1.531341e-001
5.716217e+003,1.588862e-001
5.720074e+003,1.564507e-001
5.723931e+003,1.532179e-001
5.727788e+003,1.481813e-001
5.731645e+003,1.415361e-001
5.735502e+003,1.470525e-001
5.739359e+003,1.676444e-001
5.743216e+003,1.642777e-001
5.747074e+003,1.483522e-001
5.750931e+003,1.447677e-001
5.754788e+003,1.538191e-001
5.758645e+003,1.589070e-001
5.762502e+003,1.638889e-001
5.766359e+003,1.633787e-001
5.770216e+003,1.683432e-001
5.774073e+003,1.691084e-001
5.777930e+003,1.653278e-001
5.781788e+003,1.642060e-001
5.785645e+003,1.629644e-001
5.789501e+003,1.582455e-001
5.793359e+003,1.518442e-001
5.797216e+003,1.582737e-001
5.801073e+003,1.551818e-001
5.804930e+003,1.510332e-001
5.808787e+003,1.501516e-001
5.812644e+003,1.490699e-001
5.816501e+003,1.476254e-001
5.820358e+003,1.494189e-001
5.824215e+003,1.538424e-001
5.828073e+003,1.665155e-001
5.831930e+003,1.684303e-001
5.835787e+003,1.654247e-001
5.839644e+003,1.580515e-001
5.843501e+003,1.494944e-001
5.847358e+003,1.611258e-001
5.851215e+003,1.686136e-001
5.855072e+003,1.668159e-001
5.858929e+003,1.668125e-001
5.862787e+003,1.586759e-001
5.866644e+003,1.604698e-001
5.870500e+003,1.565419e-001
5.874358e+003,1.504726e-001
5.878215e+003,1.414810e-001
5.882072e+003,1.440318e-001
5.885929e+003,1.552925e-001
5.889786e+003,1.595749e-001
5.893643e+003,1.544570e-001
5.897500e+003,1.598822e-001
5.901357e+003,1.579455e-001
5.905214e+003,1.556753e-001
5.909072e+003,1.551531e-001
5.912929e+003,1.557361e-001
5.916786e+003,1.609761e-001
5.920643e+003,1.542652e-001
5.924500e+003,1.541736e-001
5.928357e+003,1.545260e-001
5.932214e+003,1.528731e-001
5.936071e+003,1.619696e-001
5.939928e+003,1.658667e-001
5.943786e+003,1.635409e-001
5.947643e+003,1.665714e-001
5.951500e+003,1.691699e-001
5.955357e+003,1.679823e-001
5.959214e+003,1.666955e-001
5.963071e+003,1.734863e-001
5.966928e+003,1.731049e-001
5.970785e+003,1.671244e-001
5.974642e+003,1.607457e-001
5.978500e+003,1.503063e-001
5.982356e+003,1.469911e-001
5.986213e+003,1.542087e-001
5.990071e+003,1.524797e-001
5.993928e+003,1.394400e-001
5.997785e+003,1.503124e-001
6.001642e+003,1.582680e-001
6.005499e+003,1.529301e-001
6.009356e+003,1.581679e-001
6.013213e+003,1.526762e-001
6.017070e+003,1.515280e-001
6.020927e+003,1.533504e-001
6.024785e+003,1.419120e-001
6.028642e+003,1.417975e-001
6.032499e+003,1.541077e-001
6.036356e+003,1.719932e-001
6.040213e+003,1.758455e-001
6.044070e+003,1.604802e-001
6.047927e+003,1.568551e-001
6.051784e+003,1.604076e-001
6.055641e+003,1.569983e-001
6.059499e+003,1.436350e-001
6.063355e+003,1.473700e-001
6.067212e+003,1.642576e-001
6.071070e+003,1.724676e-001
6.074927e+003,1.665521e-001
6.078784e+003,1.532322e-001
6.082641e+003,1.509791e-001
6.086498e+003,1.616721e-001
6.090355e+003,1.636555e-001
6.094212e+003,1.521428e-001
6.098069e+003,1.600575e-001
6.101926e+003,1.615109e-001
6.105784e+003,1.586815e-001
6.109641e+003,1.614625e-001
6.113498e+003,1.555159e-001
6.117355e+003,1.438220e-001
6.121212e+003,1.543182e-001
6.125069e+003,1.680582e-001
6.128926e+003,1.583959e-001
6.132783e+003,1.491127e-001
6.136640e+003,1.523675e-001
6.140498e+003,1.516142e-001
6.144354e+003,1.487548e-001
6.148211e+003,1.441092e-001
6.152069e+003,1.463570e-001
6.155926e+003,1.528009e-001
6.159783e+003,1.545613e-001
6.163640e+003,1.519575e-001
6.167497e+003,1.530785e-001
6.171354e+003,1.550534e-001
6.175211e+003,1.636393e-001
6.179068e+003,1.552673e-001
6.182925e+003,1.433958e-001
6.186783e+003,1.408830e-001
6.190640e+003,1.435956e-001
6.194497e+003,1.519050e-001
6.198354e+003,1.528001e-001
6.202211e+003,1.482096e-001
6.206068e+003,1.478978e-001
6.209925e+003,1.430496e-001
6.213782e+003,1.503358e-001
6.217639e+003,1.466988e-001
6.221497e+003,1.374410e-001
6.225354e+003,1.409233e-001
6.229210e+003,1.419610e-001
6.233068e+003,1.304628e-001
6.236925e+003,1.288237e-001
6.240782e+003,1.390846e-001
6.244639e+003,1.505055e-001
6.248496e+003,1.454668e-001
6.252353e+003,1.492216e-001
6.256210e+003,1.598034e-001
6.260067e+003,1.536439e-001
6.263924e+003,1.474456e-001
6.267782e+003,1.458764e-001
6.271639e+003,1.554281e-001
6.275496e+003,1.479630e-001
6.279353e+003,1.466771e-001
6.283210e+003,1.583292e-001
6.287067e+003,1.570012e-001
6.290924e+003,1.582031e-001
6.294781e+003,1.510034e-001
6.298638e+003,1.444135e-001
6.302496e+003,1.521487e-001
6.306353e+003,1.497927e-001
6.310209e+003,1.494984e-001
6.314067e+003,1.562661e-001
6.317924e+003,1.626774e-001
6.321781e+003,1.551188e-001
6.325638e+003,1.514039e-001
6.329495e+003,1.501297e-001
6.333352e+003,1.451622e-001
6.337209e+003,1.438726e-001
6.341066e+003,1.479940e-001
6.344923e+003,1.503263e-001
6.348780e+003,1.443175e-001
6.352638e+003,1.580448e-001
6.356495e+003,1.778434e-001
6.360352e+003,1.567751e-001
6.364209e+003,1.318338e-001
6.368066e+003,1.371961e-001
6.371923e+003,1.376878e-001
6.375780e+003,1.250428e-001
6.379637e+003,1.250676e-001
6.383494e+003,1.328968e-001
6.387352e+003,1.446573e-001
6.391208e+003,1.318393e-001
6.395065e+003,1.348185e-001
6.398923e+003,1.574119e-001
6.402780e+003,1.640485e-001
6.406637e+003,1.523716e-001
6.410494e+003,1.377020e-001
6.414351e+003,1.298948e-001
6.418208e+003,1.259275e-001
6.422065e+003,1.297037e-001
6.425922e+003,1.362091e-001
6.429779e+003,1.437956e-001
6.433637e+003,1.443126e-001
6.437494e+003,1.406620e-001
6.441351e+003,1.351452e-001
6.445208e+003,1.210730e-001
6.449065e+003,1.234614e-001
6.452922e+003,1.270299e-001
6.456779e+003,1.198625e-001
6.460636e+003,1.149824e-001
6.464493e+003,1.266489e-001
6.468351e+003,1.392025e-001
6.472208e+003,1.469624e-001
6.476064e+003,1.363289e-001
6.479922e+003,1.273741e-001
6.483779e+003,1.370343e-001
6.487636e+003,1.557254e-001
6.491493e+003,1.478021e-001
6.495350e+003,1.414393e-001
6.499207e+003,1.504908e-001
6.503064e+003,1.474715e-001
6.506921e+003,1.337902e-001
6.510778e+003,1.292724e-001
6.514636e+003,1.317043e-001
6.518493e+003,1.328406e-001
6.522350e+003,1.188896e-001
6.526207e+003,1.331133e-001
6.530064e+003,1.174777e-001
6.533921e+003,1.086806e-001
6.537778e+003,1.378402e-001
6.541635e+003,1.322217e-001
6.545492e+003,1.131225e-001
6.549350e+003,1.124568e-001
6.553207e+003,1.078206e-001
6.557063e+003,1.059811e-001
6.560921e+003,1.159650e-001
6.564778e+003,1.014010e-001
6.568635e+003,1.225010e-001
6.572492e+003,1.449737e-001
6.576349e+003,1.310002e-001
6.580206e+003,1.328448e-001
6.584063e+003,1.503236e-001
6.587920e+003,1.453258e-001
6.591777e+003,1.274000e-001
6.595635e+003,1.190446e-001
6.599492e+003,1.195646e-001
6.603349e+003,1.143774e-001
6.607206e+003,1.106761e-001
6.611063e+003,1.241964e-001
6.614920e+003,1.123128e-001
6.618777e+003,9.683158e-002
6.622634e+003,1.053624e-001
6.626491e+003,1.096424e-001
6.630349e+003,1.274990e-001
6.634206e+003,1.340956e-001
6.638063e+003,1.162783e-001
6.641920e+003,1.185953e-001
6.645777e+003,1.310634e-001
6.649634e+003,1.111372e-001
6.653491e+003,9.612355e-002
6.657348e+003,1.142829e-001
6.661205e+003,1.305651e-001
6.665063e+003,1.338723e-001
6.668919e+003,1.439040e-001
6.672776e+003,1.392505e-001
6.676634e+003,1.132633e-001
6.680491e+003,1.058571e-001
6.684348e+003,1.169697e-001
6.688205e+003,1.235891e-001
6.692062e+003,1.193163e-001
6.695919e+003,1.470639e-001
6.699776e+003,1.519012e-001
6.703633e+003,1.258129e-001
6.707490e+003,1.197254e-001
6.711348e+003,1.043516e-001
6.715205e+003,1.090513e-001
6.719062e+003,1.359540e-001
6.722919e+003,1.421821e-001
6.726776e+003,1.272589e-001
6.730633e+003,1.062052e-001
6.734490e+003,1.022109e-001
6.738347e+003,1.060643e-001
6.742204e+003,1.149151e-001
6.746062e+003,1.271221e-001
6.749918e+003,1.221388e-001
6.753775e+003,1.038591e-001
6.757633e+003,1.024659e-001
6.761490e+003,1.066091e-001
6.765347e+003,9.786262e-002
6.769204e+003,1.032115e-001
6.773061e+003,1.091350e-001
6.776918e+003,1.091088e-001
6.780775e+003,1.248174e-001
6.784632e+003,1.229758e-001
6.788489e+003,1.063316e-001
6.792347e+003,1.007261e-001
6.796204e+003,1.032859e-001
6.800061e+003,1.038310e-001
6.803918e+003,1.215898e-001
6.807775e+003,1.564902e-001
6.811632e+003,1.566389e-001
6.815489e+003,1.237393e-001
6.819346e+003,1.222696e-001
6.823203e+003,1.089825e-001
6.827061e+003,1.162045e-001
6.830917e+003,1.395921e-001
6.834774e+003,1.415677e-001
6.838632e+003,1.283726e-001
6.842489e+003,1.076183e-001
6.846346e+003,1.035011e-001
6.850203e+003,1.157102e-001
6.854060e+003,1.280196e-001
6.857917e+003,1.401062e-001
6.861774e+003,1.277551e-001
6.865631e+003,1.234598e-001
6.869488e+003,1.287856e-001
6.873346e+003,1.447745e-001
6.877203e+003,1.438341e-001
6.881060e+003,1.221331e-001
6.884917e+003,1.123502e-001
6.888774e+003,1.105169e-001
6.892631e+003,1.134643e-001
6.896488e+003,1.288499e-001
6.900345e+003,1.274559e-001
6.904202e+003,1.053280e-001
6.908060e+003,1.143304e-001
6.911917e+003,1.267165e-001
6.915773e+003,1.071587e-001
6.919631e+003,9.744816e-002
6.923488e+003,1.073512e-001
6.927345e+003,1.080048e-001
6.931202e+003,1.427391e-001
6.935059e+003,1.703252e-001
6.938916e+003,1.355250e-001
6.942773e+003,1.041447e-001
6.946630e+003,1.016344e-001
6.950487e+003,1.016260e-001
6.954345e+003,1.169120e-001
6.958202e+003,1.469175e-001
6.962059e+003,1.515940e-001
6.965916e+003,1.496523e-001
6.969773e+003,1.652340e-001
6.973630e+003,1.433505e-001
6.977487e+003,1.193042e-001
6.981344e+003,1.216391e-001
6.985201e+003,1.125596e-001
6.989059e+003,1.068927e-001
6.992916e+003,1.204970e-001
6.996772e+003,1.267610e-001
7.000630e+003,1.203431e-001
7.004487e+003,1.291961e-001
7.008344e+003,1.364180e-001
7.012201e+003,1.518977e-001
7.016058e+003,1.739826e-001
7.019915e+003,1.700028e-001
7.023772e+003,1.368472e-001
7.027629e+003,8.050601e-002
7.031486e+003,5.803462e-002
7.035344e+003,8.642264e-002
7.039201e+003,1.191324e-001
7.043058e+003,1.203977e-001
7.046915e+003,1.229082e-001
7.050772e+003,1.271972e-001
7.054629e+003,1.484538e-001
7.058486e+003,1.549648e-001
7.062343e+003,1.251684e-001
7.066200e+003,9.480070e-002
7.070058e+003,8.850878e-002
7.073915e+003,1.099135e-001
7.077771e+003,1.151062e-001
7.081629e+003,1.113067e-001
7.085486e+003,1.103970e-001
7.089343e+003,1.140614e-001
7.093200e+003,1.085242e-001
7.097057e+003,1.182857e-001
7.100914e+003,1.219256e-001
7.104771e+003,1.127839e-001
7.108628e+003,8.248165e-002
7.112485e+003,6.681031e-002
7.116343e+003,8.116465e-002
7.120200e+003,1.189137e-001
7.124057e+003,1.606771e-001
7.127914e+003,1.449947e-001
7.131771e+003,1.366546e-001
7.135628e+003,1.319631e-001
7.139485e+003,1.052836e-001
7.143342e+003,9.904399e-002
7.147199e+003,1.184941e-001
7.151057e+003,1.457065e-001
7.154914e+003,1.479928e-001
7.158771e+003,1.479269e-001
7.162628e+003,1.371109e-001
7.166485e+003,1.284722e-001
7.170342e+003,1.222323e-001
7.174199e+003,1.150299e-001
7.178056e+003,1.011593e-001
7.181913e+003,5.908125e-002
7.185771e+003,7.601018e-002
7.189627e+003,1.142449e-001
7.193484e+003,1.071328e-001
7.197342e+003,1.138372e-001
7.201199e+003,1.195708e-001
7.205056e+003,9.380628e-002
7.208913e+003,9.343749e-002
7.212770e+003,1.278698e-001
7.216627e+003,1.455790e-001
7.220484e+003,1.375604e-001
7.224341e+003,1.060509e-001
7.228198e+003,8.807059e-002
7.232056e+003,1.118505e-001
7.235913e+003,1.475056e-001
7.239770e+003,1.492916e-001
7.243627e+003,1.446319e-001
7.247484e+003,1.110807e-001
7.251341e+003,1.202211e-001
7.255198e+003,1.462323e-001
7.259055e+003,1.329340e-001
7.262912e+003,8.549497e-002
7.266770e+003,6.143060e-002
7.270626e+003,1.044945e-001
7.274483e+003,1.498627e-001
7.278341e+003,1.407737e-001
7.282198e+003,1.039994e-001
7.286055e+003,1.198675e-001
7.289912e+003,1.349936e-001
7.293769e+003,1.254663e-001
7.297626e+003,1.181905e-001
7.301483e+003,9.862585e-002
7.305340e+003,8.444228e-002
7.309197e+003,1.195060e-001
7.313055e+003,1.711112e-001
7.316912e+003,1.481024e-001
7.320769e+003,9.273513e-002
7.324626e+003,9.502196e-002
7.328483e+003,1.011116e-001
7.332340e+003,1.050380e-001
7.336197e+003,9.548841e-002
7.340054e+003,1.033170e-001
7.343911e+003,1.018097e-001
7.347769e+003,1.157099e-001
7.351625e+003,1.195066e-001
7.355482e+003,9.870186e-002
7.359340e+003,6.175080e-002
7.363197e+003,6.024856e-002
7.367054e+003,9.797575e-002
7.370911e+003,1.556825e-001
7.374768e+003,1.626877e-001
7.378625e+003,1.310174e-001
7.382482e+003,1.196172e-001
7.386339e+003,1.102335e-001
7.390196e+003,8.912251e-002
7.394054e+003,1.129189e-001
7.397911e+003,1.569793e-001
7.401768e+003,1.462175e-001
7.405625e+003,1.327860e-001
7.409482e+003,1.351844e-001
7.413339e+003,1.084207e-001
7.417196e+003,1.092202e-001
7.421053e+003,1.332445e-001
7.424910e+003,1.527712e-001
7.428768e+003,1.456357e-001
7.432625e+003,1.004433e-001
7.436481e+003,1.064730e-001
7.440339e+003,1.485164e-001
7.444196e+003,1.126030e-001
7.448053e+003,8.451714e-002
7.451910e+003,1.045415e-001
7.455767e+003,1.479811e-001
7.459624e+003,1.821732e-001
7.463481e+003,1.112231e-001
7.467338e+003,6.981814e-002
7.471195e+003,9.565708e-002
7.475053e+003,8.820571e-002
7.478910e+003,8.011909e-002
7.482767e+003,1.075657e-001
7.486624e+003,1.397093e-001
7.490481e+003,1.345077e-001
7.494338e+003,9.611429e-002
7.498195e+003,1.142913e-001
7.502052e+003,1.486026e-001
7.505909e+003,9.774098e-002
7.509767e+003,8.813345e-002
7.513624e+003,9.933735e-002
7.517480e+003,7.676525e-002
7.521338e+003,8.723522e-002
7.525195e+003,1.097991e-001
7.529052e+003,1.064110e-001
7.532909e+003,9.035863e-002
7.536766e+003,5.701274e-002
7.540623e+003,6.798242e-002
7.544480e+003,9.542228e-002
7.548337e+003,1.247525e-001
7.552194e+003,1.747270e-001
7.556052e+003,1.616737e-001
7.559909e+003,8.499826e-002
7.563766e+003,6.760448e-002
7.567623e+003,1.050791e-001
7.571480e+003,8.653642e-002
7.575337e+003,1.072653e-001
7.579194e+003,1.489964e-001
7.583051e+003,1.231372e-001
7.586908e+003,9.043032e-002
7.590766e+003,1.082582e-001
7.594623e+003,1.012102e-001
7.598479e+003,9.608708e-002
7.602337e+003,7.400838e-002
7.606194e+003,5.758688e-002
7.610051e+003,8.241591e-002
7.613908e+003,9.675762e-002
7.617765e+003,8.479054e-002
7.621622e+003,7.715011e-002
7.625479e+003,7.570723e-002
7.629336e+003,1.017336e-001
7.633193e+003,1.327580e-001
7.637051e+003,1.353126e-001
7.640908e+003,8.768433e-002
7.644765e+003,1.278089e-001
7.648622e+003,1.366674e-001
7.652479e+003,7.043570e-002
7.656336e+003,1.009972e-001
7.660193e+003,1.806926e-001
7.664050e+003,1.534656e-001
7.667907e+003,1.396837e-001
7.671765e+003,1.746678e-001
7.675622e+003,1.566492e-001
7.679479e+003,1.019390e-001
7.683336e+003,1.017221e-001
7.687193e+003,1.086156e-001
7.691050e+003,9.901618e-002
7.694907e+003,6.902687e-002
7.698764e+003,5.745127e-002
7.702621e+003,1.048796e-001
7.706479e+003,1.837040e-001
7.710335e+003,1.374223e-001
7.714192e+003,1.468138e-001
7.718050e+003,1.837790e-001
7.721907e+003,2.188435e-001
7.725764e+003,1.192731e-001
7.729621e+003,6.230519e-002
7.733478e+003,9.857408e-002
7.737335e+003,1.391704e-001
7.741192e+003,1.744425e-001
7.745049e+003,1.391821e-001
7.748906e+003,9.567446e-002
7.752764e+003,1.174345e-001
7.756621e+003,9.140320e-002
7.760478e+003,7.555610e-002
7.764335e+003,1.170398e-001
7.768192e+003,1.074286e-001
7.772049e+003,9.335741e-002
7.775906e+003,9.917519e-002
7.779763e+003,8.106317e-002
7.783620e+003,7.915070e-002
7.787478e+003,1.287789e-001
7.791334e+003,9.787363e-002
7.795191e+003,7.016998e-002
7.799049e+003,7.711933e-002
7.802906e+003,4.130618e-002
7.806763e+003,2.221742e-002
7.810620e+003,6.051636e-002
7.814477e+003,1.141122e-001
7.818334e+003,1.687210e-001
7.822191e+003,1.863618e-001
7.826048e+003,1.788880e-001
7.829905e+003,1.460453e-001
7.833763e+003,1.377728e-001
7.837620e+003,1.475191e-001
7.841477e+003,1.115810e-001
7.845334e+003,8.103094e-002
7.849191e+003,1.545952e-001
7.853048e+003,2.264695e-001
7.856905e+003,1.770173e-001
7.860762e+003,9.352353e-002
7.864619e+003,1.531547e-001
7.868477e+003,2.338953e-001
7.872333e+003,1.312153e-001
7.876190e+003,8.447275e-002
7.880048e+003,1.276037e-001
7.883905e+003,1.892227e-001
7.887762e+003,2.127922e-001
7.891619e+003,1.476789e-001
7.895476e+003,9.833350e-002
7.899333e+003,1.472707e-001
7.903190e+003,1.898039e-001
7.907047e+003,1.916924e-001
7.910904e+003,1.278475e-001
7.914762e+003,1.081275e-001
7.918619e+003,1.890875e-001
7.922476e+003,2.241181e-001
7.926333e+003,2.165689e-001
7.930190e+003,2.342179e-001
7.934047e+003,1.784701e-001
7.937904e+003,5.378952e-002
7.941761e+003,2.543482e-002
7.945618e+003,2.385147e-002
7.949476e+003,7.109640e-002
7.953333e+003,1.258161e-002
7.957189e+003,2.496989e-003
7.961047e+003,1.180530e-001
7.964904e+003,2.529250e-001
7.968761e+003,2.590429e-001
7.972618e+003,2.432564e-001
7.976475e+003,2.797690e-001
7.980332e+003,2.329736e-001
7.984189e+003,1.366414e-001
7.988046e+003,1.936557e-001
7.991903e+003,1.873107e-001
7.995761e+003,8.201551e-002
7.999618e+003,7.683873e-002
