4.011380e+002,6.000000e+000
4.049951e+002,6.000000e+000
4.088522e+002,2.775772e-001
4.127093e+002,-1.509578e-001
4.165664e+002,-2.092754e-001
4.204235e+002,-1.306991e+000
4.242806e+002,9.224360e-002
4.281377e+002,6.000000e+000
4.319948e+002,6.000000e+000
4.358519e+002,-8.908631e-001
4.397090e+002,4.831942e-001
4.435661e+002,6.000000e+000
4.474232e+002,4.961845e-001
4.512803e+002,6.000000e+000
4.551374e+002,6.000000e+000
4.589945e+002,3.903451e-001
4.628516e+002,-8.706658e-002
4.667087e+002,-1.756110e-001
4.705658e+002,5.721300e-001
4.744229e+002,6.916241e-002
4.782800e+002,5.898582e-002
4.821371e+002,6.294643e-003
4.859941e+002,6.095482e-002
4.898513e+002,6.322704e-002
4.937083e+002,6.000000e+000
4.975654e+002,1.661838e-001
5.014225e+002,9.895471e-002
5.052796e+002,3.293547e-001
5.091367e+002,2.767783e-001
5.129938e+002,6.000000e+000
5.168509e+002,6.000000e+000
5.207080e+002,6.000000e+000
5.245651e+002,5.425700e-001
5.284222e+002,3.316871e-001
5.322793e+002,3.968930e-001
5.361364e+002,6.000000e+000
5.399935e+002,1.092587e+000
5.438506e+002,3.091496e-001
5.477077e+002,3.368900e-001
5.515648e+002,6.000000e+000
5.554219e+002,-8.985683e-001
5.592790e+002,-6.748186e-001
5.631361e+002,6.000000e+000
5.669932e+002,6.000000e+000
5.708503e+002,-2.663440e-001
5.747074e+002,6.000000e+000
5.785645e+002,-1.704697e+000
5.824216e+002,-6.906903e-001
5.862787e+002,3.642016e-001
5.901357e+002,3.981835e-001
5.939929e+002,-3.497411e-002
5.978499e+002,5.875459e-002
6.017070e+002,6.000000e+000
6.055641e+002,6.000000e+000
6.094212e+002,6.000000e+000
6.132783e+002,6.000000e+000
6.171354e+002,1.673528e-001
6.209925e+002,6.000000e+000
6.248496e+002,6.000000e+000
6.287067e+002,6.000000e+000
6.325638e+002,4.732744e-001
6.364209e+002,2.786830e-001
6.402780e+002,-9.585221e-001
6.441351e+002,1.832807e-001
6.479922e+002,6.000000e+000
6.518493e+002,2.067211e-001
6.557064e+002,6.000000e+000
6.595635e+002,-5.350012e-001
6.634205e+002,-1.737006e+000
6.672777e+002,6.000000e+000
6.711348e+002,3.633601e-001
6.749918e+002,6.000000e+000
6.788490e+002,2.470335e-001
6.827061e+002,6.000000e+000
6.865631e+002,-2.172580e-001
6.904203e+002,-5.010035e-001
6.942773e+002,6.000000e+000
6.981344e+002,6.000000e+000
7.019916e+002,2.570497e-001
7.058486e+002,6.000000e+000
7.097057e+002,6.000000e+000
7.135629e+002,-9.923621e-001
7.174199e+002,-2.221467e-001
7.212770e+002,6.000000e+000
7.251342e+002,6.000000e+000
7.289912e+002,1.112230e+000
7.328483e+002,6.000000e+000
7.367054e+002,-1.565795e+000
7.405625e+002,6.000000e+000
7.444196e+002,-1.036637e-001
7.482767e+002,1.268090e-001
7.521338e+002,6.000000e+000
7.559908e+002,6.000000e+000
7.598480e+002,6.000000e+000
7.637051e+002,6.000000e+000
7.675621e+002,6.000000e+000
7.714193e+002,1.848200e-001
7.752764e+002,6.000000e+000
7.791334e+002,6.000000e+000
7.829905e+002,-5.114172e-001
7.868477e+002,6.000000e+000
7.907047e+002,-1.063301e+000
7.945618e+002,-6.827239e-001
7.984189e+002,-8.184246e-001
8.022760e+002,-3.877150e-001
8.061331e+002,6.000000e+000
8.099902e+002,-3.447038e-001
8.138473e+002,8.466815e-002
8.177044e+002,3.848169e-002
8.215615e+002,3.010991e-001
8.254186e+002,8.846660e-001
8.292757e+002,4.132363e-001
8.331328e+002,2.946766e-001
8.369899e+002,3.950109e-001
8.408470e+002,3.722978e-001
8.447041e+002,1.962871e+000
8.485612e+002,6.000000e+000
8.524183e+002,6.000000e+000
8.562754e+002,6.000000e+000
8.601324e+002,6.000000e+000
8.639896e+002,2.129169e+000
8.678467e+002,2.227219e+000
8.717037e+002,6.000000e+000
8.755609e+002,6.000000e+000
8.794180e+002,6.000000e+000
8.832750e+002,6.000000e+000
8.871321e+002,6.000000e+000
8.909893e+002,1.353500e+000
8.948463e+002,1.235394e+000
8.987034e+002,2.774666e+000
9.025605e+002,6.000000e+000
9.064176e+002,1.915350e+000
9.102747e+002,1.736578e+000
9.141318e+002,1.187282e+000
9.179889e+002,1.192853e+000
9.218461e+002,2.068434e+000
9.257031e+002,6.000000e+000
9.295602e+002,6.000000e+000
9.334174e+002,1.588295e+000
9.372744e+002,1.464747e+000
9.411315e+002,1.316710e+000
9.449886e+002,1.751764e+000
9.488457e+002,2.667556e+000
9.527028e+002,1.411124e+000
9.565599e+002,1.246368e+000
9.604170e+002,1.186669e+000
9.642740e+002,1.590078e+000
9.681312e+002,1.789292e+000
9.719883e+002,2.466381e+000
9.758453e+002,6.000000e+000
9.797025e+002,6.000000e+000
9.835596e+002,6.000000e+000
9.874166e+002,6.000000e+000
9.912738e+002,6.000000e+000
9.951309e+002,6.000000e+000
9.989879e+002,2.270981e+000
1.002845e+003,1.631319e+000
1.006702e+003,1.621035e+000
1.010559e+003,2.452228e+000
1.014416e+003,2.195806e+000
1.018273e+003,2.045727e+000
1.022130e+003,2.005123e+000
1.025988e+003,1.753666e+000
1.029845e+003,1.765734e+000
1.033702e+003,1.678587e+000
1.037559e+003,1.604878e+000
1.041416e+003,1.605829e+000
1.045273e+003,1.479849e+000
1.049130e+003,1.389771e+000
1.052987e+003,1.596215e+000
1.056844e+003,1.585663e+000
1.060702e+003,1.587415e+000
1.064559e+003,1.971439e+000
1.068416e+003,1.823264e+000
1.072273e+003,1.563738e+000
1.076130e+003,1.457975e+000
1.079987e+003,1.294339e+000
1.083844e+003,1.236725e+000
1.087701e+003,1.326062e+000
1.091558e+003,1.406028e+000
1.095415e+003,1.411226e+000
1.099272e+003,1.417153e+000
1.103130e+003,1.379684e+000
1.106987e+003,1.438393e+000
1.110844e+003,1.330375e+000
1.114701e+003,1.242134e+000
1.118558e+003,1.240858e+000
1.122415e+003,1.251195e+000
1.126272e+003,1.230428e+000
1.130129e+003,1.237507e+000
1.133986e+003,1.205063e+000
1.137843e+003,1.202448e+000
1.141701e+003,1.245056e+000
1.145558e+003,1.218964e+000
1.149415e+003,1.173752e+000
1.153272e+003,1.159496e+000
1.157129e+003,1.089519e+000
1.160986e+003,1.094712e+000
1.164843e+003,1.148355e+000
1.168700e+003,1.186088e+000
1.172557e+003,1.144020e+000
1.176414e+003,1.101638e+000
1.180271e+003,1.071222e+000
1.184129e+003,1.096551e+000
1.187986e+003,1.114830e+000
1.191843e+003,1.110537e+000
1.195700e+003,1.091378e+000
1.199557e+003,1.064638e+000
1.203414e+003,1.043976e+000
1.207271e+003,1.024070e+000
1.211128e+003,9.735749e-001
1.214985e+003,9.221875e-001
1.218842e+003,9.033441e-001
1.222699e+003,8.975077e-001
1.226557e+003,8.371781e-001
1.230414e+003,7.536346e-001
1.234271e+003,7.141401e-001
1.238128e+003,6.782857e-001
1.241985e+003,6.495207e-001
1.245842e+003,6.231386e-001
1.249699e+003,6.111835e-001
1.253556e+003,5.938601e-001
1.257413e+003,5.507177e-001
1.261271e+003,5.250859e-001
1.265128e+003,5.140738e-001
1.268985e+003,4.891304e-001
1.272842e+003,4.726869e-001
1.276699e+003,4.607728e-001
1.280556e+003,4.422711e-001
1.284413e+003,4.234221e-001
1.288270e+003,4.083025e-001
1.292127e+003,3.995174e-001
1.295984e+003,3.893076e-001
1.299841e+003,3.817780e-001
1.303698e+003,3.773003e-001
1.307556e+003,3.656805e-001
1.311413e+003,3.637742e-001
1.315270e+003,3.611406e-001
1.319127e+003,3.483898e-001
1.322984e+003,3.392763e-001
1.326841e+003,3.300555e-001
1.330698e+003,3.176474e-001
1.334555e+003,3.204538e-001
1.338412e+003,3.234730e-001
1.342270e+003,3.224337e-001
1.346127e+003,3.192293e-001
1.349984e+003,3.115914e-001
1.353841e+003,3.085746e-001
1.357698e+003,3.102920e-001
1.361555e+003,3.072240e-001
1.365412e+003,3.034040e-001
1.369269e+003,3.007859e-001
1.373126e+003,3.061652e-001
1.376983e+003,3.127256e-001
1.380840e+003,3.193913e-001
1.384698e+003,3.286100e-001
1.388555e+003,3.353404e-001
1.392412e+003,3.397914e-001
1.396269e+003,3.458132e-001
1.400126e+003,3.509236e-001
1.403983e+003,3.607748e-001
1.407840e+003,3.678045e-001
1.411697e+003,3.702128e-001
1.415554e+003,3.748922e-001
1.419411e+003,3.825014e-001
1.423269e+003,3.937228e-001
1.427126e+003,4.049646e-001
1.430983e+003,4.100628e-001
1.434840e+003,4.074699e-001
1.438697e+003,4.110113e-001
1.442554e+003,4.026774e-001
1.446411e+003,3.923484e-001
1.450268e+003,3.851150e-001
1.454125e+003,3.761221e-001
1.457982e+003,3.628226e-001
1.461839e+003,3.552173e-001
1.465697e+003,3.539409e-001
1.469554e+003,3.514843e-001
1.473411e+003,3.529350e-001
1.477268e+003,3.572397e-001
1.481125e+003,3.587178e-001
1.484982e+003,3.675603e-001
1.488839e+003,3.812705e-001
1.492696e+003,3.882637e-001
1.496553e+003,3.946638e-001
1.500411e+003,4.068556e-001
1.504268e+003,4.170811e-001
1.508125e+003,4.115754e-001
1.511982e+003,4.098939e-001
1.515839e+003,4.041599e-001
1.519696e+003,3.983424e-001
1.523553e+003,3.894344e-001
1.527410e+003,3.800258e-001
1.531267e+003,3.834127e-001
1.535124e+003,3.744322e-001
1.538981e+003,3.584761e-001
1.542839e+003,3.457130e-001
1.546696e+003,3.370805e-001
1.550553e+003,3.372001e-001
1.554410e+003,3.357048e-001
1.558267e+003,3.241213e-001
1.562124e+003,3.095016e-001
1.565981e+003,2.986330e-001
1.569838e+003,3.007887e-001
1.573695e+003,3.068490e-001
1.577552e+003,3.054543e-001
1.581410e+003,3.018059e-001
1.585267e+003,3.014859e-001
1.589124e+003,3.063337e-001
1.592981e+003,3.169304e-001
1.596838e+003,3.285324e-001
1.600695e+003,3.393053e-001
1.604552e+003,3.537140e-001
1.608409e+003,3.678805e-001
1.612266e+003,3.822008e-001
1.616123e+003,3.961976e-001
1.619980e+003,4.207700e-001
1.623838e+003,4.466816e-001
1.627695e+003,4.519117e-001
1.631552e+003,4.610944e-001
1.635409e+003,4.772503e-001
1.639266e+003,4.880099e-001
1.643123e+003,4.851086e-001
1.646980e+003,4.715281e-001
1.650837e+003,4.579240e-001
1.654694e+003,4.448321e-001
1.658551e+003,4.306176e-001
1.662409e+003,4.175324e-001
1.666266e+003,4.008717e-001
1.670123e+003,3.831394e-001
1.673980e+003,3.657572e-001
1.677837e+003,3.469996e-001
1.681694e+003,3.323346e-001
1.685551e+003,3.206034e-001
1.689408e+003,3.062278e-001
1.693265e+003,2.996870e-001
1.697122e+003,2.928905e-001
1.700979e+003,2.907484e-001
1.704837e+003,2.888312e-001
1.708694e+003,2.825986e-001
1.712551e+003,2.771002e-001
1.716408e+003,2.753590e-001
1.720265e+003,2.717886e-001
1.724122e+003,2.664971e-001
1.727979e+003,2.663867e-001
1.731836e+003,2.625060e-001
1.735693e+003,2.619178e-001
1.739550e+003,2.636062e-001
1.743408e+003,2.661049e-001
1.747265e+003,2.666366e-001
1.751122e+003,2.678793e-001
1.754979e+003,2.724862e-001
1.758836e+003,2.764001e-001
1.762693e+003,2.756638e-001
1.766550e+003,2.765811e-001
1.770407e+003,2.787656e-001
1.774264e+003,2.787581e-001
1.778121e+003,2.751392e-001
1.781979e+003,2.709462e-001
1.785836e+003,2.682917e-001
1.789693e+003,2.641306e-001
1.793550e+003,2.563670e-001
1.797407e+003,2.505195e-001
1.801264e+003,2.489128e-001
1.805121e+003,2.474625e-001
1.808978e+003,2.451282e-001
1.812835e+003,2.434528e-001
1.816692e+003,2.402332e-001
1.820549e+003,2.371537e-001
1.824407e+003,2.315033e-001
1.828264e+003,2.328159e-001
1.832121e+003,2.371922e-001
1.835978e+003,2.420907e-001
1.839835e+003,2.400523e-001
1.843692e+003,2.352990e-001
1.847549e+003,2.356553e-001
1.851406e+003,2.341866e-001
1.855263e+003,2.338216e-001
1.859120e+003,2.340975e-001
1.862978e+003,2.362276e-001
1.866835e+003,2.373688e-001
1.870692e+003,2.425183e-001
1.874549e+003,2.431827e-001
1.878406e+003,2.451512e-001
1.882263e+003,2.439435e-001
1.886120e+003,2.416570e-001
1.889977e+003,2.450226e-001
1.893834e+003,2.442415e-001
1.897691e+003,2.390440e-001
1.901548e+003,2.373302e-001
1.905406e+003,2.360607e-001
1.909263e+003,2.327165e-001
1.913120e+003,2.278331e-001
1.916977e+003,2.258381e-001
1.920834e+003,2.239167e-001
1.924691e+003,2.204314e-001
1.928548e+003,2.157252e-001
1.932405e+003,2.136066e-001
1.936262e+003,2.136385e-001
1.940119e+003,2.142130e-001
1.943977e+003,2.124885e-001
1.947834e+003,2.087703e-001
1.951691e+003,2.063796e-001
1.955548e+003,2.030322e-001
1.959405e+003,2.034381e-001
1.963262e+003,2.066676e-001
1.967119e+003,2.086845e-001
1.970976e+003,2.069461e-001
1.974833e+003,2.057396e-001
1.978690e+003,2.085873e-001
1.982547e+003,2.081353e-001
1.986405e+003,2.098429e-001
1.990262e+003,2.110936e-001
1.994119e+003,2.147011e-001
1.997976e+003,2.184796e-001
2.001833e+003,2.166455e-001
2.005690e+003,2.156413e-001
2.009547e+003,2.178034e-001
2.013404e+003,2.190226e-001
2.017261e+003,2.194656e-001
2.021118e+003,2.199930e-001
2.024976e+003,2.163655e-001
2.028833e+003,2.115041e-001
2.032690e+003,2.118468e-001
2.036547e+003,2.130389e-001
2.040404e+003,2.074592e-001
2.044261e+003,2.007218e-001
2.048118e+003,1.979876e-001
2.051975e+003,1.976932e-001
2.055832e+003,1.979305e-001
2.059689e+003,1.928265e-001
2.063546e+003,1.871636e-001
2.067404e+003,1.852742e-001
2.071261e+003,1.840440e-001
2.075118e+003,1.829313e-001
2.078975e+003,1.835112e-001
2.082832e+003,1.831118e-001
2.086689e+003,1.887925e-001
2.090546e+003,1.952098e-001
2.094403e+003,1.935251e-001
2.098260e+003,1.926532e-001
2.102117e+003,1.961352e-001
2.105975e+003,1.998430e-001
2.109832e+003,1.981267e-001
2.113689e+003,1.972406e-001
2.117546e+003,1.987808e-001
2.121403e+003,1.999814e-001
2.125260e+003,2.037817e-001
2.129117e+003,2.077578e-001
2.132974e+003,2.097974e-001
2.136831e+003,2.135741e-001
2.140688e+003,2.154498e-001
2.144545e+003,2.103725e-001
2.148403e+003,2.067532e-001
2.152260e+003,2.056240e-001
2.156117e+003,2.061388e-001
2.159974e+003,2.063087e-001
2.163831e+003,2.012314e-001
2.167688e+003,2.005475e-001
2.171545e+003,2.011577e-001
2.175402e+003,1.959671e-001
2.179259e+003,1.935045e-001
2.183116e+003,1.900965e-001
2.186974e+003,1.874723e-001
2.190831e+003,1.886589e-001
2.194688e+003,1.870071e-001
2.198545e+003,1.861454e-001
2.202402e+003,1.871710e-001
2.206259e+003,1.906582e-001
2.210116e+003,1.914771e-001
2.213973e+003,1.904998e-001
2.217830e+003,1.879061e-001
2.221688e+003,1.905294e-001
2.225544e+003,1.967467e-001
2.229402e+003,1.965208e-001
2.233259e+003,1.960776e-001
2.237116e+003,2.002787e-001
2.240973e+003,2.037793e-001
2.244830e+003,2.071214e-001
2.248687e+003,2.117742e-001
2.252544e+003,2.098399e-001
2.256401e+003,2.095790e-001
2.260258e+003,2.146623e-001
2.264115e+003,2.182883e-001
2.267973e+003,2.170172e-001
2.271830e+003,2.127094e-001
2.275687e+003,2.127064e-001
2.279544e+003,2.149393e-001
2.283401e+003,2.142037e-001
2.287258e+003,2.128614e-001
2.291115e+003,2.098005e-001
2.294972e+003,2.036311e-001
2.298829e+003,2.016445e-001
2.302687e+003,2.033775e-001
2.306543e+003,2.033536e-001
2.310401e+003,2.002969e-001
2.314258e+003,1.948545e-001
2.318115e+003,1.894868e-001
2.321972e+003,1.896001e-001
2.325829e+003,1.923749e-001
2.329686e+003,1.924937e-001
2.333543e+003,1.878448e-001
2.337400e+003,1.883736e-001
2.341257e+003,1.977681e-001
2.345115e+003,2.027112e-001
2.348972e+003,2.003132e-001
2.352829e+003,1.967322e-001
2.356686e+003,1.990711e-001
2.360543e+003,1.978794e-001
2.364400e+003,1.930838e-001
2.368257e+003,1.941072e-001
2.372114e+003,2.015737e-001
2.375971e+003,2.059515e-001
2.379828e+003,2.100386e-001
2.383686e+003,2.183732e-001
2.387542e+003,2.198390e-001
2.391400e+003,2.163916e-001
2.395257e+003,2.172440e-001
2.399114e+003,2.227737e-001
2.402971e+003,2.203382e-001
2.406828e+003,2.142105e-001
2.410685e+003,2.109961e-001
2.414542e+003,2.069487e-001
2.418399e+003,2.063025e-001
2.422256e+003,2.059226e-001
2.426114e+003,2.043586e-001
2.429971e+003,2.044705e-001
2.433828e+003,2.050640e-001
2.437685e+003,2.016371e-001
2.441542e+003,1.965512e-001
2.445399e+003,1.957208e-001
2.449256e+003,1.944687e-001
2.453113e+003,1.902995e-001
2.456970e+003,1.909233e-001
2.460827e+003,1.914942e-001
2.464684e+003,1.910108e-001
2.468542e+003,1.918590e-001
2.472399e+003,1.949880e-001
2.476256e+003,1.940223e-001
2.480113e+003,1.912975e-001
2.483970e+003,1.908158e-001
2.487827e+003,1.904163e-001
2.491684e+003,1.921146e-001
2.495541e+003,1.976936e-001
2.499398e+003,2.014884e-001
2.503255e+003,2.063701e-001
2.507113e+003,2.084062e-001
2.510969e+003,2.071343e-001
2.514827e+003,2.068925e-001
2.518684e+003,2.124630e-001
2.522541e+003,2.168578e-001
2.526398e+003,2.143838e-001
2.530255e+003,2.092188e-001
2.534112e+003,2.120591e-001
2.537969e+003,2.172900e-001
2.541826e+003,2.154260e-001
2.545683e+003,2.085336e-001
2.549541e+003,2.077309e-001
2.553398e+003,2.110611e-001
2.557255e+003,2.072983e-001
2.561112e+003,2.027223e-001
2.564969e+003,1.987399e-001
2.568826e+003,2.004702e-001
2.572683e+003,2.028650e-001
2.576540e+003,2.024477e-001
2.580397e+003,2.033826e-001
2.584254e+003,2.035717e-001
2.588112e+003,2.024964e-001
2.591969e+003,2.050202e-001
2.595826e+003,2.035277e-001
2.599683e+003,2.017571e-001
2.603540e+003,2.048583e-001
2.607397e+003,2.087081e-001
2.611254e+003,2.113883e-001
2.615111e+003,2.128659e-001
2.618968e+003,2.151066e-001
2.622825e+003,2.189600e-001
2.626682e+003,2.238285e-001
2.630540e+003,2.329059e-001
2.634397e+003,2.384075e-001
2.638254e+003,2.359469e-001
2.642111e+003,2.409869e-001
2.645968e+003,2.478171e-001
2.649825e+003,2.459277e-001
2.653682e+003,2.422608e-001
2.657539e+003,2.432225e-001
2.661396e+003,2.420478e-001
2.665253e+003,2.410837e-001
2.669111e+003,2.441239e-001
2.672968e+003,2.437333e-001
2.676825e+003,2.403268e-001
2.680682e+003,2.435340e-001
2.684539e+003,2.467981e-001
2.688396e+003,2.469965e-001
2.692253e+003,2.468015e-001
2.696110e+003,2.454583e-001
2.699967e+003,2.424833e-001
2.703824e+003,2.413985e-001
2.707681e+003,2.452942e-001
2.711539e+003,2.468814e-001
2.715396e+003,2.460410e-001
2.719253e+003,2.488693e-001
2.723110e+003,2.519973e-001
2.726967e+003,2.530935e-001
2.730824e+003,2.564504e-001
2.734681e+003,2.646357e-001
2.738538e+003,2.687560e-001
2.742395e+003,2.699341e-001
2.746252e+003,2.699553e-001
2.750110e+003,2.745263e-001
2.753967e+003,2.774085e-001
2.757824e+003,2.804231e-001
2.761681e+003,2.861339e-001
2.765538e+003,2.930170e-001
2.769395e+003,2.952706e-001
2.773252e+003,2.940097e-001
2.777109e+003,2.970323e-001
2.780966e+003,3.033371e-001
2.784823e+003,3.058404e-001
2.788680e+003,3.063822e-001
2.792538e+003,3.075654e-001
2.796395e+003,3.071401e-001
2.800252e+003,3.088328e-001
2.804109e+003,3.075902e-001
2.807966e+003,3.040497e-001
2.811823e+003,3.051523e-001
2.815680e+003,3.066579e-001
2.819537e+003,3.058670e-001
2.823394e+003,3.096798e-001
2.827251e+003,3.161868e-001
2.831109e+003,3.176902e-001
2.834966e+003,3.166937e-001
2.838823e+003,3.195986e-001
2.842680e+003,3.211312e-001
2.846537e+003,3.266242e-001
2.850394e+003,3.298570e-001
2.854251e+003,3.327874e-001
2.858108e+003,3.370214e-001
2.861965e+003,3.382830e-001
2.865823e+003,3.390681e-001
2.869679e+003,3.440379e-001
2.873537e+003,3.497347e-001
2.877394e+003,3.523780e-001
2.881251e+003,3.627547e-001
2.885108e+003,3.682030e-001
2.888965e+003,3.695337e-001
2.892822e+003,3.714618e-001
2.896679e+003,3.718739e-001
2.900536e+003,3.782543e-001
2.904393e+003,3.802472e-001
2.908250e+003,3.817810e-001
2.912108e+003,3.873335e-001
2.915965e+003,3.921193e-001
2.919822e+003,3.931488e-001
2.923679e+003,3.922721e-001
2.927536e+003,3.985888e-001
2.931393e+003,3.994334e-001
2.935250e+003,3.912121e-001
2.939107e+003,3.939878e-001
2.942964e+003,3.987767e-001
2.946822e+003,3.947574e-001
2.950678e+003,3.941027e-001
2.954536e+003,4.004673e-001
2.958393e+003,4.079655e-001
2.962250e+003,4.091780e-001
2.966107e+003,4.052511e-001
2.969964e+003,4.059690e-001
2.973821e+003,4.057060e-001
2.977678e+003,4.091657e-001
2.981535e+003,4.149906e-001
2.985392e+003,4.279993e-001
2.989250e+003,4.398136e-001
2.993107e+003,4.455919e-001
2.996964e+003,4.428664e-001
3.000821e+003,4.431153e-001
3.004678e+003,4.506834e-001
3.008535e+003,4.595079e-001
3.012392e+003,4.628925e-001
3.016249e+003,4.645020e-001
3.020106e+003,4.653116e-001
3.023963e+003,4.657095e-001
3.027821e+003,4.778178e-001
3.031677e+003,4.890083e-001
3.035535e+003,4.879900e-001
3.039392e+003,4.921767e-001
3.043249e+003,4.991517e-001
3.047106e+003,5.028096e-001
3.050963e+003,4.964385e-001
3.054820e+003,4.933100e-001
3.058677e+003,5.012677e-001
3.062534e+003,5.073410e-001
3.066391e+003,5.093035e-001
3.070249e+003,5.142280e-001
3.074106e+003,5.132162e-001
3.077963e+003,5.066845e-001
3.081820e+003,5.128261e-001
3.085677e+003,5.269185e-001
3.089534e+003,5.279489e-001
3.093391e+003,5.199236e-001
3.097248e+003,5.243384e-001
3.101105e+003,5.347488e-001
3.104962e+003,5.378245e-001
3.108820e+003,5.420322e-001
3.112677e+003,5.464313e-001
3.116534e+003,5.528359e-001
3.120391e+003,5.542994e-001
3.124248e+003,5.637740e-001
3.128105e+003,5.709195e-001
3.131962e+003,5.781634e-001
3.135819e+003,5.858306e-001
3.139676e+003,5.921243e-001
3.143533e+003,6.004376e-001
3.147390e+003,6.044297e-001
3.151248e+003,6.005691e-001
3.155105e+003,6.009788e-001
3.158962e+003,6.097267e-001
3.162819e+003,6.099872e-001
3.166676e+003,6.029077e-001
3.170533e+003,6.080292e-001
3.174390e+003,6.213959e-001
3.178247e+003,6.388916e-001
3.182104e+003,6.412287e-001
3.185961e+003,6.356267e-001
3.189819e+003,6.368448e-001
3.193676e+003,6.349034e-001
3.197533e+003,6.352327e-001
3.201390e+003,6.320707e-001
3.205247e+003,6.419969e-001
3.209104e+003,6.469321e-001
3.212961e+003,6.419858e-001
3.216818e+003,6.524907e-001
3.220675e+003,6.469819e-001
3.224532e+003,6.444465e-001
3.228389e+003,6.482244e-001
3.232247e+003,6.558354e-001
3.236104e+003,6.655847e-001
3.239961e+003,6.754428e-001
3.243818e+003,6.817666e-001
3.247675e+003,6.833556e-001
3.251532e+003,6.809275e-001
3.255389e+003,6.783494e-001
3.259246e+003,6.901417e-001
3.263103e+003,6.977074e-001
3.266960e+003,6.904699e-001
3.270818e+003,6.897705e-001
3.274675e+003,6.911759e-001
3.278532e+003,6.941589e-001
3.282389e+003,7.043561e-001
3.286246e+003,7.069293e-001
3.290103e+003,7.055704e-001
3.293960e+003,7.096694e-001
3.297817e+003,7.196009e-001
3.301674e+003,7.212059e-001
3.305531e+003,7.236257e-001
3.309388e+003,7.271216e-001
3.313246e+003,7.181724e-001
3.317103e+003,7.165524e-001
3.320960e+003,7.174294e-001
3.324817e+003,7.181028e-001
3.328674e+003,7.261919e-001
3.332531e+003,7.378980e-001
3.336388e+003,7.483847e-001
3.340245e+003,7.531979e-001
3.344102e+003,7.504905e-001
3.347959e+003,7.366891e-001
3.351817e+003,7.213973e-001
3.355674e+003,7.298121e-001
3.359531e+003,7.581664e-001
3.363388e+003,7.695867e-001
3.367245e+003,7.627554e-001
3.371102e+003,7.522414e-001
3.374959e+003,7.525042e-001
3.378816e+003,7.629360e-001
3.382673e+003,7.693040e-001
3.386530e+003,7.747492e-001
3.390387e+003,7.776803e-001
3.394245e+003,7.728835e-001
3.398102e+003,7.814869e-001
3.401959e+003,7.844627e-001
3.405816e+003,7.943626e-001
3.409673e+003,8.129278e-001
3.413530e+003,8.110072e-001
3.417387e+003,7.963854e-001
3.421244e+003,7.996510e-001
3.425101e+003,8.119642e-001
3.428958e+003,8.253943e-001
3.432815e+003,8.340724e-001
3.436673e+003,8.153579e-001
3.440530e+003,8.037242e-001
3.444387e+003,8.078908e-001
3.448244e+003,8.182784e-001
3.452101e+003,8.194521e-001
3.455958e+003,8.042032e-001
3.459815e+003,8.110748e-001
3.463672e+003,8.253868e-001
3.467529e+003,8.205762e-001
3.471386e+003,8.040430e-001
3.475244e+003,7.913485e-001
3.479101e+003,7.800529e-001
3.482958e+003,7.891445e-001
3.486815e+003,7.947080e-001
3.490672e+003,8.056917e-001
3.494529e+003,8.082033e-001
3.498386e+003,8.077622e-001
3.502243e+003,8.172548e-001
3.506100e+003,8.237396e-001
3.509958e+003,8.168260e-001
3.513814e+003,8.016940e-001
3.517672e+003,8.100698e-001
3.521529e+003,8.140748e-001
3.525386e+003,7.958448e-001
3.529243e+003,8.035538e-001
3.533100e+003,8.271430e-001
3.536957e+003,8.237226e-001
3.540814e+003,8.325680e-001
3.544671e+003,8.408868e-001
3.548528e+003,8.297261e-001
3.552385e+003,8.114200e-001
3.556243e+003,8.122606e-001
3.560100e+003,8.053384e-001
3.563957e+003,7.926446e-001
3.567814e+003,7.943338e-001
3.571671e+003,8.016144e-001
3.575528e+003,7.978611e-001
3.579385e+003,7.960252e-001
3.583242e+003,7.747591e-001
3.587099e+003,7.599692e-001
3.590957e+003,7.511015e-001
3.594813e+003,7.472239e-001
3.598671e+003,7.241406e-001
3.602528e+003,6.925921e-001
3.606385e+003,6.791514e-001
3.610242e+003,6.742754e-001
3.614099e+003,6.506634e-001
3.617956e+003,6.255397e-001
3.621813e+003,6.247164e-001
3.625670e+003,5.998064e-001
3.629527e+003,5.561947e-001
3.633385e+003,5.209649e-001
3.637242e+003,4.958583e-001
3.641099e+003,4.713462e-001
3.644956e+003,4.356878e-001
3.648813e+003,4.075251e-001
3.652670e+003,3.889893e-001
3.656527e+003,3.672953e-001
3.660384e+003,3.406664e-001
3.664241e+003,3.242095e-001
3.668098e+003,3.056542e-001
3.671956e+003,2.883437e-001
3.675813e+003,2.802936e-001
3.679670e+003,2.673489e-001
3.683527e+003,2.538304e-001
3.687384e+003,2.419420e-001
3.691241e+003,2.330976e-001
3.695098e+003,2.236619e-001
3.698955e+003,2.141178e-001
3.702812e+003,2.022448e-001
3.706669e+003,1.921457e-001
3.710526e+003,1.863696e-001
3.714384e+003,1.829442e-001
3.718241e+003,1.786413e-001
3.722098e+003,1.721589e-001
3.725955e+003,1.666316e-001
3.729812e+003,1.675222e-001
3.733669e+003,1.630843e-001
3.737526e+003,1.571285e-001
3.741383e+003,1.542281e-001
3.745240e+003,1.536626e-001
3.749097e+003,1.589775e-001
3.752955e+003,1.604311e-001
3.756812e+003,1.595661e-001
3.760669e+003,1.589934e-001
3.764526e+003,1.590564e-001
3.768383e+003,1.583579e-001
3.772240e+003,1.571492e-001
3.776097e+003,1.610702e-001
3.779954e+003,1.664252e-001
3.783811e+003,1.644502e-001
3.787668e+003,1.657182e-001
3.791525e+003,1.722325e-001
3.795383e+003,1.716052e-001
3.799240e+003,1.691112e-001
3.803097e+003,1.691196e-001
3.806954e+003,1.644173e-001
3.810811e+003,1.620736e-001
3.814668e+003,1.644872e-001
3.818525e+003,1.682037e-001
3.822382e+003,1.644157e-001
3.826239e+003,1.564949e-001
3.830096e+003,1.554147e-001
3.833954e+003,1.570295e-001
3.837811e+003,1.542954e-001
3.841668e+003,1.497185e-001
3.845525e+003,1.505060e-001
3.849382e+003,1.487418e-001
3.853239e+003,1.433995e-001
3.857096e+003,1.470666e-001
3.860953e+003,1.482349e-001
3.864810e+003,1.455474e-001
3.868667e+003,1.395007e-001
3.872524e+003,1.373085e-001
3.876382e+003,1.446463e-001
3.880239e+003,1.536278e-001
3.884096e+003,1.530254e-001
3.887953e+003,1.502493e-001
3.891810e+003,1.494737e-001
3.895667e+003,1.523313e-001
3.899524e+003,1.556642e-001
3.903381e+003,1.567318e-001
3.907238e+003,1.567971e-001
3.911095e+003,1.560525e-001
3.914953e+003,1.592000e-001
3.918810e+003,1.645921e-001
3.922667e+003,1.662019e-001
3.926524e+003,1.620390e-001
3.930381e+003,1.649184e-001
3.934238e+003,1.669704e-001
3.938095e+003,1.665150e-001
3.941952e+003,1.623448e-001
3.945809e+003,1.622184e-001
3.949667e+003,1.627229e-001
3.953523e+003,1.561263e-001
3.957381e+003,1.484293e-001
3.961238e+003,1.483286e-001
3.965095e+003,1.503884e-001
3.968952e+003,1.518150e-001
3.972809e+003,1.547420e-001
3.976666e+003,1.521327e-001
3.980523e+003,1.478528e-001
3.984380e+003,1.435467e-001
3.988237e+003,1.478480e-001
3.992094e+003,1.521056e-001
3.995952e+003,1.526281e-001
3.999809e+003,1.511306e-001
4.003666e+003,1.441528e-001
4.007523e+003,1.399332e-001
4.011380e+003,1.452631e-001
4.015237e+003,1.448811e-001
4.019094e+003,1.435255e-001
4.022951e+003,1.530659e-001
4.026808e+003,1.583076e-001
4.030666e+003,1.550532e-001
4.034522e+003,1.541956e-001
4.038380e+003,1.565341e-001
4.042237e+003,1.605039e-001
4.046094e+003,1.608064e-001
4.049951e+003,1.634242e-001
4.053808e+003,1.603710e-001
4.057665e+003,1.575655e-001
4.061522e+003,1.626978e-001
4.065379e+003,1.609532e-001
4.069236e+003,1.560229e-001
4.073094e+003,1.591807e-001
4.076951e+003,1.615218e-001
4.080808e+003,1.569696e-001
4.084665e+003,1.484847e-001
4.088522e+003,1.463621e-001
4.092379e+003,1.455841e-001
4.096236e+003,1.488092e-001
4.100093e+003,1.554851e-001
4.103950e+003,1.567056e-001
4.107808e+003,1.462685e-001
4.111665e+003,1.405569e-001
4.115521e+003,1.439773e-001
4.119379e+003,1.450668e-001
4.123236e+003,1.474095e-001
4.127093e+003,1.474974e-001
4.130950e+003,1.468078e-001
4.134807e+003,1.421300e-001
4.138664e+003,1.350756e-001
4.142521e+003,1.410117e-001
4.146378e+003,1.457381e-001
4.150235e+003,1.432688e-001
4.154093e+003,1.459676e-001
4.157950e+003,1.528478e-001
4.161807e+003,1.516003e-001
4.165664e+003,1.452216e-001
4.169521e+003,1.482211e-001
4.173378e+003,1.543234e-001
4.177235e+003,1.580847e-001
4.181092e+003,1.587286e-001
4.184949e+003,1.577325e-001
4.188807e+003,1.625051e-001
4.192664e+003,1.637757e-001
4.196521e+003,1.534378e-001
4.200378e+003,1.523852e-001
4.204235e+003,1.552776e-001
4.208092e+003,1.558525e-001
4.211949e+003,1.566896e-001
4.215806e+003,1.615929e-001
4.219663e+003,1.629170e-001
4.223521e+003,1.526212e-001
4.227377e+003,1.448622e-001
4.231234e+003,1.440449e-001
4.235092e+003,1.432957e-001
4.238949e+003,1.394268e-001
4.242806e+003,1.372557e-001
4.246663e+003,1.356859e-001
4.250520e+003,1.383208e-001
4.254377e+003,1.405354e-001
4.258234e+003,1.387445e-001
4.262091e+003,1.367943e-001
4.265948e+003,1.344914e-001
4.269806e+003,1.435762e-001
4.273663e+003,1.507653e-001
4.277520e+003,1.485455e-001
4.281377e+003,1.484759e-001
4.285234e+003,1.543169e-001
4.289091e+003,1.561234e-001
4.292948e+003,1.556964e-001
4.296805e+003,1.601898e-001
4.300662e+003,1.571154e-001
4.304520e+003,1.557509e-001
4.308376e+003,1.580362e-001
4.312233e+003,1.589418e-001
4.316091e+003,1.554396e-001
4.319948e+003,1.523814e-001
4.323805e+003,1.513067e-001
4.327662e+003,1.532346e-001
4.331519e+003,1.572706e-001
4.335376e+003,1.529279e-001
4.339233e+003,1.493147e-001
4.343090e+003,1.577872e-001
4.346947e+003,1.604479e-001
4.350805e+003,1.587269e-001
4.354662e+003,1.552369e-001
4.358519e+003,1.526378e-001
4.362376e+003,1.555340e-001
4.366233e+003,1.528908e-001
4.370090e+003,1.536955e-001
4.373947e+003,1.541412e-001
4.377804e+003,1.443419e-001
4.381661e+003,1.339558e-001
4.385519e+003,1.298305e-001
4.389375e+003,1.356237e-001
4.393232e+003,1.402704e-001
4.397090e+003,1.412799e-001
4.400947e+003,1.506953e-001
4.404804e+003,1.616845e-001
4.408661e+003,1.609118e-001
4.412518e+003,1.558927e-001
4.416375e+003,1.496136e-001
4.420232e+003,1.525924e-001
4.424089e+003,1.595183e-001
4.427946e+003,1.552894e-001
4.431804e+003,1.512298e-001
4.435661e+003,1.523821e-001
4.439518e+003,1.532322e-001
4.443375e+003,1.576654e-001
4.447232e+003,1.631138e-001
4.451089e+003,1.621082e-001
4.454946e+003,1.669692e-001
4.458803e+003,1.686209e-001
4.462660e+003,1.613469e-001
4.466518e+003,1.532987e-001
4.470375e+003,1.530421e-001
4.474231e+003,1.600888e-001
4.478089e+003,1.635955e-001
4.481946e+003,1.594931e-001
4.485803e+003,1.591245e-001
4.489660e+003,1.619743e-001
4.493517e+003,1.633349e-001
4.497375e+003,1.588205e-001
4.501231e+003,1.569453e-001
4.505088e+003,1.586906e-001
4.508946e+003,1.551326e-001
4.512803e+003,1.560446e-001
4.516660e+003,1.563782e-001
4.520517e+003,1.482223e-001
4.524374e+003,1.460155e-001
4.528231e+003,1.501164e-001
4.532088e+003,1.540640e-001
4.535945e+003,1.491322e-001
4.539802e+003,1.452493e-001
4.543660e+003,1.474641e-001
4.547517e+003,1.502698e-001
4.551374e+003,1.501306e-001
4.555231e+003,1.542567e-001
4.559088e+003,1.572278e-001
4.562945e+003,1.480846e-001
4.566802e+003,1.508323e-001
4.570659e+003,1.563039e-001
4.574516e+003,1.614299e-001
4.578374e+003,1.626672e-001
4.582230e+003,1.577393e-001
4.586087e+003,1.550101e-001
4.589945e+003,1.546047e-001
4.593802e+003,1.649244e-001
4.597659e+003,1.685478e-001
4.601516e+003,1.594228e-001
4.605373e+003,1.519191e-001
4.609230e+003,1.565137e-001
4.613087e+003,1.614017e-001
4.616944e+003,1.586313e-001
4.620801e+003,1.578764e-001
4.624659e+003,1.536979e-001
4.628516e+003,1.532480e-001
4.632373e+003,1.459866e-001
4.636230e+003,1.358072e-001
4.640087e+003,1.351251e-001
4.643944e+003,1.446850e-001
4.647801e+003,1.460128e-001
4.651658e+003,1.443160e-001
4.655515e+003,1.470891e-001
4.659373e+003,1.419174e-001
4.663229e+003,1.438265e-001
4.667086e+003,1.421114e-001
4.670944e+003,1.425358e-001
4.674801e+003,1.440873e-001
4.678658e+003,1.409902e-001
4.682515e+003,1.472733e-001
4.686372e+003,1.573962e-001
4.690229e+003,1.620466e-001
4.694086e+003,1.570646e-001
4.697943e+003,1.545197e-001
4.701800e+003,1.507830e-001
4.705658e+003,1.473219e-001
4.709515e+003,1.568706e-001
4.713372e+003,1.643006e-001
4.717229e+003,1.567293e-001
4.721086e+003,1.513595e-001
4.724943e+003,1.538770e-001
4.728800e+003,1.559203e-001
4.732657e+003,1.634191e-001
4.736514e+003,1.630052e-001
4.740372e+003,1.649167e-001
4.744229e+003,1.670245e-001
4.748085e+003,1.645254e-001
4.751943e+003,1.517038e-001
4.755800e+003,1.531618e-001
4.759657e+003,1.658338e-001
4.763514e+003,1.636516e-001
4.767371e+003,1.524868e-001
4.771228e+003,1.476377e-001
4.775085e+003,1.457959e-001
4.778942e+003,1.481078e-001
4.782799e+003,1.508538e-001
4.786657e+003,1.484533e-001
4.790514e+003,1.434046e-001
4.794371e+003,1.411132e-001
4.798228e+003,1.415703e-001
4.802085e+003,1.483602e-001
4.805942e+003,1.570253e-001
4.809799e+003,1.563116e-001
4.813656e+003,1.403118e-001
4.817513e+003,1.310294e-001
4.821371e+003,1.405667e-001
4.825228e+003,1.483304e-001
4.829084e+003,1.523135e-001
4.832942e+003,1.515952e-001
4.836799e+003,1.440068e-001
4.840656e+003,1.473883e-001
4.844513e+003,1.499848e-001
4.848370e+003,1.478018e-001
4.852227e+003,1.499391e-001
4.856084e+003,1.564223e-001
4.859941e+003,1.608635e-001
4.863798e+003,1.655861e-001
4.867656e+003,1.668406e-001
4.871513e+003,1.616853e-001
4.875370e+003,1.597723e-001
4.879227e+003,1.597973e-001
4.883084e+003,1.653583e-001
4.886941e+003,1.636100e-001
4.890798e+003,1.544310e-001
4.894655e+003,1.509079e-001
4.898512e+003,1.541029e-001
4.902370e+003,1.583546e-001
4.906227e+003,1.626835e-001
4.910083e+003,1.611660e-001
4.913941e+003,1.604395e-001
4.917798e+003,1.573600e-001
4.921655e+003,1.501056e-001
4.925512e+003,1.306506e-001
4.929369e+003,1.296507e-001
4.933226e+003,1.412265e-001
4.937083e+003,1.509052e-001
4.940940e+003,1.560488e-001
4.944797e+003,1.596864e-001
4.948655e+003,1.622402e-001
4.952512e+003,1.574399e-001
4.956369e+003,1.484038e-001
4.960226e+003,1.556814e-001
4.964083e+003,1.649041e-001
4.967940e+003,1.634849e-001
4.971797e+003,1.628800e-001
4.975654e+003,1.572562e-001
4.979511e+003,1.642687e-001
4.983369e+003,1.679541e-001
4.987226e+003,1.657329e-001
4.991083e+003,1.637248e-001
4.994940e+003,1.617312e-001
4.998797e+003,1.626093e-001
5.002654e+003,1.647599e-001
5.006511e+003,1.612867e-001
5.010368e+003,1.730542e-001
5.014225e+003,1.723141e-001
5.018083e+003,1.612627e-001
5.021939e+003,1.575057e-001
5.025796e+003,1.599642e-001
5.029654e+003,1.606030e-001
5.033511e+003,1.558639e-001
5.037368e+003,1.518964e-001
5.041225e+003,1.491696e-001
5.045082e+003,1.494032e-001
5.048939e+003,1.512125e-001
5.052796e+003,1.502107e-001
5.056653e+003,1.456438e-001
5.060510e+003,1.453504e-001
5.064368e+003,1.525926e-001
5.068225e+003,1.550432e-001
5.072082e+003,1.546649e-001
5.075939e+003,1.486550e-001
5.079796e+003,1.487728e-001
5.083653e+003,1.448970e-001
5.087510e+003,1.426135e-001
5.091367e+003,1.438507e-001
5.095224e+003,1.449986e-001
5.099082e+003,1.459713e-001
5.102938e+003,1.499154e-001
5.106795e+003,1.478908e-001
5.110653e+003,1.508821e-001
5.114510e+003,1.598326e-001
5.118367e+003,1.645097e-001
5.122224e+003,1.609154e-001
5.126081e+003,1.664405e-001
5.129938e+003,1.613482e-001
5.133795e+003,1.553811e-001
5.137652e+003,1.521625e-001
5.141509e+003,1.562581e-001
5.145367e+003,1.661006e-001
5.149224e+003,1.730069e-001
5.153081e+003,1.729043e-001
5.156938e+003,1.653617e-001
5.160795e+003,1.652315e-001
5.164652e+003,1.600763e-001
5.168509e+003,1.611242e-001
5.172366e+003,1.609433e-001
5.176223e+003,1.635474e-001
5.180081e+003,1.594961e-001
5.183938e+003,1.517735e-001
5.187794e+003,1.479864e-001
5.191652e+003,1.559114e-001
5.195509e+003,1.680383e-001
5.199366e+003,1.662255e-001
5.203223e+003,1.555366e-001
5.207080e+003,1.610308e-001
5.210937e+003,1.667584e-001
5.214794e+003,1.511949e-001
5.218651e+003,1.481013e-001
5.222508e+003,1.613160e-001
5.226366e+003,1.599116e-001
5.230223e+003,1.586764e-001
5.234080e+003,1.692857e-001
5.237937e+003,1.653740e-001
5.241794e+003,1.649169e-001
5.245651e+003,1.717958e-001
5.249508e+003,1.663120e-001
5.253365e+003,1.630497e-001
5.257222e+003,1.602950e-001
5.261080e+003,1.624272e-001
5.264937e+003,1.665861e-001
5.268793e+003,1.643054e-001
5.272651e+003,1.731100e-001
5.276508e+003,1.813095e-001
5.280365e+003,1.752561e-001
5.284222e+003,1.568878e-001
5.288079e+003,1.528222e-001
5.291936e+003,1.569592e-001
5.295793e+003,1.605011e-001
5.299650e+003,1.652753e-001
5.303507e+003,1.661492e-001
5.307365e+003,1.560058e-001
5.311222e+003,1.498914e-001
5.315079e+003,1.484914e-001
5.318936e+003,1.373596e-001
5.322793e+003,1.428159e-001
5.326650e+003,1.517405e-001
5.330507e+003,1.583771e-001
5.334364e+003,1.539562e-001
5.338221e+003,1.470107e-001
5.342079e+003,1.493660e-001
5.345936e+003,1.444514e-001
5.349792e+003,1.398654e-001
5.353650e+003,1.433253e-001
5.357507e+003,1.456423e-001
5.361364e+003,1.523851e-001
5.365221e+003,1.624689e-001
5.369078e+003,1.645902e-001
5.372935e+003,1.681115e-001
5.376792e+003,1.626085e-001
5.380649e+003,1.537356e-001
5.384506e+003,1.484679e-001
5.388364e+003,1.502590e-001
5.392221e+003,1.559561e-001
5.396078e+003,1.658896e-001
5.399935e+003,1.673265e-001
5.403792e+003,1.727557e-001
5.407649e+003,1.612922e-001
5.411506e+003,1.538244e-001
5.415363e+003,1.579054e-001
5.419220e+003,1.641613e-001
5.423078e+003,1.643705e-001
5.426935e+003,1.565832e-001
5.430792e+003,1.577736e-001
5.434649e+003,1.589602e-001
5.438506e+003,1.650148e-001
5.442363e+003,1.605390e-001
5.446220e+003,1.529219e-001
5.450077e+003,1.432270e-001
5.453934e+003,1.391630e-001
5.457792e+003,1.541364e-001
5.461648e+003,1.639139e-001
5.465505e+003,1.594989e-001
5.469363e+003,1.490954e-001
5.473220e+003,1.459200e-001
5.477077e+003,1.569927e-001
5.480934e+003,1.648051e-001
5.484791e+003,1.542931e-001
5.488648e+003,1.458532e-001
5.492505e+003,1.525279e-001
5.496362e+003,1.703448e-001
5.500219e+003,1.754350e-001
5.504077e+003,1.652906e-001
5.507934e+003,1.510928e-001
5.511791e+003,1.512426e-001
5.515648e+003,1.646622e-001
5.519505e+003,1.687170e-001
5.523362e+003,1.600186e-001
5.527219e+003,1.490549e-001
5.531076e+003,1.559708e-001
5.534933e+003,1.585598e-001
5.538791e+003,1.564265e-001
5.542647e+003,1.568971e-001
5.546504e+003,1.511663e-001
5.550362e+003,1.624267e-001
5.554219e+003,1.748106e-001
5.558076e+003,1.648280e-001
5.561933e+003,1.586244e-001
5.565790e+003,1.643087e-001
5.569647e+003,1.730288e-001
5.573504e+003,1.668428e-001
5.577361e+003,1.611041e-001
5.581218e+003,1.576290e-001
5.585076e+003,1.543096e-001
5.588933e+003,1.474914e-001
5.592790e+003,1.431765e-001
5.596647e+003,1.411270e-001
5.600504e+003,1.433526e-001
5.604361e+003,1.452916e-001
5.608218e+003,1.413807e-001
5.612075e+003,1.338932e-001
5.615932e+003,1.348468e-001
5.619790e+003,1.362066e-001
5.623646e+003,1.417067e-001
5.627503e+003,1.478897e-001
5.631361e+003,1.467148e-001
5.635218e+003,1.494846e-001
5.639075e+003,1.440798e-001
5.642932e+003,1.354661e-001
5.646789e+003,1.395613e-001
5.650646e+003,1.456860e-001
5.654503e+003,1.583563e-001
5.658360e+003,1.597572e-001
5.662217e+003,1.747977e-001
5.666075e+003,1.814711e-001
5.669932e+003,1.664130e-001
5.673789e+003,1.590853e-001
5.677646e+003,1.529827e-001
5.681503e+003,1.559477e-001
5.685360e+003,1.605806e-001
5.689217e+003,1.652900e-001
5.693074e+003,1.523004e-001
5.696931e+003,1.455314e-001
5.700789e+003,1.469790e-001
5.704646e+003,1.434421e-001
5.708502e+003,1.330468e-001
5.712360e+003,1.357466e-001
5.716217e+003,1.394215e-001
5.720074e+003,1.315034e-001
5.723931e+003,1.361860e-001
5.727788e+003,1.462347e-001
5.731645e+003,1.434123e-001
5.735502e+003,1.443187e-001
5.739359e+003,1.460961e-001
5.743216e+003,1.493829e-001
5.747074e+003,1.513376e-001
5.750931e+003,1.448561e-001
5.754788e+003,1.309559e-001
5.758645e+003,1.267105e-001
5.762502e+003,1.302044e-001
5.766359e+003,1.344203e-001
5.770216e+003,1.414426e-001
5.774073e+003,1.428551e-001
5.777930e+003,1.530820e-001
5.781788e+003,1.575716e-001
5.785645e+003,1.635641e-001
5.789501e+003,1.605482e-001
5.793359e+003,1.604212e-001
5.797216e+003,1.571656e-001
5.801073e+003,1.601927e-001
5.804930e+003,1.513130e-001
5.808787e+003,1.527980e-001
5.812644e+003,1.560338e-001
5.816501e+003,1.533706e-001
5.820358e+003,1.505432e-001
5.824215e+003,1.572019e-001
5.828073e+003,1.731585e-001
5.831930e+003,1.706295e-001
5.835787e+003,1.503053e-001
5.839644e+003,1.518807e-001
5.843501e+003,1.560064e-001
5.847358e+003,1.549331e-001
5.851215e+003,1.517480e-001
5.855072e+003,1.490343e-001
5.858929e+003,1.278112e-001
5.862787e+003,1.206868e-001
5.866644e+003,1.447899e-001
5.870500e+003,1.402912e-001
5.874358e+003,1.286145e-001
5.878215e+003,1.332470e-001
5.882072e+003,1.329950e-001
5.885929e+003,1.489363e-001
5.889786e+003,1.600298e-001
5.893643e+003,1.570068e-001
5.897500e+003,1.444162e-001
5.901357e+003,1.358734e-001
5.905214e+003,1.334486e-001
5.909072e+003,1.392473e-001
5.912929e+003,1.498002e-001
5.916786e+003,1.455386e-001
5.920643e+003,1.420949e-001
5.924500e+003,1.613761e-001
5.928357e+003,1.607776e-001
5.932214e+003,1.392748e-001
5.936071e+003,1.450384e-001
5.939928e+003,1.571535e-001
5.943786e+003,1.606729e-001
5.947643e+003,1.620923e-001
5.951500e+003,1.595789e-001
5.955357e+003,1.511211e-001
5.959214e+003,1.482930e-001
5.963071e+003,1.634614e-001
5.966928e+003,1.653227e-001
5.970785e+003,1.574482e-001
5.974642e+003,1.605333e-001
5.978500e+003,1.593511e-001
5.982356e+003,1.501510e-001
5.986213e+003,1.430307e-001
5.990071e+003,1.467783e-001
5.993928e+003,1.468911e-001
5.997785e+003,1.425884e-001
6.001642e+003,1.348271e-001
6.005499e+003,1.297371e-001
6.009356e+003,1.258710e-001
6.013213e+003,1.254633e-001
6.017070e+003,1.359967e-001
6.020927e+003,1.494209e-001
6.024785e+003,1.452765e-001
6.028642e+003,1.436388e-001
6.032499e+003,1.377269e-001
6.036356e+003,1.336293e-001
6.040213e+003,1.379895e-001
6.044070e+003,1.423500e-001
6.047927e+003,1.450179e-001
6.051784e+003,1.392813e-001
6.055641e+003,1.359448e-001
6.059499e+003,1.545063e-001
6.063355e+003,1.814706e-001
6.067212e+003,1.869164e-001
6.071070e+003,1.633668e-001
6.074927e+003,1.468282e-001
6.078784e+003,1.441794e-001
6.082641e+003,1.460182e-001
6.086498e+003,1.376306e-001
6.090355e+003,1.375068e-001
6.094212e+003,1.336696e-001
6.098069e+003,1.443672e-001
6.101926e+003,1.547119e-001
6.105784e+003,1.439498e-001
6.109641e+003,1.365785e-001
6.113498e+003,1.416717e-001
6.117355e+003,1.527189e-001
6.121212e+003,1.500081e-001
6.125069e+003,1.381454e-001
6.128926e+003,1.432660e-001
6.132783e+003,1.521065e-001
6.136640e+003,1.565166e-001
6.140498e+003,1.573091e-001
6.144354e+003,1.563531e-001
6.148211e+003,1.439766e-001
6.152069e+003,1.450132e-001
6.155926e+003,1.463046e-001
6.159783e+003,1.410085e-001
6.163640e+003,1.312911e-001
6.167497e+003,1.340863e-001
6.171354e+003,1.469785e-001
6.175211e+003,1.527726e-001
6.179068e+003,1.418636e-001
6.182925e+003,1.385440e-001
6.186783e+003,1.576927e-001
6.190640e+003,1.554119e-001
6.194497e+003,1.392353e-001
6.198354e+003,1.293716e-001
6.202211e+003,1.392151e-001
6.206068e+003,1.484071e-001
6.209925e+003,1.516708e-001
6.213782e+003,1.575278e-001
6.217639e+003,1.702623e-001
6.221497e+003,1.690239e-001
6.225354e+003,1.538932e-001
6.229210e+003,1.483975e-001
6.233068e+003,1.399258e-001
6.236925e+003,1.424983e-001
6.240782e+003,1.394656e-001
6.244639e+003,1.353303e-001
6.248496e+003,1.396139e-001
6.252353e+003,1.419909e-001
6.256210e+003,1.349301e-001
6.260067e+003,1.360321e-001
6.263924e+003,1.397978e-001
6.267782e+003,1.453896e-001
6.271639e+003,1.438496e-001
6.275496e+003,1.395228e-001
6.279353e+003,1.375388e-001
6.283210e+003,1.305228e-001
6.287067e+003,1.210390e-001
6.290924e+003,1.223259e-001
6.294781e+003,1.160237e-001
6.298638e+003,1.201862e-001
6.302496e+003,1.192597e-001
6.306353e+003,1.296422e-001
6.310209e+003,1.373352e-001
6.314067e+003,1.431144e-001
6.317924e+003,1.574270e-001
6.321781e+003,1.568590e-001
6.325638e+003,1.616611e-001
6.329495e+003,1.612921e-001
6.333352e+003,1.606905e-001
6.337209e+003,1.593970e-001
6.341066e+003,1.582412e-001
6.344923e+003,1.644644e-001
6.348780e+003,1.555895e-001
6.352638e+003,1.606522e-001
6.356495e+003,1.567980e-001
6.360352e+003,1.575442e-001
6.364209e+003,1.613264e-001
6.368066e+003,1.489612e-001
6.371923e+003,1.332526e-001
6.375780e+003,1.321311e-001
6.379637e+003,1.397881e-001
6.383494e+003,1.332827e-001
6.387352e+003,1.242532e-001
6.391208e+003,1.294667e-001
6.395065e+003,1.480561e-001
6.398923e+003,1.308417e-001
6.402780e+003,1.177063e-001
6.406637e+003,1.425100e-001
6.410494e+003,1.484227e-001
6.414351e+003,1.332636e-001
6.418208e+003,1.336506e-001
6.422065e+003,1.438600e-001
6.425922e+003,1.336304e-001
6.429779e+003,1.322585e-001
6.433637e+003,1.413489e-001
6.437494e+003,1.467234e-001
6.441351e+003,1.519454e-001
6.445208e+003,1.440672e-001
6.449065e+003,1.348732e-001
6.452922e+003,1.428665e-001
6.456779e+003,1.447597e-001
6.460636e+003,1.462260e-001
6.464493e+003,1.532501e-001
6.468351e+003,1.548663e-001
6.472208e+003,1.272304e-001
6.476064e+003,1.331525e-001
6.479922e+003,1.797375e-001
6.483779e+003,1.642367e-001
6.487636e+003,1.272142e-001
6.491493e+003,1.160110e-001
6.495350e+003,1.302759e-001
6.499207e+003,1.477769e-001
6.503064e+003,1.419203e-001
6.506921e+003,1.263401e-001
6.510778e+003,1.352782e-001
6.514636e+003,1.647108e-001
6.518493e+003,1.700165e-001
6.522350e+003,1.377372e-001
6.526207e+003,1.090965e-001
6.530064e+003,1.166627e-001
6.533921e+003,1.360879e-001
6.537778e+003,1.424537e-001
6.541635e+003,1.520498e-001
6.545492e+003,1.539916e-001
6.549350e+003,1.455050e-001
6.553207e+003,1.398941e-001
6.557063e+003,1.356299e-001
6.560921e+003,1.233941e-001
6.564778e+003,1.204099e-001
6.568635e+003,1.395403e-001
6.572492e+003,1.581684e-001
6.576349e+003,1.691060e-001
6.580206e+003,1.346667e-001
6.584063e+003,1.289478e-001
6.587920e+003,1.340237e-001
6.591777e+003,1.214591e-001
6.595635e+003,1.292318e-001
6.599492e+003,1.516420e-001
6.603349e+003,1.487296e-001
6.607206e+003,1.481749e-001
6.611063e+003,1.357843e-001
6.614920e+003,1.370319e-001
6.618777e+003,1.377579e-001
6.622634e+003,1.404488e-001
6.626491e+003,1.505105e-001
6.630349e+003,1.513849e-001
6.634206e+003,1.565861e-001
6.638063e+003,1.498428e-001
6.641920e+003,1.338899e-001
6.645777e+003,1.490153e-001
6.649634e+003,1.533032e-001
6.653491e+003,1.233649e-001
6.657348e+003,1.216538e-001
6.661205e+003,1.245597e-001
6.665063e+003,1.367645e-001
6.668919e+003,1.311779e-001
6.672776e+003,1.078067e-001
6.676634e+003,1.074862e-001
6.680491e+003,1.027233e-001
6.684348e+003,1.260366e-001
6.688205e+003,1.763090e-001
6.692062e+003,1.679884e-001
6.695919e+003,1.555815e-001
6.699776e+003,1.693560e-001
6.703633e+003,1.568573e-001
6.707490e+003,1.446219e-001
6.711348e+003,1.538527e-001
6.715205e+003,1.604668e-001
6.719062e+003,1.607461e-001
6.722919e+003,1.664559e-001
6.726776e+003,1.296972e-001
6.730633e+003,1.032440e-001
6.734490e+003,1.492417e-001
6.738347e+003,1.764387e-001
6.742204e+003,1.537774e-001
6.746062e+003,1.559581e-001
6.749918e+003,1.647941e-001
6.753775e+003,1.499832e-001
6.757633e+003,1.471939e-001
6.761490e+003,1.295292e-001
6.765347e+003,1.211059e-001
6.769204e+003,1.445388e-001
6.773061e+003,1.656912e-001
6.776918e+003,1.622079e-001
6.780775e+003,1.465660e-001
6.784632e+003,1.425740e-001
6.788489e+003,1.498984e-001
6.792347e+003,1.601095e-001
6.796204e+003,1.517036e-001
6.800061e+003,1.316741e-001
6.803918e+003,1.198571e-001
6.807775e+003,1.313065e-001
6.811632e+003,1.329346e-001
6.815489e+003,1.407316e-001
6.819346e+003,1.478973e-001
6.823203e+003,1.502314e-001
6.827061e+003,1.354850e-001
6.830917e+003,1.280402e-001
6.834774e+003,1.292292e-001
6.838632e+003,1.352103e-001
6.842489e+003,1.298469e-001
6.846346e+003,1.178425e-001
6.850203e+003,1.084833e-001
6.854060e+003,1.025910e-001
6.857917e+003,1.437898e-001
6.861774e+003,1.822501e-001
6.865631e+003,1.443589e-001
6.869488e+003,1.074075e-001
6.873346e+003,1.318917e-001
6.877203e+003,1.729135e-001
6.881060e+003,1.585976e-001
6.884917e+003,1.290515e-001
6.888774e+003,1.322640e-001
6.892631e+003,1.350403e-001
6.896488e+003,1.404444e-001
6.900345e+003,1.391415e-001
6.904202e+003,1.208950e-001
6.908060e+003,1.207063e-001
6.911917e+003,1.412130e-001
6.915773e+003,1.528615e-001
6.919631e+003,1.406359e-001
6.923488e+003,1.101754e-001
6.927345e+003,1.361451e-001
6.931202e+003,1.545410e-001
6.935059e+003,1.642220e-001
6.938916e+003,1.802958e-001
6.942773e+003,1.644416e-001
6.946630e+003,1.216997e-001
6.950487e+003,1.217758e-001
6.954345e+003,1.382052e-001
6.958202e+003,1.392763e-001
6.962059e+003,1.308606e-001
6.965916e+003,1.422695e-001
6.969773e+003,1.580936e-001
6.973630e+003,1.570805e-001
6.977487e+003,1.379637e-001
6.981344e+003,1.284419e-001
6.985201e+003,1.378332e-001
6.989059e+003,1.635019e-001
6.992916e+003,1.417678e-001
6.996772e+003,1.070768e-001
7.000630e+003,9.584717e-002
7.004487e+003,8.428603e-002
7.008344e+003,1.023167e-001
7.012201e+003,1.240667e-001
7.016058e+003,1.266201e-001
7.019915e+003,1.279653e-001
7.023772e+003,1.247741e-001
7.027629e+003,1.554034e-001
7.031486e+003,2.151043e-001
7.035344e+003,2.130876e-001
7.039201e+003,1.626469e-001
7.043058e+003,1.337384e-001
7.046915e+003,1.327776e-001
7.050772e+003,1.565840e-001
7.054629e+003,1.549281e-001
7.058486e+003,1.589978e-001
7.062343e+003,1.690776e-001
7.066200e+003,1.337966e-001
7.070058e+003,1.348200e-001
7.073915e+003,1.483379e-001
7.077771e+003,1.194393e-001
7.081629e+003,1.210895e-001
7.085486e+003,1.645558e-001
7.089343e+003,1.836974e-001
7.093200e+003,1.371617e-001
7.097057e+003,1.623269e-001
7.100914e+003,2.057307e-001
7.104771e+003,1.807193e-001
7.108628e+003,1.593413e-001
7.112485e+003,1.392814e-001
7.116343e+003,1.411991e-001
7.120200e+003,1.875135e-001
7.124057e+003,1.518355e-001
7.127914e+003,1.372641e-001
7.131771e+003,1.607616e-001
7.135628e+003,1.750510e-001
7.139485e+003,1.577231e-001
7.143342e+003,1.543010e-001
7.147199e+003,1.578925e-001
7.151057e+003,1.424092e-001
7.154914e+003,7.073675e-002
7.158771e+003,5.596166e-002
7.162628e+003,9.079175e-002
7.166485e+003,1.198495e-001
7.170342e+003,1.333323e-001
7.174199e+003,1.203533e-001
7.178056e+003,1.258404e-001
7.181913e+003,1.199066e-001
7.185771e+003,1.126029e-001
7.189627e+003,1.092545e-001
7.193484e+003,1.094339e-001
7.197342e+003,1.267051e-001
7.201199e+003,1.843877e-001
7.205056e+003,2.456919e-001
7.208913e+003,2.216739e-001
7.212770e+003,1.976466e-001
7.216627e+003,1.809898e-001
7.220484e+003,1.296905e-001
7.224341e+003,9.324092e-002
7.228198e+003,7.311027e-002
7.232056e+003,8.461493e-002
7.235913e+003,1.032083e-001
7.239770e+003,1.462376e-001
7.243627e+003,2.019594e-001
7.247484e+003,1.728780e-001
7.251341e+003,1.480620e-001
7.255198e+003,1.244601e-001
7.259055e+003,1.096346e-001
7.262912e+003,1.415881e-001
7.266770e+003,1.505828e-001
7.270626e+003,1.057872e-001
7.274483e+003,1.366387e-001
7.278341e+003,1.382090e-001
7.282198e+003,1.082734e-001
7.286055e+003,1.472788e-001
7.289912e+003,1.845800e-001
7.293769e+003,1.618809e-001
7.297626e+003,1.371771e-001
7.301483e+003,1.501347e-001
7.305340e+003,1.676547e-001
7.309197e+003,1.940248e-001
7.313055e+003,2.377121e-001
7.316912e+003,1.974807e-001
7.320769e+003,1.597618e-001
7.324626e+003,1.581611e-001
7.328483e+003,1.362010e-001
7.332340e+003,1.305962e-001
7.336197e+003,1.832744e-001
7.340054e+003,2.055089e-001
7.343911e+003,1.659856e-001
7.347769e+003,1.335534e-001
7.351625e+003,1.038931e-001
7.355482e+003,1.052178e-001
7.359340e+003,1.236922e-001
7.363197e+003,1.626533e-001
7.367054e+003,1.501300e-001
7.370911e+003,1.240330e-001
7.374768e+003,7.040854e-002
7.378625e+003,1.100062e-001
7.382482e+003,1.205420e-001
7.386339e+003,1.035263e-001
7.390196e+003,9.244782e-002
7.394054e+003,8.373064e-002
7.397911e+003,1.228168e-001
7.401768e+003,1.335073e-001
7.405625e+003,1.378782e-001
7.409482e+003,1.273800e-001
7.413339e+003,1.063385e-001
7.417196e+003,1.151682e-001
7.421053e+003,1.159146e-001
7.424910e+003,7.438852e-002
7.428768e+003,5.819155e-002
7.432625e+003,7.806171e-003
7.436481e+003,1.629629e-002
7.440339e+003,8.222139e-002
7.444196e+003,9.786927e-002
7.448053e+003,1.136369e-001
7.451910e+003,1.175259e-001
7.455767e+003,1.071413e-001
7.459624e+003,1.440903e-001
7.463481e+003,1.628049e-001
7.467338e+003,1.240881e-001
7.471195e+003,9.412481e-002
7.475053e+003,1.110098e-001
7.478910e+003,1.046177e-001
7.482767e+003,1.204115e-001
7.486624e+003,2.073470e-001
7.490481e+003,2.360157e-001
7.494338e+003,1.479974e-001
7.498195e+003,1.125003e-001
7.502052e+003,1.196496e-001
7.505909e+003,7.690047e-002
7.509767e+003,4.960218e-002
7.513624e+003,6.798696e-002
7.517480e+003,8.502579e-002
7.521338e+003,1.132909e-001
7.525195e+003,1.256761e-001
7.529052e+003,1.153365e-001
7.532909e+003,1.138803e-001
7.536766e+003,1.098640e-001
7.540623e+003,1.049136e-001
7.544480e+003,1.545348e-001
7.548337e+003,1.579481e-001
7.552194e+003,1.260494e-001
7.556052e+003,5.872037e-002
7.559909e+003,6.171302e-002
7.563766e+003,1.273526e-001
7.567623e+003,1.158350e-001
7.571480e+003,5.346415e-002
7.575337e+003,1.046135e-001
7.579194e+003,1.718152e-001
7.583051e+003,2.291449e-001
7.586908e+003,2.452237e-001
7.590766e+003,2.231172e-001
7.594623e+003,2.088985e-001
7.598479e+003,1.733057e-001
7.602337e+003,1.826964e-001
7.606194e+003,1.855579e-001
7.610051e+003,1.018095e-001
7.613908e+003,9.824060e-002
7.617765e+003,1.457296e-001
7.621622e+003,2.126568e-001
7.625479e+003,2.198617e-001
7.629336e+003,2.398445e-001
7.633193e+003,1.538360e-001
7.637051e+003,8.984676e-002
7.640908e+003,1.397588e-001
7.644765e+003,1.499864e-001
7.648622e+003,1.745468e-001
7.652479e+003,1.848361e-001
7.656336e+003,1.633633e-001
7.660193e+003,1.864476e-001
7.664050e+003,1.792409e-001
7.667907e+003,1.116976e-001
7.671765e+003,1.074468e-001
7.675622e+003,1.621715e-001
7.679479e+003,1.646124e-001
7.683336e+003,1.619150e-001
7.687193e+003,1.335644e-001
7.691050e+003,7.293665e-002
7.694907e+003,1.024765e-001
7.698764e+003,1.251062e-001
7.702621e+003,1.711679e-001
7.706479e+003,2.074306e-001
7.710335e+003,1.818140e-001
7.714192e+003,1.513575e-001
7.718050e+003,1.932385e-001
7.721907e+003,2.169646e-001
7.725764e+003,1.578393e-001
7.729621e+003,1.198836e-001
7.733478e+003,1.756748e-001
7.737335e+003,1.793855e-001
7.741192e+003,1.091928e-001
7.745049e+003,5.922104e-002
7.748906e+003,7.891972e-002
7.752764e+003,5.287942e-002
7.756621e+003,5.390752e-002
7.760478e+003,1.573159e-001
7.764335e+003,2.187001e-001
7.768192e+003,1.271777e-001
7.772049e+003,6.901510e-002
7.775906e+003,1.616181e-001
7.779763e+003,1.656825e-001
7.783620e+003,1.355206e-001
7.787478e+003,1.300282e-001
7.791334e+003,9.172460e-002
7.795191e+003,3.117470e-002
7.799049e+003,2.675940e-002
7.802906e+003,9.147211e-002
7.806763e+003,1.750182e-001
7.810620e+003,2.135671e-001
7.814477e+003,1.699821e-001
7.818334e+003,1.127545e-001
7.822191e+003,1.261259e-001
7.826048e+003,1.513395e-001
7.829905e+003,1.346056e-001
7.833763e+003,9.373749e-002
7.837620e+003,1.198421e-001
7.841477e+003,1.503698e-001
7.845334e+003,1.360476e-001
7.849191e+003,1.026290e-001
7.853048e+003,5.411479e-002
7.856905e+003,1.142898e-001
7.860762e+003,2.025721e-001
7.864619e+003,1.518952e-001
7.868477e+003,4.249346e-002
7.872333e+003,3.071495e-002
7.876190e+003,1.417600e-001
7.880048e+003,8.953942e-002
7.883905e+003,2.155721e-002
7.887762e+003,8.655623e-002
7.891619e+003,1.257688e-001
7.895476e+003,1.717058e-001
7.899333e+003,2.202148e-001
7.903190e+003,1.237360e-001
7.907047e+003,9.873077e-002
7.910904e+003,1.057858e-001
7.914762e+003,3.518336e-003
7.918619e+003,5.114713e-002
7.922476e+003,7.263345e-002
7.926333e+003,2.227345e-001
7.930190e+003,2.860825e-001
7.934047e+003,1.565253e-001
7.937904e+003,1.772149e-002
7.941761e+003,-2.164814e-002
7.945618e+003,7.958714e-003
7.949476e+003,3.432931e-002
7.953333e+003,1.108458e-001
7.957189e+003,1.890811e-001
7.961047e+003,1.643354e-001
7.964904e+003,1.480607e-001
7.968761e+003,8.818983e-002
7.972618e+003,3.618570e-002
7.976475e+003,4.227917e-002
7.980332e+003,4.222099e-002
7.984189e+003,5.594926e-002
7.988046e+003,9.888910e-002
7.991903e+003,1.333170e-001
7.995761e+003,1.250301e-001
7.999618e+003,2.642160e-001
