4.011380e+002,6.000000e+000
4.049951e+002,6.000000e+000
4.088522e+002,4.671828e-001
4.127093e+002,-5.972009e-002
4.165664e+002,6.000000e+000
4.204235e+002,6.000000e+000
4.242806e+002,6.000000e+000
4.281377e+002,6.000000e+000
4.319948e+002,-2.204832e+000
4.358519e+002,-3.027676e-001
4.397090e+002,-1.741084e-002
4.435661e+002,6.000000e+000
4.474232e+002,6.000000e+000
4.512803e+002,6.000000e+000
4.551374e+002,-1.093291e-001
4.589945e+002,-2.881012e-002
4.628516e+002,6.000000e+000
4.667087e+002,-4.066064e-001
4.705658e+002,-5.255797e-003
4.744229e+002,-1.693870e-001
4.782800e+002,6.000000e+000
4.821371e+002,2.476227e-002
4.859941e+002,6.000000e+000
4.898513e+002,6.000000e+000
4.937083e+002,6.000000e+000
4.975654e+002,6.000000e+000
5.014225e+002,6.000000e+000
5.052796e+002,-5.503699e-002
5.091367e+002,6.000000e+000
5.129938e+002,6.000000e+000
5.168509e+002,6.000000e+000
5.207080e+002,8.092198e-001
5.245651e+002,6.000000e+000
5.284222e+002,6.000000e+000
5.322793e+002,6.000000e+000
5.361364e+002,6.000000e+000
5.399935e+002,-4.434374e-001
5.438506e+002,-1.511226e+000
5.477077e+002,6.000000e+000
5.515648e+002,6.000000e+000
5.554219e+002,1.248428e+000
5.592790e+002,6.000000e+000
5.631361e+002,6.000000e+000
5.669932e+002,8.454287e-001
5.708503e+002,1.643154e+000
5.747074e+002,6.000000e+000
5.785645e+002,6.000000e+000
5.824216e+002,6.352580e-001
5.862787e+002,-1.097042e-001
5.901357e+002,6.000000e+000
5.939929e+002,-2.829115e-001
5.978499e+002,-5.143747e-001
6.017070e+002,6.000000e+000
6.055641e+002,6.000000e+000
6.094212e+002,6.000000e+000
6.132783e+002,4.682187e-001
6.171354e+002,-3.887499e-001
6.209925e+002,6.000000e+000
6.248496e+002,6.000000e+000
6.287067e+002,1.797989e-001
6.325638e+002,-5.145858e-001
6.364209e+002,6.000000e+000
6.402780e+002,6.000000e+000
6.441351e+002,6.000000e+000
6.479922e+002,6.000000e+000
6.518493e+002,-2.845380e-001
6.557064e+002,8.634979e-002
6.595635e+002,6.000000e+000
6.634205e+002,-1.276468e-001
6.672777e+002,6.000000e+000
6.711348e+002,6.000000e+000
6.749918e+002,2.744525e-001
6.788490e+002,6.401095e-001
6.827061e+002,6.000000e+000
6.865631e+002,6.221107e-001
6.904203e+002,6.000000e+000
6.942773e+002,6.000000e+000
6.981344e+002,6.000000e+000
7.019916e+002,6.000000e+000
7.058486e+002,-4.420995e-001
7.097057e+002,-1.437666e+000
7.135629e+002,6.000000e+000
7.174199e+002,6.000000e+000
7.212770e+002,6.000000e+000
7.251342e+002,6.000000e+000
7.289912e+002,6.000000e+000
7.328483e+002,-8.962815e-001
7.367054e+002,-2.072613e-001
7.405625e+002,1.219887e-001
7.444196e+002,-3.783095e-001
7.482767e+002,6.000000e+000
7.521338e+002,7.517893e-001
7.559908e+002,6.000000e+000
7.598480e+002,1.471926e-001
7.637051e+002,-9.035158e-001
7.675621e+002,6.000000e+000
7.714193e+002,6.000000e+000
7.752764e+002,6.000000e+000
7.791334e+002,-5.249574e-001
7.829905e+002,-1.467939e-003
7.868477e+002,-2.502436e-001
7.907047e+002,-4.253259e-001
7.945618e+002,6.000000e+000
7.984189e+002,-8.961759e-001
8.022760e+002,-1.679812e-001
8.061331e+002,3.542413e-001
8.099902e+002,5.426055e-001
8.138473e+002,7.792754e-001
8.177044e+002,6.000000e+000
8.215615e+002,6.000000e+000
8.254186e+002,6.000000e+000
8.292757e+002,6.981409e-001
8.331328e+002,4.769670e-001
8.369899e+002,6.907989e-001
8.408470e+002,6.000000e+000
8.447041e+002,6.000000e+000
8.485612e+002,1.028780e+000
8.524183e+002,1.011678e+000
8.562754e+002,1.186724e+000
8.601324e+002,1.130383e+000
8.639896e+002,1.044037e+000
8.678467e+002,6.000000e+000
8.717037e+002,6.000000e+000
8.755609e+002,6.000000e+000
8.794180e+002,1.253372e+000
8.832750e+002,6.000000e+000
8.871321e+002,6.000000e+000
8.909893e+002,6.000000e+000
8.948463e+002,6.000000e+000
8.987034e+002,6.000000e+000
9.025605e+002,2.003834e+000
9.064176e+002,1.537077e+000
9.102747e+002,1.296564e+000
9.141318e+002,1.403517e+000
9.179889e+002,2.364763e+000
9.218461e+002,2.186311e+000
9.257031e+002,1.699462e+000
9.295602e+002,2.705056e+000
9.334174e+002,1.877339e+000
9.372744e+002,1.563059e+000
9.411315e+002,1.695217e+000
9.449886e+002,1.830260e+000
9.488457e+002,1.901583e+000
9.527028e+002,2.256352e+000
9.565599e+002,2.019408e+000
9.604170e+002,2.254246e+000
9.642740e+002,6.000000e+000
9.681312e+002,6.000000e+000
9.719883e+002,6.000000e+000
9.758453e+002,6.000000e+000
9.797025e+002,2.187676e+000
9.835596e+002,1.689658e+000
9.874166e+002,2.093687e+000
9.912738e+002,2.431523e+000
9.951309e+002,1.920954e+000
9.989879e+002,2.117671e+000
1.002845e+003,1.842666e+000
1.006702e+003,1.531516e+000
1.010559e+003,1.817576e+000
1.014416e+003,3.975052e+000
1.018273e+003,2.004983e+000
1.022130e+003,1.720314e+000
1.025988e+003,1.713564e+000
1.029845e+003,1.707848e+000
1.033702e+003,1.614290e+000
1.037559e+003,1.556617e+000
1.041416e+003,1.558347e+000
1.045273e+003,1.622184e+000
1.049130e+003,1.625785e+000
1.052987e+003,1.706629e+000
1.056844e+003,1.766611e+000
1.060702e+003,1.780187e+000
1.064559e+003,1.953613e+000
1.068416e+003,1.688036e+000
1.072273e+003,1.527893e+000
1.076130e+003,1.552290e+000
1.079987e+003,1.552690e+000
1.083844e+003,1.530100e+000
1.087701e+003,1.499108e+000
1.091558e+003,1.504884e+000
1.095415e+003,1.574154e+000
1.099272e+003,1.600009e+000
1.103130e+003,1.529595e+000
1.106987e+003,1.572280e+000
1.110844e+003,1.765573e+000
1.114701e+003,1.807179e+000
1.118558e+003,1.743037e+000
1.122415e+003,1.605939e+000
1.126272e+003,1.597083e+000
1.130129e+003,1.509055e+000
1.133986e+003,1.419667e+000
1.137843e+003,1.421204e+000
1.141701e+003,1.457569e+000
1.145558e+003,1.501915e+000
1.149415e+003,1.524515e+000
1.153272e+003,1.439219e+000
1.157129e+003,1.445103e+000
1.160986e+003,1.452375e+000
1.164843e+003,1.415622e+000
1.168700e+003,1.461073e+000
1.172557e+003,1.493947e+000
1.176414e+003,1.487973e+000
1.180271e+003,1.498761e+000
1.184129e+003,1.464076e+000
1.187986e+003,1.440487e+000
1.191843e+003,1.435146e+000
1.195700e+003,1.353092e+000
1.199557e+003,1.345246e+000
1.203414e+003,1.349751e+000
1.207271e+003,1.319440e+000
1.211128e+003,1.296589e+000
1.214985e+003,1.219426e+000
1.218842e+003,1.124365e+000
1.222699e+003,1.046058e+000
1.226557e+003,9.718145e-001
1.230414e+003,9.195729e-001
1.234271e+003,8.811215e-001
1.238128e+003,8.423900e-001
1.241985e+003,8.282557e-001
1.245842e+003,8.103184e-001
1.249699e+003,7.817474e-001
1.253556e+003,7.449955e-001
1.257413e+003,7.225617e-001
1.261271e+003,7.043896e-001
1.265128e+003,6.843741e-001
1.268985e+003,6.729901e-001
1.272842e+003,6.646702e-001
1.276699e+003,6.456917e-001
1.280556e+003,6.286072e-001
1.284413e+003,6.223848e-001
1.288270e+003,6.080278e-001
1.292127e+003,5.858580e-001
1.295984e+003,5.755557e-001
1.299841e+003,5.675951e-001
1.303698e+003,5.548531e-001
1.307556e+003,5.399545e-001
1.311413e+003,5.314267e-001
1.315270e+003,5.305686e-001
1.319127e+003,5.287378e-001
1.322984e+003,5.229319e-001
1.326841e+003,5.142382e-001
1.330698e+003,5.010955e-001
1.334555e+003,4.979643e-001
1.338412e+003,4.939767e-001
1.342270e+003,4.884087e-001
1.346127e+003,4.815642e-001
1.349984e+003,4.805925e-001
1.353841e+003,4.882745e-001
1.357698e+003,4.904141e-001
1.361555e+003,4.947631e-001
1.365412e+003,5.000399e-001
1.369269e+003,4.996567e-001
1.373126e+003,4.998277e-001
1.376983e+003,5.045195e-001
1.380840e+003,5.162089e-001
1.384698e+003,5.339041e-001
1.388555e+003,5.496768e-001
1.392412e+003,5.589042e-001
1.396269e+003,5.687559e-001
1.400126e+003,5.754968e-001
1.403983e+003,5.886343e-001
1.407840e+003,6.065657e-001
1.411697e+003,6.293540e-001
1.415554e+003,6.455612e-001
1.419411e+003,6.592184e-001
1.423269e+003,6.688693e-001
1.427126e+003,6.810786e-001
1.430983e+003,6.916234e-001
1.434840e+003,6.831709e-001
1.438697e+003,6.786552e-001
1.442554e+003,6.756070e-001
1.446411e+003,6.731548e-001
1.450268e+003,6.723480e-001
1.454125e+003,6.567090e-001
1.457982e+003,6.492994e-001
1.461839e+003,6.512904e-001
1.465697e+003,6.449934e-001
1.469554e+003,6.300632e-001
1.473411e+003,6.277246e-001
1.477268e+003,6.289358e-001
1.481125e+003,6.327506e-001
1.484982e+003,6.518320e-001
1.488839e+003,6.657981e-001
1.492696e+003,6.747004e-001
1.496553e+003,6.813566e-001
1.500411e+003,6.911304e-001
1.504268e+003,7.080346e-001
1.508125e+003,7.177715e-001
1.511982e+003,7.162921e-001
1.515839e+003,7.073139e-001
1.519696e+003,6.962514e-001
1.523553e+003,6.853952e-001
1.527410e+003,6.750693e-001
1.531267e+003,6.664779e-001
1.535124e+003,6.530098e-001
1.538981e+003,6.321123e-001
1.542839e+003,6.159449e-001
1.546696e+003,6.048798e-001
1.550553e+003,5.913133e-001
1.554410e+003,5.855307e-001
1.558267e+003,5.818216e-001
1.562124e+003,5.703377e-001
1.565981e+003,5.624058e-001
1.569838e+003,5.578311e-001
1.573695e+003,5.523049e-001
1.577552e+003,5.552666e-001
1.581410e+003,5.534600e-001
1.585267e+003,5.528786e-001
1.589124e+003,5.573263e-001
1.592981e+003,5.621673e-001
1.596838e+003,5.677539e-001
1.600695e+003,5.780319e-001
1.604552e+003,5.964500e-001
1.608409e+003,6.159971e-001
1.612266e+003,6.312322e-001
1.616123e+003,6.587060e-001
1.619980e+003,6.861038e-001
1.623838e+003,7.058840e-001
1.627695e+003,7.271997e-001
1.631552e+003,7.424840e-001
1.635409e+003,7.503029e-001
1.639266e+003,7.568202e-001
1.643123e+003,7.519694e-001
1.646980e+003,7.369153e-001
1.650837e+003,7.239300e-001
1.654694e+003,7.002145e-001
1.658551e+003,6.800985e-001
1.662409e+003,6.588105e-001
1.666266e+003,6.380320e-001
1.670123e+003,6.185601e-001
1.673980e+003,6.007007e-001
1.677837e+003,5.879159e-001
1.681694e+003,5.718251e-001
1.685551e+003,5.485389e-001
1.689408e+003,5.298858e-001
1.693265e+003,5.156644e-001
1.697122e+003,5.096533e-001
1.700979e+003,5.016832e-001
1.704837e+003,4.880131e-001
1.708694e+003,4.781106e-001
1.712551e+003,4.729953e-001
1.716408e+003,4.669024e-001
1.720265e+003,4.655336e-001
1.724122e+003,4.656523e-001
1.727979e+003,4.603685e-001
1.731836e+003,4.613634e-001
1.735693e+003,4.625688e-001
1.739550e+003,4.612959e-001
1.743408e+003,4.575692e-001
1.747265e+003,4.552098e-001
1.751122e+003,4.540240e-001
1.754979e+003,4.565732e-001
1.758836e+003,4.607469e-001
1.762693e+003,4.601448e-001
1.766550e+003,4.572140e-001
1.770407e+003,4.572963e-001
1.774264e+003,4.565910e-001
1.778121e+003,4.534697e-001
1.781979e+003,4.477270e-001
1.785836e+003,4.439949e-001
1.789693e+003,4.420497e-001
1.793550e+003,4.395164e-001
1.797407e+003,4.377311e-001
1.801264e+003,4.372325e-001
1.805121e+003,4.389797e-001
1.808978e+003,4.365755e-001
1.812835e+003,4.374106e-001
1.816692e+003,4.384367e-001
1.820549e+003,4.336175e-001
1.824407e+003,4.330598e-001
1.828264e+003,4.347987e-001
1.832121e+003,4.350798e-001
1.835978e+003,4.406230e-001
1.839835e+003,4.427831e-001
1.843692e+003,4.408053e-001
1.847549e+003,4.373448e-001
1.851406e+003,4.324547e-001
1.855263e+003,4.282572e-001
1.859120e+003,4.271752e-001
1.862978e+003,4.286167e-001
1.866835e+003,4.251595e-001
1.870692e+003,4.202368e-001
1.874549e+003,4.172622e-001
1.878406e+003,4.192460e-001
1.882263e+003,4.186325e-001
1.886120e+003,4.170206e-001
1.889977e+003,4.154014e-001
1.893834e+003,4.118175e-001
1.897691e+003,4.097895e-001
1.901548e+003,4.090592e-001
1.905406e+003,4.082729e-001
1.909263e+003,4.093909e-001
1.913120e+003,4.109578e-001
1.916977e+003,4.133512e-001
1.920834e+003,4.134955e-001
1.924691e+003,4.106178e-001
1.928548e+003,4.065492e-001
1.932405e+003,4.058239e-001
1.936262e+003,4.043505e-001
1.940119e+003,4.013882e-001
1.943977e+003,4.009690e-001
1.947834e+003,4.001363e-001
1.951691e+003,3.999363e-001
1.955548e+003,3.986451e-001
1.959405e+003,3.942571e-001
1.963262e+003,3.925117e-001
1.967119e+003,3.889071e-001
1.970976e+003,3.823628e-001
1.974833e+003,3.790197e-001
1.978690e+003,3.823894e-001
1.982547e+003,3.841403e-001
1.986405e+003,3.797166e-001
1.990262e+003,3.788196e-001
1.994119e+003,3.830454e-001
1.997976e+003,3.847803e-001
2.001833e+003,3.797203e-001
2.005690e+003,3.775110e-001
2.009547e+003,3.791186e-001
2.013404e+003,3.821589e-001
2.017261e+003,3.844135e-001
2.021118e+003,3.804434e-001
2.024976e+003,3.776419e-001
2.028833e+003,3.748958e-001
2.032690e+003,3.715212e-001
2.036547e+003,3.683958e-001
2.040404e+003,3.664746e-001
2.044261e+003,3.665172e-001
2.048118e+003,3.681737e-001
2.051975e+003,3.695314e-001
2.055832e+003,3.653940e-001
2.059689e+003,3.615887e-001
2.063546e+003,3.618133e-001
2.067404e+003,3.630063e-001
2.071261e+003,3.633003e-001
2.075118e+003,3.633176e-001
2.078975e+003,3.646239e-001
2.082832e+003,3.657150e-001
2.086689e+003,3.666247e-001
2.090546e+003,3.677291e-001
2.094403e+003,3.657452e-001
2.098260e+003,3.636782e-001
2.102117e+003,3.650585e-001
2.105975e+003,3.633145e-001
2.109832e+003,3.620048e-001
2.113689e+003,3.615831e-001
2.117546e+003,3.601774e-001
2.121403e+003,3.598123e-001
2.125260e+003,3.563924e-001
2.129117e+003,3.533862e-001
2.132974e+003,3.562616e-001
2.136831e+003,3.590733e-001
2.140688e+003,3.577254e-001
2.144545e+003,3.547155e-001
2.148403e+003,3.524741e-001
2.152260e+003,3.535925e-001
2.156117e+003,3.529041e-001
2.159974e+003,3.537830e-001
2.163831e+003,3.591995e-001
2.167688e+003,3.606736e-001
2.171545e+003,3.571841e-001
2.175402e+003,3.567536e-001
2.179259e+003,3.572873e-001
2.183116e+003,3.578309e-001
2.186974e+003,3.598908e-001
2.190831e+003,3.607177e-001
2.194688e+003,3.588615e-001
2.198545e+003,3.560301e-001
2.202402e+003,3.538851e-001
2.206259e+003,3.531128e-001
2.210116e+003,3.513952e-001
2.213973e+003,3.514691e-001
2.217830e+003,3.514472e-001
2.221688e+003,3.509881e-001
2.225544e+003,3.524735e-001
2.229402e+003,3.538626e-001
2.233259e+003,3.514484e-001
2.237116e+003,3.525493e-001
2.240973e+003,3.579639e-001
2.244830e+003,3.585669e-001
2.248687e+003,3.574980e-001
2.252544e+003,3.581425e-001
2.256401e+003,3.570471e-001
2.260258e+003,3.558305e-001
2.264115e+003,3.591768e-001
2.267973e+003,3.576880e-001
2.271830e+003,3.541584e-001
2.275687e+003,3.548635e-001
2.279544e+003,3.584387e-001
2.283401e+003,3.592607e-001
2.287258e+003,3.583362e-001
2.291115e+003,3.586550e-001
2.294972e+003,3.610419e-001
2.298829e+003,3.616886e-001
2.302687e+003,3.594134e-001
2.306543e+003,3.587818e-001
2.310401e+003,3.583010e-001
2.314258e+003,3.579026e-001
2.318115e+003,3.585890e-001
2.321972e+003,3.578830e-001
2.325829e+003,3.562728e-001
2.329686e+003,3.564854e-001
2.333543e+003,3.575463e-001
2.337400e+003,3.613546e-001
2.341257e+003,3.646412e-001
2.345115e+003,3.637151e-001
2.348972e+003,3.613611e-001
2.352829e+003,3.650748e-001
2.356686e+003,3.661935e-001
2.360543e+003,3.637356e-001
2.364400e+003,3.640574e-001
2.368257e+003,3.639326e-001
2.372114e+003,3.623766e-001
2.375971e+003,3.616255e-001
2.379828e+003,3.616762e-001
2.383686e+003,3.601895e-001
2.387542e+003,3.591346e-001
2.391400e+003,3.576823e-001
2.395257e+003,3.579178e-001
2.399114e+003,3.610373e-001
2.402971e+003,3.591963e-001
2.406828e+003,3.547559e-001
2.410685e+003,3.522631e-001
2.414542e+003,3.503718e-001
2.418399e+003,3.524809e-001
2.422256e+003,3.547726e-001
2.426114e+003,3.539121e-001
2.429971e+003,3.513319e-001
2.433828e+003,3.487805e-001
2.437685e+003,3.488514e-001
2.441542e+003,3.491308e-001
2.445399e+003,3.468259e-001
2.449256e+003,3.464592e-001
2.453113e+003,3.503986e-001
2.456970e+003,3.494149e-001
2.460827e+003,3.473990e-001
2.464684e+003,3.481241e-001
2.468542e+003,3.463629e-001
2.472399e+003,3.410805e-001
2.476256e+003,3.391252e-001
2.480113e+003,3.406790e-001
2.483970e+003,3.429204e-001
2.487827e+003,3.424134e-001
2.491684e+003,3.413811e-001
2.495541e+003,3.399271e-001
2.499398e+003,3.415528e-001
2.503255e+003,3.429697e-001
2.507113e+003,3.437818e-001
2.510969e+003,3.442726e-001
2.514827e+003,3.422386e-001
2.518684e+003,3.426934e-001
2.522541e+003,3.464538e-001
2.526398e+003,3.493779e-001
2.530255e+003,3.482901e-001
2.534112e+003,3.466585e-001
2.537969e+003,3.465866e-001
2.541826e+003,3.490662e-001
2.545683e+003,3.477904e-001
2.549541e+003,3.473925e-001
2.553398e+003,3.493398e-001
2.557255e+003,3.487844e-001
2.561112e+003,3.494185e-001
2.564969e+003,3.517777e-001
2.568826e+003,3.515158e-001
2.572683e+003,3.521920e-001
2.576540e+003,3.516297e-001
2.580397e+003,3.514747e-001
2.584254e+003,3.549976e-001
2.588112e+003,3.568380e-001
2.591969e+003,3.576999e-001
2.595826e+003,3.580150e-001
2.599683e+003,3.618537e-001
2.603540e+003,3.634830e-001
2.607397e+003,3.653496e-001
2.611254e+003,3.687539e-001
2.615111e+003,3.722953e-001
2.618968e+003,3.736693e-001
2.622825e+003,3.739971e-001
2.626682e+003,3.726904e-001
2.630540e+003,3.713385e-001
2.634397e+003,3.735041e-001
2.638254e+003,3.764296e-001
2.642111e+003,3.797463e-001
2.645968e+003,3.812965e-001
2.649825e+003,3.840807e-001
2.653682e+003,3.878040e-001
2.657539e+003,3.868828e-001
2.661396e+003,3.861831e-001
2.665253e+003,3.899853e-001
2.669111e+003,3.932299e-001
2.672968e+003,3.920893e-001
2.676825e+003,3.909971e-001
2.680682e+003,3.983919e-001
2.684539e+003,4.053215e-001
2.688396e+003,4.040379e-001
2.692253e+003,4.061029e-001
2.696110e+003,4.097035e-001
2.699967e+003,4.130906e-001
2.703824e+003,4.155909e-001
2.707681e+003,4.205501e-001
2.711539e+003,4.244607e-001
2.715396e+003,4.254445e-001
2.719253e+003,4.252572e-001
2.723110e+003,4.250069e-001
2.726967e+003,4.282611e-001
2.730824e+003,4.337666e-001
2.734681e+003,4.344221e-001
2.738538e+003,4.359559e-001
2.742395e+003,4.397408e-001
2.746252e+003,4.444820e-001
2.750110e+003,4.483620e-001
2.753967e+003,4.515228e-001
2.757824e+003,4.518086e-001
2.761681e+003,4.546881e-001
2.765538e+003,4.594039e-001
2.769395e+003,4.653805e-001
2.773252e+003,4.687889e-001
2.777109e+003,4.670168e-001
2.780966e+003,4.673958e-001
2.784823e+003,4.720440e-001
2.788680e+003,4.767049e-001
2.792538e+003,4.807212e-001
2.796395e+003,4.833091e-001
2.800252e+003,4.864544e-001
2.804109e+003,4.949120e-001
2.807966e+003,4.986870e-001
2.811823e+003,5.010027e-001
2.815680e+003,5.063550e-001
2.819537e+003,5.110076e-001
2.823394e+003,5.114434e-001
2.827251e+003,5.113123e-001
2.831109e+003,5.141102e-001
2.834966e+003,5.184836e-001
2.838823e+003,5.239102e-001
2.842680e+003,5.262736e-001
2.846537e+003,5.281286e-001
2.850394e+003,5.344999e-001
2.854251e+003,5.412821e-001
2.858108e+003,5.436049e-001
2.861965e+003,5.515159e-001
2.865823e+003,5.611183e-001
2.869679e+003,5.686134e-001
2.873537e+003,5.708870e-001
2.877394e+003,5.655714e-001
2.881251e+003,5.685310e-001
2.885108e+003,5.785071e-001
2.888965e+003,5.849871e-001
2.892822e+003,5.912751e-001
2.896679e+003,5.981128e-001
2.900536e+003,6.042932e-001
2.904393e+003,6.071698e-001
2.908250e+003,6.072108e-001
2.912108e+003,6.104864e-001
2.915965e+003,6.159466e-001
2.919822e+003,6.192036e-001
2.923679e+003,6.293302e-001
2.927536e+003,6.385081e-001
2.931393e+003,6.395573e-001
2.935250e+003,6.472592e-001
2.939107e+003,6.547153e-001
2.942964e+003,6.582301e-001
2.946822e+003,6.603592e-001
2.950678e+003,6.624819e-001
2.954536e+003,6.641166e-001
2.958393e+003,6.686624e-001
2.962250e+003,6.709444e-001
2.966107e+003,6.757739e-001
2.969964e+003,6.819018e-001
2.973821e+003,6.845509e-001
2.977678e+003,6.940829e-001
2.981535e+003,6.960740e-001
2.985392e+003,6.972763e-001
2.989250e+003,7.045559e-001
2.993107e+003,7.068905e-001
2.996964e+003,7.102550e-001
3.000821e+003,7.190733e-001
3.004678e+003,7.268561e-001
3.008535e+003,7.329054e-001
3.012392e+003,7.410724e-001
3.016249e+003,7.461118e-001
3.020106e+003,7.475830e-001
3.023963e+003,7.506983e-001
3.027821e+003,7.644987e-001
3.031677e+003,7.717013e-001
3.035535e+003,7.705401e-001
3.039392e+003,7.734000e-001
3.043249e+003,7.871121e-001
3.047106e+003,7.912654e-001
3.050963e+003,7.936502e-001
3.054820e+003,7.966655e-001
3.058677e+003,7.976553e-001
3.062534e+003,8.056517e-001
3.066391e+003,8.126137e-001
3.070249e+003,8.163393e-001
3.074106e+003,8.261651e-001
3.077963e+003,8.307274e-001
3.081820e+003,8.306686e-001
3.085677e+003,8.381871e-001
3.089534e+003,8.538096e-001
3.093391e+003,8.595075e-001
3.097248e+003,8.581026e-001
3.101105e+003,8.601590e-001
3.104962e+003,8.664742e-001
3.108820e+003,8.868620e-001
3.112677e+003,8.926315e-001
3.116534e+003,8.905212e-001
3.120391e+003,8.953312e-001
3.124248e+003,8.986200e-001
3.128105e+003,8.977810e-001
3.131962e+003,9.031838e-001
3.135819e+003,9.126766e-001
3.139676e+003,9.219199e-001
3.143533e+003,9.293935e-001
3.147390e+003,9.381309e-001
3.151248e+003,9.433957e-001
3.155105e+003,9.456501e-001
3.158962e+003,9.560148e-001
3.162819e+003,9.598967e-001
3.166676e+003,9.711994e-001
3.170533e+003,9.833075e-001
3.174390e+003,9.923290e-001
3.178247e+003,1.001642e+000
3.182104e+003,1.007745e+000
3.185961e+003,1.018757e+000
3.189819e+003,1.010536e+000
3.193676e+003,9.992779e-001
3.197533e+003,9.947437e-001
3.201390e+003,1.005193e+000
3.205247e+003,1.017237e+000
3.209104e+003,1.025036e+000
3.212961e+003,1.049382e+000
3.216818e+003,1.070004e+000
3.220675e+003,1.076961e+000
3.224532e+003,1.059567e+000
3.228389e+003,1.063009e+000
3.232247e+003,1.060691e+000
3.236104e+003,1.059626e+000
3.239961e+003,1.075015e+000
3.243818e+003,1.077648e+000
3.247675e+003,1.078513e+000
3.251532e+003,1.084758e+000
3.255389e+003,1.103171e+000
3.259246e+003,1.114005e+000
3.263103e+003,1.121655e+000
3.266960e+003,1.124986e+000
3.270818e+003,1.121431e+000
3.274675e+003,1.125670e+000
3.278532e+003,1.108541e+000
3.282389e+003,1.106519e+000
3.286246e+003,1.132463e+000
3.290103e+003,1.144778e+000
3.293960e+003,1.129807e+000
3.297817e+003,1.135431e+000
3.301674e+003,1.151241e+000
3.305531e+003,1.173628e+000
3.309388e+003,1.190595e+000
3.313246e+003,1.183856e+000
3.317103e+003,1.182296e+000
3.320960e+003,1.200182e+000
3.324817e+003,1.196897e+000
3.328674e+003,1.194100e+000
3.332531e+003,1.228053e+000
3.336388e+003,1.229829e+000
3.340245e+003,1.217754e+000
3.344102e+003,1.223525e+000
3.347959e+003,1.227666e+000
3.351817e+003,1.246282e+000
3.355674e+003,1.252805e+000
3.359531e+003,1.262255e+000
3.363388e+003,1.282635e+000
3.367245e+003,1.273671e+000
3.371102e+003,1.238279e+000
3.374959e+003,1.229681e+000
3.378816e+003,1.241668e+000
3.382673e+003,1.258299e+000
3.386530e+003,1.277413e+000
3.390387e+003,1.289559e+000
3.394245e+003,1.259613e+000
3.398102e+003,1.251363e+000
3.401959e+003,1.272577e+000
3.405816e+003,1.279718e+000
3.409673e+003,1.295077e+000
3.413530e+003,1.305334e+000
3.417387e+003,1.309120e+000
3.421244e+003,1.328619e+000
3.425101e+003,1.310221e+000
3.428958e+003,1.306481e+000
3.432815e+003,1.330555e+000
3.436673e+003,1.339706e+000
3.440530e+003,1.341305e+000
3.444387e+003,1.322451e+000
3.448244e+003,1.322713e+000
3.452101e+003,1.321304e+000
3.455958e+003,1.339905e+000
3.459815e+003,1.332679e+000
3.463672e+003,1.332618e+000
3.467529e+003,1.358088e+000
3.471386e+003,1.370060e+000
3.475244e+003,1.395431e+000
3.479101e+003,1.394154e+000
3.482958e+003,1.355083e+000
3.486815e+003,1.350661e+000
3.490672e+003,1.374114e+000
3.494529e+003,1.359703e+000
3.498386e+003,1.351806e+000
3.502243e+003,1.383149e+000
3.506100e+003,1.402442e+000
3.509958e+003,1.359275e+000
3.513814e+003,1.364211e+000
3.517672e+003,1.385127e+000
3.521529e+003,1.388046e+000
3.525386e+003,1.382804e+000
3.529243e+003,1.383922e+000
3.533100e+003,1.385035e+000
3.536957e+003,1.377921e+000
3.540814e+003,1.352557e+000
3.544671e+003,1.350592e+000
3.548528e+003,1.358917e+000
3.552385e+003,1.361780e+000
3.556243e+003,1.372254e+000
3.560100e+003,1.338950e+000
3.563957e+003,1.313566e+000
3.567814e+003,1.286619e+000
3.571671e+003,1.283211e+000
3.575528e+003,1.296005e+000
3.579385e+003,1.271722e+000
3.583242e+003,1.258446e+000
3.587099e+003,1.253289e+000
3.590957e+003,1.241048e+000
3.594813e+003,1.206252e+000
3.598671e+003,1.173007e+000
3.602528e+003,1.131436e+000
3.606385e+003,1.109780e+000
3.610242e+003,1.080673e+000
3.614099e+003,1.020840e+000
3.617956e+003,9.807301e-001
3.621813e+003,9.366235e-001
3.625670e+003,8.781933e-001
3.629527e+003,8.246861e-001
3.633385e+003,7.761710e-001
3.637242e+003,7.246982e-001
3.641099e+003,6.744015e-001
3.644956e+003,6.264494e-001
3.648813e+003,5.832257e-001
3.652670e+003,5.447941e-001
3.656527e+003,5.031412e-001
3.660384e+003,4.588577e-001
3.664241e+003,4.240665e-001
3.668098e+003,3.957112e-001
3.671956e+003,3.689109e-001
3.675813e+003,3.429349e-001
3.679670e+003,3.189505e-001
3.683527e+003,2.993463e-001
3.687384e+003,2.828360e-001
3.691241e+003,2.680995e-001
3.695098e+003,2.581113e-001
3.698955e+003,2.468894e-001
3.702812e+003,2.357682e-001
3.706669e+003,2.303006e-001
3.710526e+003,2.253618e-001
3.714384e+003,2.168791e-001
3.718241e+003,2.117920e-001
3.722098e+003,2.082992e-001
3.725955e+003,2.053275e-001
3.729812e+003,2.026809e-001
3.733669e+003,2.004680e-001
3.737526e+003,1.980792e-001
3.741383e+003,1.944489e-001
3.745240e+003,1.916100e-001
3.749097e+003,1.912507e-001
3.752955e+003,1.894298e-001
3.756812e+003,1.880842e-001
3.760669e+003,1.875310e-001
3.764526e+003,1.845768e-001
3.768383e+003,1.816574e-001
3.772240e+003,1.805023e-001
3.776097e+003,1.779792e-001
3.779954e+003,1.781360e-001
3.783811e+003,1.808127e-001
3.787668e+003,1.825752e-001
3.791525e+003,1.817005e-001
3.795383e+003,1.827705e-001
3.799240e+003,1.835048e-001
3.803097e+003,1.803597e-001
3.806954e+003,1.810632e-001
3.810811e+003,1.849831e-001
3.814668e+003,1.824633e-001
3.818525e+003,1.778615e-001
3.822382e+003,1.793014e-001
3.826239e+003,1.814553e-001
3.830096e+003,1.795246e-001
3.833954e+003,1.782624e-001
3.837811e+003,1.801106e-001
3.841668e+003,1.817077e-001
3.845525e+003,1.775286e-001
3.849382e+003,1.737280e-001
3.853239e+003,1.748162e-001
3.857096e+003,1.752566e-001
3.860953e+003,1.755264e-001
3.864810e+003,1.753867e-001
3.868667e+003,1.773948e-001
3.872524e+003,1.789231e-001
3.876382e+003,1.779360e-001
3.880239e+003,1.781720e-001
3.884096e+003,1.795832e-001
3.887953e+003,1.789500e-001
3.891810e+003,1.792410e-001
3.895667e+003,1.840252e-001
3.899524e+003,1.857300e-001
3.903381e+003,1.863390e-001
3.907238e+003,1.804036e-001
3.911095e+003,1.754772e-001
3.914953e+003,1.782637e-001
3.918810e+003,1.826458e-001
3.922667e+003,1.828118e-001
3.926524e+003,1.790476e-001
3.930381e+003,1.772581e-001
3.934238e+003,1.805817e-001
3.938095e+003,1.837481e-001
3.941952e+003,1.815006e-001
3.945809e+003,1.780492e-001
3.949667e+003,1.758860e-001
3.953523e+003,1.768818e-001
3.957381e+003,1.815136e-001
3.961238e+003,1.793652e-001
3.965095e+003,1.780387e-001
3.968952e+003,1.797114e-001
3.972809e+003,1.817891e-001
3.976666e+003,1.825492e-001
3.980523e+003,1.808992e-001
3.984380e+003,1.813150e-001
3.988237e+003,1.840336e-001
3.992094e+003,1.858226e-001
3.995952e+003,1.850606e-001
3.999809e+003,1.821611e-001
4.003666e+003,1.798204e-001
4.007523e+003,1.823173e-001
4.011380e+003,1.826437e-001
4.015237e+003,1.829523e-001
4.019094e+003,1.808157e-001
4.022951e+003,1.779022e-001
4.026808e+003,1.788420e-001
4.030666e+003,1.776376e-001
4.034522e+003,1.784474e-001
4.038380e+003,1.783732e-001
4.042237e+003,1.760604e-001
4.046094e+003,1.804244e-001
4.049951e+003,1.858326e-001
4.053808e+003,1.815657e-001
4.057665e+003,1.789619e-001
4.061522e+003,1.782243e-001
4.065379e+003,1.807426e-001
4.069236e+003,1.843987e-001
4.073094e+003,1.838372e-001
4.076951e+003,1.854465e-001
4.080808e+003,1.866292e-001
4.084665e+003,1.843973e-001
4.088522e+003,1.838512e-001
4.092379e+003,1.857458e-001
4.096236e+003,1.849315e-001
4.100093e+003,1.850053e-001
4.103950e+003,1.853821e-001
4.107808e+003,1.816041e-001
4.111665e+003,1.780213e-001
4.115521e+003,1.753460e-001
4.119379e+003,1.750219e-001
4.123236e+003,1.765427e-001
4.127093e+003,1.755857e-001
4.130950e+003,1.737059e-001
4.134807e+003,1.745779e-001
4.138664e+003,1.754252e-001
4.142521e+003,1.783348e-001
4.146378e+003,1.790826e-001
4.150235e+003,1.781873e-001
4.154093e+003,1.806704e-001
4.157950e+003,1.833584e-001
4.161807e+003,1.859421e-001
4.165664e+003,1.828990e-001
4.169521e+003,1.801095e-001
4.173378e+003,1.826524e-001
4.177235e+003,1.857174e-001
4.181092e+003,1.876028e-001
4.184949e+003,1.861538e-001
4.188807e+003,1.801539e-001
4.192664e+003,1.800681e-001
4.196521e+003,1.836607e-001
4.200378e+003,1.807085e-001
4.204235e+003,1.776378e-001
4.208092e+003,1.811460e-001
4.211949e+003,1.816099e-001
4.215806e+003,1.822985e-001
4.219663e+003,1.850742e-001
4.223521e+003,1.874189e-001
4.227377e+003,1.843120e-001
4.231234e+003,1.789868e-001
4.235092e+003,1.816560e-001
4.238949e+003,1.864215e-001
4.242806e+003,1.848341e-001
4.246663e+003,1.818860e-001
4.250520e+003,1.851080e-001
4.254377e+003,1.877129e-001
4.258234e+003,1.842753e-001
4.262091e+003,1.829427e-001
4.265948e+003,1.852165e-001
4.269806e+003,1.830677e-001
4.273663e+003,1.837403e-001
4.277520e+003,1.866443e-001
4.281377e+003,1.853670e-001
4.285234e+003,1.821062e-001
4.289091e+003,1.820886e-001
4.292948e+003,1.825510e-001
4.296805e+003,1.837037e-001
4.300662e+003,1.804350e-001
4.304520e+003,1.798469e-001
4.308376e+003,1.857290e-001
4.312233e+003,1.853813e-001
4.316091e+003,1.841909e-001
4.319948e+003,1.857748e-001
4.323805e+003,1.867425e-001
4.327662e+003,1.864403e-001
4.331519e+003,1.859964e-001
4.335376e+003,1.882185e-001
4.339233e+003,1.918100e-001
4.343090e+003,1.939870e-001
4.346947e+003,1.910925e-001
4.350805e+003,1.908387e-001
4.354662e+003,1.933801e-001
4.358519e+003,1.933742e-001
4.362376e+003,1.981496e-001
4.366233e+003,2.001079e-001
4.370090e+003,1.982388e-001
4.373947e+003,1.976814e-001
4.377804e+003,1.970440e-001
4.381661e+003,1.963392e-001
4.385519e+003,1.922079e-001
4.389375e+003,1.918539e-001
4.393232e+003,1.943376e-001
4.397090e+003,1.919415e-001
4.400947e+003,1.907274e-001
4.404804e+003,1.938619e-001
4.408661e+003,1.957293e-001
4.412518e+003,1.933002e-001
4.416375e+003,1.929517e-001
4.420232e+003,1.955932e-001
4.424089e+003,1.937292e-001
4.427946e+003,1.896905e-001
4.431804e+003,1.911740e-001
4.435661e+003,1.977230e-001
4.439518e+003,2.036534e-001
4.443375e+003,2.042045e-001
4.447232e+003,2.078044e-001
4.451089e+003,2.071165e-001
4.454946e+003,2.021879e-001
4.458803e+003,2.033935e-001
4.462660e+003,2.041848e-001
4.466518e+003,2.047505e-001
4.470375e+003,1.993607e-001
4.474231e+003,1.941148e-001
4.478089e+003,2.004201e-001
4.481946e+003,2.034998e-001
4.485803e+003,1.991042e-001
4.489660e+003,1.995967e-001
4.493517e+003,1.993006e-001
4.497375e+003,1.940628e-001
4.501231e+003,1.994044e-001
4.505088e+003,1.981876e-001
4.508946e+003,1.943322e-001
4.512803e+003,1.980050e-001
4.516660e+003,1.992565e-001
4.520517e+003,1.983619e-001
4.524374e+003,1.995201e-001
4.528231e+003,2.035263e-001
4.532088e+003,2.052786e-001
4.535945e+003,2.048551e-001
4.539802e+003,2.057193e-001
4.543660e+003,2.032626e-001
4.547517e+003,1.980763e-001
4.551374e+003,2.001462e-001
4.555231e+003,2.066868e-001
4.559088e+003,2.050324e-001
4.562945e+003,1.992532e-001
4.566802e+003,1.975461e-001
4.570659e+003,1.976402e-001
4.574516e+003,1.968102e-001
4.578374e+003,1.958622e-001
4.582230e+003,1.937630e-001
4.586087e+003,1.926858e-001
4.589945e+003,1.963813e-001
4.593802e+003,1.984251e-001
4.597659e+003,1.971866e-001
4.601516e+003,1.983586e-001
4.605373e+003,2.027977e-001
4.609230e+003,2.060491e-001
4.613087e+003,2.048661e-001
4.616944e+003,2.041444e-001
4.620801e+003,2.078176e-001
4.624659e+003,2.052282e-001
4.628516e+003,2.003076e-001
4.632373e+003,2.067985e-001
4.636230e+003,2.081237e-001
4.640087e+003,2.054315e-001
4.643944e+003,2.040362e-001
4.647801e+003,2.029272e-001
4.651658e+003,2.022672e-001
4.655515e+003,2.068587e-001
4.659373e+003,2.099329e-001
4.663229e+003,2.057264e-001
4.667086e+003,2.037642e-001
4.670944e+003,2.088865e-001
4.674801e+003,2.103453e-001
4.678658e+003,2.086067e-001
4.682515e+003,2.050811e-001
4.686372e+003,2.035961e-001
4.690229e+003,2.007224e-001
4.694086e+003,1.945179e-001
4.697943e+003,1.997020e-001
4.701800e+003,2.028989e-001
4.705658e+003,1.995177e-001
4.709515e+003,2.008377e-001
4.713372e+003,2.046813e-001
4.717229e+003,2.069387e-001
4.721086e+003,2.094481e-001
4.724943e+003,2.056040e-001
4.728800e+003,1.984412e-001
4.732657e+003,2.020975e-001
4.736514e+003,2.101321e-001
4.740372e+003,2.143129e-001
4.744229e+003,2.096050e-001
4.748085e+003,2.028005e-001
4.751943e+003,2.077011e-001
4.755800e+003,2.127712e-001
4.759657e+003,2.087368e-001
4.763514e+003,2.014016e-001
4.767371e+003,1.991959e-001
4.771228e+003,1.953217e-001
4.775085e+003,1.977291e-001
4.778942e+003,2.049628e-001
4.782799e+003,2.078440e-001
4.786657e+003,2.078884e-001
4.790514e+003,2.073415e-001
4.794371e+003,2.131210e-001
4.798228e+003,2.130598e-001
4.802085e+003,2.100450e-001
4.805942e+003,2.075759e-001
4.809799e+003,2.079467e-001
4.813656e+003,2.126493e-001
4.817513e+003,2.163269e-001
4.821371e+003,2.163687e-001
4.825228e+003,2.155983e-001
4.829084e+003,2.156867e-001
4.832942e+003,2.140563e-001
4.836799e+003,2.102443e-001
4.840656e+003,2.115782e-001
4.844513e+003,2.115930e-001
4.848370e+003,2.073548e-001
4.852227e+003,2.008513e-001
4.856084e+003,2.019993e-001
4.859941e+003,2.087315e-001
4.863798e+003,2.107231e-001
4.867656e+003,2.095454e-001
4.871513e+003,2.122877e-001
4.875370e+003,2.120355e-001
4.879227e+003,2.044973e-001
4.883084e+003,1.961555e-001
4.886941e+003,1.944708e-001
4.890798e+003,1.999576e-001
4.894655e+003,2.080633e-001
4.898512e+003,2.144012e-001
4.902370e+003,2.188636e-001
4.906227e+003,2.183175e-001
4.910083e+003,2.189017e-001
4.913941e+003,2.245286e-001
4.917798e+003,2.202356e-001
4.921655e+003,2.117568e-001
4.925512e+003,2.102201e-001
4.929369e+003,2.147297e-001
4.933226e+003,2.144468e-001
4.937083e+003,2.097848e-001
4.940940e+003,2.112138e-001
4.944797e+003,2.144103e-001
4.948655e+003,2.180561e-001
4.952512e+003,2.170310e-001
4.956369e+003,2.120209e-001
4.960226e+003,2.083549e-001
4.964083e+003,2.096112e-001
4.967940e+003,2.092353e-001
4.971797e+003,2.130849e-001
4.975654e+003,2.148689e-001
4.979511e+003,2.188191e-001
4.983369e+003,2.224408e-001
4.987226e+003,2.201930e-001
4.991083e+003,2.160337e-001
4.994940e+003,2.123643e-001
4.998797e+003,2.179593e-001
5.002654e+003,2.203695e-001
5.006511e+003,2.209220e-001
5.010368e+003,2.250504e-001
5.014225e+003,2.295181e-001
5.018083e+003,2.312125e-001
5.021939e+003,2.300711e-001
5.025796e+003,2.294136e-001
5.029654e+003,2.295911e-001
5.033511e+003,2.266925e-001
5.037368e+003,2.212368e-001
5.041225e+003,2.201216e-001
5.045082e+003,2.216795e-001
5.048939e+003,2.209951e-001
5.052796e+003,2.245324e-001
5.056653e+003,2.228041e-001
5.060510e+003,2.205367e-001
5.064368e+003,2.231462e-001
5.068225e+003,2.214187e-001
5.072082e+003,2.170426e-001
5.075939e+003,2.160699e-001
5.079796e+003,2.208212e-001
5.083653e+003,2.224938e-001
5.087510e+003,2.220316e-001
5.091367e+003,2.274839e-001
5.095224e+003,2.304956e-001
5.099082e+003,2.331559e-001
5.102938e+003,2.311247e-001
5.106795e+003,2.223520e-001
5.110653e+003,2.158016e-001
5.114510e+003,2.180555e-001
5.118367e+003,2.204236e-001
5.122224e+003,2.136127e-001
5.126081e+003,2.113992e-001
5.129938e+003,2.179128e-001
5.133795e+003,2.268939e-001
5.137652e+003,2.264492e-001
5.141509e+003,2.194642e-001
5.145367e+003,2.236037e-001
5.149224e+003,2.271342e-001
5.153081e+003,2.241760e-001
5.156938e+003,2.214610e-001
5.160795e+003,2.238184e-001
5.164652e+003,2.304693e-001
5.168509e+003,2.300817e-001
5.172366e+003,2.280352e-001
5.176223e+003,2.292440e-001
5.180081e+003,2.293908e-001
5.183938e+003,2.273029e-001
5.187794e+003,2.263541e-001
5.191652e+003,2.244831e-001
5.195509e+003,2.286242e-001
5.199366e+003,2.351132e-001
5.203223e+003,2.346134e-001
5.207080e+003,2.346718e-001
5.210937e+003,2.309052e-001
5.214794e+003,2.310713e-001
5.218651e+003,2.312178e-001
5.222508e+003,2.308855e-001
5.226366e+003,2.279852e-001
5.230223e+003,2.221931e-001
5.234080e+003,2.181685e-001
5.237937e+003,2.242568e-001
5.241794e+003,2.246650e-001
5.245651e+003,2.173509e-001
5.249508e+003,2.151189e-001
5.253365e+003,2.187544e-001
5.257222e+003,2.181598e-001
5.261080e+003,2.212028e-001
5.264937e+003,2.141875e-001
5.268793e+003,2.177501e-001
5.272651e+003,2.266464e-001
5.276508e+003,2.231337e-001
5.280365e+003,2.210332e-001
5.284222e+003,2.253488e-001
5.288079e+003,2.317153e-001
5.291936e+003,2.330365e-001
5.295793e+003,2.258744e-001
5.299650e+003,2.274202e-001
5.303507e+003,2.317873e-001
5.307365e+003,2.308381e-001
5.311222e+003,2.255060e-001
5.315079e+003,2.187423e-001
5.318936e+003,2.170684e-001
5.322793e+003,2.158974e-001
5.326650e+003,2.134946e-001
5.330507e+003,2.127411e-001
5.334364e+003,2.144221e-001
5.338221e+003,2.166347e-001
5.342079e+003,2.117087e-001
5.345936e+003,2.109748e-001
5.349792e+003,2.201271e-001
5.353650e+003,2.150316e-001
5.357507e+003,2.129565e-001
5.361364e+003,2.227961e-001
5.365221e+003,2.229681e-001
5.369078e+003,2.264909e-001
5.372935e+003,2.230652e-001
5.376792e+003,2.235157e-001
5.380649e+003,2.213814e-001
5.384506e+003,2.164752e-001
5.388364e+003,2.273602e-001
5.392221e+003,2.302477e-001
5.396078e+003,2.263986e-001
5.399935e+003,2.264499e-001
5.403792e+003,2.217233e-001
5.407649e+003,2.204086e-001
5.411506e+003,2.240360e-001
5.415363e+003,2.232402e-001
5.419220e+003,2.180511e-001
5.423078e+003,2.128829e-001
5.426935e+003,2.128175e-001
5.430792e+003,2.031599e-001
5.434649e+003,2.006018e-001
5.438506e+003,2.145609e-001
5.442363e+003,2.240188e-001
5.446220e+003,2.251540e-001
5.450077e+003,2.211018e-001
5.453934e+003,2.121886e-001
5.457792e+003,2.132747e-001
5.461648e+003,2.123965e-001
5.465505e+003,2.142864e-001
5.469363e+003,2.121903e-001
5.473220e+003,2.090506e-001
5.477077e+003,2.095890e-001
5.480934e+003,2.161295e-001
5.484791e+003,2.200538e-001
5.488648e+003,2.102692e-001
5.492505e+003,2.013951e-001
5.496362e+003,2.123254e-001
5.500219e+003,2.218001e-001
5.504077e+003,2.186358e-001
5.507934e+003,2.217512e-001
5.511791e+003,2.165388e-001
5.515648e+003,2.131846e-001
5.519505e+003,2.105635e-001
5.523362e+003,2.055126e-001
5.527219e+003,2.022327e-001
5.531076e+003,2.061798e-001
5.534933e+003,2.097636e-001
5.538791e+003,2.096270e-001
5.542647e+003,2.077330e-001
5.546504e+003,2.097969e-001
5.550362e+003,2.118261e-001
5.554219e+003,2.181466e-001
5.558076e+003,2.255999e-001
5.561933e+003,2.233689e-001
5.565790e+003,2.149222e-001
5.569647e+003,2.166715e-001
5.573504e+003,2.216885e-001
5.577361e+003,2.221704e-001
5.581218e+003,2.232626e-001
5.585076e+003,2.241092e-001
5.588933e+003,2.264609e-001
5.592790e+003,2.299653e-001
5.596647e+003,2.234592e-001
5.600504e+003,2.054082e-001
5.604361e+003,1.912728e-001
5.608218e+003,1.893485e-001
5.612075e+003,1.948555e-001
5.615932e+003,2.007353e-001
5.619790e+003,2.100155e-001
5.623646e+003,2.110128e-001
5.627503e+003,2.091566e-001
5.631361e+003,2.118738e-001
5.635218e+003,2.136485e-001
5.639075e+003,2.110302e-001
5.642932e+003,2.117677e-001
5.646789e+003,2.104496e-001
5.650646e+003,2.105163e-001
5.654503e+003,2.125913e-001
5.658360e+003,2.147128e-001
5.662217e+003,2.123175e-001
5.666075e+003,2.118165e-001
5.669932e+003,2.141834e-001
5.673789e+003,2.122922e-001
5.677646e+003,2.071961e-001
5.681503e+003,2.122962e-001
5.685360e+003,2.104857e-001
5.689217e+003,2.030724e-001
5.693074e+003,2.082384e-001
5.696931e+003,2.084808e-001
5.700789e+003,2.088987e-001
5.704646e+003,2.136902e-001
5.708502e+003,2.102268e-001
5.712360e+003,2.033070e-001
5.716217e+003,1.991464e-001
5.720074e+003,2.057772e-001
5.723931e+003,2.008040e-001
5.727788e+003,1.928114e-001
5.731645e+003,1.934192e-001
5.735502e+003,1.909436e-001
5.739359e+003,2.035082e-001
5.743216e+003,2.142446e-001
5.747074e+003,2.120168e-001
5.750931e+003,2.099622e-001
5.754788e+003,2.120535e-001
5.758645e+003,2.075859e-001
5.762502e+003,2.048948e-001
5.766359e+003,2.095392e-001
5.770216e+003,2.162745e-001
5.774073e+003,2.197622e-001
5.777930e+003,2.197945e-001
5.781788e+003,2.076776e-001
5.785645e+003,2.119735e-001
5.789501e+003,2.191545e-001
5.793359e+003,2.083797e-001
5.797216e+003,1.949333e-001
5.801073e+003,1.890864e-001
5.804930e+003,1.891020e-001
5.808787e+003,1.947865e-001
5.812644e+003,1.953738e-001
5.816501e+003,1.868527e-001
5.820358e+003,1.908335e-001
5.824215e+003,2.041899e-001
5.828073e+003,2.018831e-001
5.831930e+003,1.961360e-001
5.835787e+003,2.049467e-001
5.839644e+003,2.002006e-001
5.843501e+003,1.956314e-001
5.847358e+003,1.970087e-001
5.851215e+003,2.000124e-001
5.855072e+003,2.018986e-001
5.858929e+003,2.010191e-001
5.862787e+003,1.918759e-001
5.866644e+003,1.900998e-001
5.870500e+003,2.006007e-001
5.874358e+003,2.026928e-001
5.878215e+003,2.013326e-001
5.882072e+003,1.989166e-001
5.885929e+003,1.952672e-001
5.889786e+003,1.964950e-001
5.893643e+003,1.935748e-001
5.897500e+003,1.937027e-001
5.901357e+003,1.960084e-001
5.905214e+003,1.924754e-001
5.909072e+003,1.928226e-001
5.912929e+003,1.969996e-001
5.916786e+003,1.968674e-001
5.920643e+003,1.978624e-001
5.924500e+003,1.968675e-001
5.928357e+003,2.044414e-001
5.932214e+003,2.059090e-001
5.936071e+003,1.999987e-001
5.939928e+003,1.860454e-001
5.943786e+003,1.807216e-001
5.947643e+003,1.900206e-001
5.951500e+003,1.982620e-001
5.955357e+003,2.025135e-001
5.959214e+003,2.007401e-001
5.963071e+003,1.977741e-001
5.966928e+003,1.997062e-001
5.970785e+003,1.933462e-001
5.974642e+003,1.846487e-001
5.978500e+003,1.858637e-001
5.982356e+003,1.872895e-001
5.986213e+003,1.856564e-001
5.990071e+003,1.847785e-001
5.993928e+003,1.863938e-001
5.997785e+003,1.800740e-001
6.001642e+003,1.792746e-001
6.005499e+003,1.853397e-001
6.009356e+003,1.899847e-001
6.013213e+003,1.867235e-001
6.017070e+003,1.788808e-001
6.020927e+003,1.851449e-001
6.024785e+003,1.885886e-001
6.028642e+003,1.796770e-001
6.032499e+003,1.823974e-001
6.036356e+003,1.862133e-001
6.040213e+003,1.851783e-001
6.044070e+003,1.854736e-001
6.047927e+003,1.879622e-001
6.051784e+003,1.870359e-001
6.055641e+003,1.860584e-001
6.059499e+003,1.852172e-001
6.063355e+003,1.925777e-001
6.067212e+003,2.023366e-001
6.071070e+003,1.994610e-001
6.074927e+003,1.842377e-001
6.078784e+003,1.766754e-001
6.082641e+003,1.780578e-001
6.086498e+003,1.830566e-001
6.090355e+003,1.832564e-001
6.094212e+003,1.791383e-001
6.098069e+003,1.765773e-001
6.101926e+003,1.814466e-001
6.105784e+003,1.883363e-001
6.109641e+003,1.894452e-001
6.113498e+003,1.866138e-001
6.117355e+003,1.718747e-001
6.121212e+003,1.722446e-001
6.125069e+003,1.784180e-001
6.128926e+003,1.859462e-001
6.132783e+003,1.910810e-001
6.136640e+003,1.880904e-001
6.140498e+003,1.796940e-001
6.144354e+003,1.807849e-001
6.148211e+003,1.821583e-001
6.152069e+003,1.805378e-001
6.155926e+003,1.741141e-001
6.159783e+003,1.644782e-001
6.163640e+003,1.662223e-001
6.167497e+003,1.731447e-001
6.171354e+003,1.705403e-001
6.175211e+003,1.759701e-001
6.179068e+003,1.858563e-001
6.182925e+003,1.887543e-001
6.186783e+003,1.860976e-001
6.190640e+003,1.697201e-001
6.194497e+003,1.524545e-001
6.198354e+003,1.538529e-001
6.202211e+003,1.695897e-001
6.206068e+003,1.614466e-001
6.209925e+003,1.541662e-001
6.213782e+003,1.577991e-001
6.217639e+003,1.641317e-001
6.221497e+003,1.819450e-001
6.225354e+003,1.798229e-001
6.229210e+003,1.629168e-001
6.233068e+003,1.665154e-001
6.236925e+003,1.700616e-001
6.240782e+003,1.714491e-001
6.244639e+003,1.800158e-001
6.248496e+003,1.769030e-001
6.252353e+003,1.735501e-001
6.256210e+003,1.794025e-001
6.260067e+003,1.824631e-001
6.263924e+003,1.723367e-001
6.267782e+003,1.688261e-001
6.271639e+003,1.840625e-001
6.275496e+003,1.904786e-001
6.279353e+003,1.883894e-001
6.283210e+003,1.809092e-001
6.287067e+003,1.683879e-001
6.290924e+003,1.671967e-001
6.294781e+003,1.793049e-001
6.298638e+003,1.775090e-001
6.302496e+003,1.684056e-001
6.306353e+003,1.581845e-001
6.310209e+003,1.661238e-001
6.314067e+003,1.888578e-001
6.317924e+003,1.910379e-001
6.321781e+003,1.722363e-001
6.325638e+003,1.677724e-001
6.329495e+003,1.711841e-001
6.333352e+003,1.853916e-001
6.337209e+003,1.835986e-001
6.341066e+003,1.739772e-001
6.344923e+003,1.761175e-001
6.348780e+003,1.712700e-001
6.352638e+003,1.549822e-001
6.356495e+003,1.495017e-001
6.360352e+003,1.614715e-001
6.364209e+003,1.694536e-001
6.368066e+003,1.713372e-001
6.371923e+003,1.771506e-001
6.375780e+003,1.731227e-001
6.379637e+003,1.688944e-001
6.383494e+003,1.574357e-001
6.387352e+003,1.532483e-001
6.391208e+003,1.511416e-001
6.395065e+003,1.554856e-001
6.398923e+003,1.722966e-001
6.402780e+003,1.892795e-001
6.406637e+003,1.917556e-001
6.410494e+003,1.818071e-001
6.414351e+003,1.683727e-001
6.418208e+003,1.685405e-001
6.422065e+003,1.668364e-001
6.425922e+003,1.697933e-001
6.429779e+003,1.644518e-001
6.433637e+003,1.516859e-001
6.437494e+003,1.555575e-001
6.441351e+003,1.658110e-001
6.445208e+003,1.740359e-001
6.449065e+003,1.710404e-001
6.452922e+003,1.597359e-001
6.456779e+003,1.626459e-001
6.460636e+003,1.632064e-001
6.464493e+003,1.633241e-001
6.468351e+003,1.740305e-001
6.472208e+003,1.761755e-001
6.476064e+003,1.689043e-001
6.479922e+003,1.707178e-001
6.483779e+003,1.710735e-001
6.487636e+003,1.561824e-001
6.491493e+003,1.549663e-001
6.495350e+003,1.668088e-001
6.499207e+003,1.676093e-001
6.503064e+003,1.570975e-001
6.506921e+003,1.587008e-001
6.510778e+003,1.703129e-001
6.514636e+003,1.643192e-001
6.518493e+003,1.589056e-001
6.522350e+003,1.626632e-001
6.526207e+003,1.577641e-001
6.530064e+003,1.549957e-001
6.533921e+003,1.628037e-001
6.537778e+003,1.675886e-001
6.541635e+003,1.650282e-001
6.545492e+003,1.650748e-001
6.549350e+003,1.473053e-001
6.553207e+003,1.439096e-001
6.557063e+003,1.711779e-001
6.560921e+003,1.831237e-001
6.564778e+003,1.683220e-001
6.568635e+003,1.593710e-001
6.572492e+003,1.555538e-001
6.576349e+003,1.577166e-001
6.580206e+003,1.713216e-001
6.584063e+003,1.684217e-001
6.587920e+003,1.650988e-001
6.591777e+003,1.581856e-001
6.595635e+003,1.543387e-001
6.599492e+003,1.648288e-001
6.603349e+003,1.658741e-001
6.607206e+003,1.700031e-001
6.611063e+003,1.746123e-001
6.614920e+003,1.811076e-001
6.618777e+003,1.655743e-001
6.622634e+003,1.478499e-001
6.626491e+003,1.493016e-001
6.630349e+003,1.603272e-001
6.634206e+003,1.651325e-001
6.638063e+003,1.692212e-001
6.641920e+003,1.790325e-001
6.645777e+003,1.708192e-001
6.649634e+003,1.559455e-001
6.653491e+003,1.673989e-001
6.657348e+003,1.612935e-001
6.661205e+003,1.503173e-001
6.665063e+003,1.573843e-001
6.668919e+003,1.676922e-001
6.672776e+003,1.525731e-001
6.676634e+003,1.486895e-001
6.680491e+003,1.517661e-001
6.684348e+003,1.503780e-001
6.688205e+003,1.521996e-001
6.692062e+003,1.550697e-001
6.695919e+003,1.556594e-001
6.699776e+003,1.561005e-001
6.703633e+003,1.633203e-001
6.707490e+003,1.779014e-001
6.711348e+003,1.771835e-001
6.715205e+003,1.617668e-001
6.719062e+003,1.577038e-001
6.722919e+003,1.646910e-001
6.726776e+003,1.651654e-001
6.730633e+003,1.650336e-001
6.734490e+003,1.594695e-001
6.738347e+003,1.529762e-001
6.742204e+003,1.457698e-001
6.746062e+003,1.436180e-001
6.749918e+003,1.438659e-001
6.753775e+003,1.408905e-001
6.757633e+003,1.493053e-001
6.761490e+003,1.606526e-001
6.765347e+003,1.626493e-001
6.769204e+003,1.593345e-001
6.773061e+003,1.521579e-001
6.776918e+003,1.424947e-001
6.780775e+003,1.319726e-001
6.784632e+003,1.491378e-001
6.788489e+003,1.582336e-001
6.792347e+003,1.534625e-001
6.796204e+003,1.622345e-001
6.800061e+003,1.846474e-001
6.803918e+003,1.914280e-001
6.807775e+003,1.723757e-001
6.811632e+003,1.684896e-001
6.815489e+003,1.705299e-001
6.819346e+003,1.547313e-001
6.823203e+003,1.366619e-001
6.827061e+003,1.441853e-001
6.830917e+003,1.398972e-001
6.834774e+003,1.347218e-001
6.838632e+003,1.378024e-001
6.842489e+003,1.528530e-001
6.846346e+003,1.596042e-001
6.850203e+003,1.577344e-001
6.854060e+003,1.646128e-001
6.857917e+003,1.520132e-001
6.861774e+003,1.515892e-001
6.865631e+003,1.579943e-001
6.869488e+003,1.711264e-001
6.873346e+003,1.755634e-001
6.877203e+003,1.604221e-001
6.881060e+003,1.593613e-001
6.884917e+003,1.690825e-001
6.888774e+003,1.580028e-001
6.892631e+003,1.639773e-001
6.896488e+003,1.640694e-001
6.900345e+003,1.619469e-001
6.904202e+003,1.512368e-001
6.908060e+003,1.467612e-001
6.911917e+003,1.530352e-001
6.915773e+003,1.536199e-001
6.919631e+003,1.559792e-001
6.923488e+003,1.557326e-001
6.927345e+003,1.598186e-001
6.931202e+003,1.524845e-001
6.935059e+003,1.734698e-001
6.938916e+003,1.811322e-001
6.942773e+003,1.715792e-001
6.946630e+003,1.791333e-001
6.950487e+003,1.764276e-001
6.954345e+003,1.623428e-001
6.958202e+003,1.482963e-001
6.962059e+003,1.507957e-001
6.965916e+003,1.278660e-001
6.969773e+003,1.304659e-001
6.973630e+003,1.760027e-001
6.977487e+003,1.682629e-001
6.981344e+003,1.496671e-001
6.985201e+003,1.675166e-001
6.989059e+003,1.642788e-001
6.992916e+003,1.713786e-001
6.996772e+003,1.854300e-001
7.000630e+003,1.750358e-001
7.004487e+003,1.824565e-001
7.008344e+003,1.933394e-001
7.012201e+003,1.876088e-001
7.016058e+003,1.827405e-001
7.019915e+003,1.771826e-001
7.023772e+003,1.582575e-001
7.027629e+003,1.609283e-001
7.031486e+003,1.756557e-001
7.035344e+003,1.642938e-001
7.039201e+003,1.422137e-001
7.043058e+003,1.540332e-001
7.046915e+003,1.581949e-001
7.050772e+003,1.341051e-001
7.054629e+003,1.534116e-001
7.058486e+003,1.819029e-001
7.062343e+003,1.572775e-001
7.066200e+003,1.557080e-001
7.070058e+003,1.770523e-001
7.073915e+003,1.993341e-001
7.077771e+003,2.166687e-001
7.081629e+003,1.857736e-001
7.085486e+003,1.640715e-001
7.089343e+003,1.792415e-001
7.093200e+003,2.074451e-001
7.097057e+003,1.889678e-001
7.100914e+003,1.626531e-001
7.104771e+003,1.641049e-001
7.108628e+003,1.744120e-001
7.112485e+003,1.717264e-001
7.116343e+003,1.719994e-001
7.120200e+003,1.823426e-001
7.124057e+003,1.837337e-001
7.127914e+003,1.842253e-001
7.131771e+003,1.698168e-001
7.135628e+003,1.707686e-001
7.139485e+003,1.823691e-001
7.143342e+003,1.937996e-001
7.147199e+003,1.933740e-001
7.151057e+003,1.697580e-001
7.154914e+003,1.816709e-001
7.158771e+003,1.661965e-001
7.162628e+003,1.545885e-001
7.166485e+003,1.718880e-001
7.170342e+003,1.775651e-001
7.174199e+003,2.016729e-001
7.178056e+003,2.338527e-001
7.181913e+003,2.039295e-001
7.185771e+003,1.619058e-001
7.189627e+003,1.778698e-001
7.193484e+003,1.884782e-001
7.197342e+003,1.740265e-001
7.201199e+003,1.735822e-001
7.205056e+003,1.910942e-001
7.208913e+003,1.821090e-001
7.212770e+003,1.853101e-001
7.216627e+003,1.732908e-001
7.220484e+003,1.566353e-001
7.224341e+003,1.377388e-001
7.228198e+003,1.278866e-001
7.232056e+003,1.658211e-001
7.235913e+003,1.654912e-001
7.239770e+003,1.715954e-001
7.243627e+003,1.789615e-001
7.247484e+003,1.457498e-001
7.251341e+003,1.445494e-001
7.255198e+003,1.399874e-001
7.259055e+003,1.299587e-001
7.262912e+003,1.575100e-001
7.266770e+003,1.669766e-001
7.270626e+003,1.594707e-001
7.274483e+003,1.615611e-001
7.278341e+003,1.531884e-001
7.282198e+003,1.286329e-001
7.286055e+003,1.546347e-001
7.289912e+003,1.830566e-001
7.293769e+003,1.832434e-001
7.297626e+003,1.646257e-001
7.301483e+003,1.863586e-001
7.305340e+003,1.907506e-001
7.309197e+003,1.580122e-001
7.313055e+003,1.636710e-001
7.316912e+003,1.801589e-001
7.320769e+003,1.579379e-001
7.324626e+003,1.240999e-001
7.328483e+003,1.558651e-001
7.332340e+003,1.939989e-001
7.336197e+003,1.845781e-001
7.340054e+003,1.674773e-001
7.343911e+003,1.586306e-001
7.347769e+003,1.933796e-001
7.351625e+003,2.301780e-001
7.355482e+003,2.034931e-001
7.359340e+003,1.507035e-001
7.363197e+003,1.196987e-001
7.367054e+003,1.329277e-001
7.370911e+003,1.874450e-001
7.374768e+003,2.089251e-001
7.378625e+003,1.938950e-001
7.382482e+003,1.588620e-001
7.386339e+003,1.729039e-001
7.390196e+003,1.986171e-001
7.394054e+003,1.748551e-001
7.397911e+003,1.434282e-001
7.401768e+003,1.225946e-001
7.405625e+003,1.227739e-001
7.409482e+003,1.372487e-001
7.413339e+003,1.610908e-001
7.417196e+003,1.820751e-001
7.421053e+003,1.650782e-001
7.424910e+003,1.324600e-001
7.428768e+003,9.431449e-002
7.432625e+003,1.365823e-001
7.436481e+003,2.090610e-001
7.440339e+003,2.049982e-001
7.444196e+003,1.869673e-001
7.448053e+003,1.793997e-001
7.451910e+003,1.607009e-001
7.455767e+003,2.061650e-001
7.459624e+003,2.227094e-001
7.463481e+003,1.683641e-001
7.467338e+003,1.538256e-001
7.471195e+003,1.442126e-001
7.475053e+003,1.477607e-001
7.478910e+003,1.878126e-001
7.482767e+003,2.180326e-001
7.486624e+003,2.154513e-001
7.490481e+003,1.933513e-001
7.494338e+003,1.705233e-001
7.498195e+003,1.694668e-001
7.502052e+003,1.805839e-001
7.505909e+003,1.911581e-001
7.509767e+003,2.097090e-001
7.513624e+003,1.833461e-001
7.517480e+003,1.428612e-001
7.521338e+003,1.485236e-001
7.525195e+003,1.737219e-001
7.529052e+003,2.251661e-001
7.532909e+003,2.507114e-001
7.536766e+003,2.373725e-001
7.540623e+003,1.932326e-001
7.544480e+003,1.587076e-001
7.548337e+003,2.033762e-001
7.552194e+003,2.184318e-001
7.556052e+003,1.750767e-001
7.559909e+003,1.599375e-001
7.563766e+003,2.009489e-001
7.567623e+003,2.017844e-001
7.571480e+003,1.754869e-001
7.575337e+003,1.703784e-001
7.579194e+003,2.011737e-001
7.583051e+003,2.485806e-001
7.586908e+003,2.130952e-001
7.590766e+003,1.814863e-001
7.594623e+003,1.505849e-001
7.598479e+003,1.407602e-001
7.602337e+003,1.774573e-001
7.606194e+003,1.716973e-001
7.610051e+003,1.667973e-001
7.613908e+003,1.863459e-001
7.617765e+003,1.776111e-001
7.621622e+003,2.188233e-001
7.625479e+003,2.288720e-001
7.629336e+003,1.794131e-001
7.633193e+003,1.877682e-001
7.637051e+003,1.930451e-001
7.640908e+003,1.862031e-001
7.644765e+003,1.527021e-001
7.648622e+003,1.197435e-001
7.652479e+003,1.499699e-001
7.656336e+003,1.981998e-001
7.660193e+003,2.288141e-001
7.664050e+003,2.358288e-001
7.667907e+003,1.930082e-001
7.671765e+003,1.355633e-001
7.675622e+003,1.529906e-001
7.679479e+003,1.958049e-001
7.683336e+003,2.330430e-001
7.687193e+003,2.314861e-001
7.691050e+003,1.956627e-001
7.694907e+003,1.663047e-001
7.698764e+003,1.711876e-001
7.702621e+003,1.857118e-001
7.706479e+003,2.576161e-001
7.710335e+003,3.028416e-001
7.714192e+003,2.466065e-001
7.718050e+003,1.746029e-001
7.721907e+003,1.358102e-001
7.725764e+003,1.669975e-001
7.729621e+003,1.703270e-001
7.733478e+003,1.433092e-001
7.737335e+003,1.630358e-001
7.741192e+003,2.425987e-001
7.745049e+003,1.984090e-001
7.748906e+003,1.059083e-001
7.752764e+003,1.261082e-001
7.756621e+003,1.995273e-001
7.760478e+003,1.969218e-001
7.764335e+003,1.622953e-001
7.768192e+003,1.171567e-001
7.772049e+003,1.490711e-001
7.775906e+003,1.895528e-001
7.779763e+003,1.786379e-001
7.783620e+003,1.686565e-001
7.787478e+003,1.498370e-001
7.791334e+003,1.856699e-001
7.795191e+003,2.283466e-001
7.799049e+003,1.919189e-001
7.802906e+003,1.966800e-001
7.806763e+003,2.139383e-001
7.810620e+003,2.208228e-001
7.814477e+003,1.963607e-001
7.818334e+003,2.149690e-001
7.822191e+003,1.677016e-001
7.826048e+003,1.161163e-001
7.829905e+003,1.565625e-001
7.833763e+003,1.680925e-001
7.837620e+003,1.495984e-001
7.841477e+003,1.653316e-001
7.845334e+003,2.028949e-001
7.849191e+003,2.151052e-001
7.853048e+003,2.613687e-001
7.856905e+003,3.097267e-001
7.860762e+003,2.937893e-001
7.864619e+003,2.499817e-001
7.868477e+003,2.369004e-001
7.872333e+003,2.564420e-001
7.876190e+003,2.522217e-001
7.880048e+003,1.955929e-001
7.883905e+003,1.448942e-001
7.887762e+003,1.639557e-001
7.891619e+003,2.500613e-001
7.895476e+003,2.808087e-001
7.899333e+003,2.706294e-001
7.903190e+003,2.295219e-001
7.907047e+003,1.712253e-001
7.910904e+003,1.393057e-001
7.914762e+003,1.539264e-001
7.918619e+003,1.916122e-001
7.922476e+003,2.276177e-001
7.926333e+003,1.757895e-001
7.930190e+003,1.731391e-001
7.934047e+003,2.528096e-001
7.937904e+003,2.656271e-001
7.941761e+003,2.222743e-001
7.945618e+003,2.854061e-001
7.949476e+003,2.531505e-001
7.953333e+003,2.236828e-001
7.957189e+003,2.696082e-001
7.961047e+003,1.964336e-001
7.964904e+003,1.656958e-001
7.968761e+003,2.201508e-001
7.972618e+003,2.370890e-001
7.976475e+003,2.245131e-001
7.980332e+003,1.822051e-001
7.984189e+003,1.413269e-001
7.988046e+003,2.279525e-001
7.991903e+003,2.990369e-001
7.995761e+003,2.346747e-001
7.999618e+003,1.908638e-001
