4.011380e+002,6.000000e+000
4.049951e+002,8.625682e-002
4.088522e+002,6.000000e+000
4.127093e+002,-3.574592e-001
4.165664e+002,6.000000e+000
4.204235e+002,-2.985893e-001
4.242806e+002,6.000000e+000
4.281377e+002,6.000000e+000
4.319948e+002,6.000000e+000
4.358519e+002,-3.501594e-001
4.397090e+002,6.000000e+000
4.435661e+002,6.000000e+000
4.474232e+002,6.000000e+000
4.512803e+002,3.031248e-001
4.551374e+002,-4.140840e-001
4.589945e+002,-6.772096e-001
4.628516e+002,-5.609755e-002
4.667087e+002,-3.584992e-001
4.705658e+002,6.000000e+000
4.744229e+002,5.587266e-001
4.782800e+002,2.149210e-001
4.821371e+002,6.000000e+000
4.859941e+002,6.000000e+000
4.898513e+002,6.000000e+000
4.937083e+002,-1.271660e+000
4.975654e+002,6.000000e+000
5.014225e+002,6.000000e+000
5.052796e+002,6.000000e+000
5.091367e+002,6.000000e+000
5.129938e+002,6.000000e+000
5.168509e+002,-1.586397e-001
5.207080e+002,3.074935e-001
5.245651e+002,2.615820e-001
5.284222e+002,2.867393e-001
5.322793e+002,6.504797e-001
5.361364e+002,6.000000e+000
5.399935e+002,6.000000e+000
5.438506e+002,-1.766718e-001
5.477077e+002,-1.406089e+000
5.515648e+002,-4.122938e-001
5.554219e+002,6.000000e+000
5.592790e+002,6.000000e+000
5.631361e+002,6.000000e+000
5.669932e+002,1.037500e-001
5.708503e+002,6.000000e+000
5.747074e+002,5.879687e-001
5.785645e+002,1.541996e-001
5.824216e+002,6.000000e+000
5.862787e+002,6.000000e+000
5.901357e+002,6.000000e+000
5.939929e+002,6.000000e+000
5.978499e+002,6.000000e+000
6.017070e+002,6.000000e+000
6.055641e+002,-2.381520e-001
6.094212e+002,6.701950e-001
6.132783e+002,-1.218092e+000
6.171354e+002,6.000000e+000
6.209925e+002,6.000000e+000
6.248496e+002,2.702156e-002
6.287067e+002,6.000000e+000
6.325638e+002,6.000000e+000
6.364209e+002,6.000000e+000
6.402780e+002,-1.235978e+000
6.441351e+002,-2.159934e-001
6.479922e+002,5.505498e-002
6.518493e+002,6.000000e+000
6.557064e+002,6.000000e+000
6.595635e+002,6.000000e+000
6.634205e+002,6.000000e+000
6.672777e+002,6.000000e+000
6.711348e+002,6.000000e+000
6.749918e+002,-4.943772e-001
6.788490e+002,2.060048e-001
6.827061e+002,4.905758e-001
6.865631e+002,6.000000e+000
6.904203e+002,9.266229e-001
6.942773e+002,7.426217e-001
6.981344e+002,6.000000e+000
7.019916e+002,6.000000e+000
7.058486e+002,6.000000e+000
7.097057e+002,6.000000e+000
7.135629e+002,6.000000e+000
7.174199e+002,2.827464e-001
7.212770e+002,6.000000e+000
7.251342e+002,-4.501835e-001
7.289912e+002,6.000000e+000
7.328483e+002,-1.124472e+000
7.367054e+002,-1.541652e-001
7.405625e+002,7.493191e-001
7.444196e+002,-2.137654e-001
7.482767e+002,6.000000e+000
7.521338e+002,2.038545e+000
7.559908e+002,6.000000e+000
7.598480e+002,6.000000e+000
7.637051e+002,-1.865889e-001
7.675621e+002,2.968565e-002
7.714193e+002,-7.771808e-001
7.752764e+002,-8.369090e-001
7.791334e+002,-4.655174e-001
7.829905e+002,1.150981e+000
7.868477e+002,-9.243603e-002
7.907047e+002,6.000000e+000
7.945618e+002,6.000000e+000
7.984189e+002,5.684889e-001
8.022760e+002,1.483904e-001
8.061331e+002,6.000000e+000
8.099902e+002,6.000000e+000
8.138473e+002,6.000000e+000
8.177044e+002,4.372186e-001
8.215615e+002,6.000000e+000
8.254186e+002,-9.410921e-002
8.292757e+002,6.000000e+000
8.331328e+002,6.000000e+000
8.369899e+002,1.509584e+000
8.408470e+002,2.729775e-001
8.447041e+002,3.146062e-001
8.485612e+002,8.123357e-001
8.524183e+002,1.068266e+000
8.562754e+002,7.306035e-001
8.601324e+002,7.163252e-001
8.639896e+002,1.046197e+000
8.678467e+002,1.363858e+000
8.717037e+002,1.180068e+000
8.755609e+002,9.266311e-001
8.794180e+002,9.978220e-001
8.832750e+002,1.714571e+000
8.871321e+002,1.339664e+000
8.909893e+002,1.735634e+000
8.948463e+002,6.000000e+000
8.987034e+002,6.000000e+000
9.025605e+002,6.000000e+000
9.064176e+002,2.424374e+000
9.102747e+002,6.000000e+000
9.141318e+002,6.000000e+000
9.179889e+002,6.000000e+000
9.218461e+002,1.760410e+000
9.257031e+002,2.312198e+000
9.295602e+002,6.000000e+000
9.334174e+002,2.997656e+000
9.372744e+002,2.112767e+000
9.411315e+002,1.876551e+000
9.449886e+002,1.533114e+000
9.488457e+002,1.306941e+000
9.527028e+002,1.363486e+000
9.565599e+002,1.628527e+000
9.604170e+002,2.779062e+000
9.642740e+002,6.000000e+000
9.681312e+002,6.000000e+000
9.719883e+002,1.982684e+000
9.758453e+002,1.904616e+000
9.797025e+002,2.149637e+000
9.835596e+002,6.000000e+000
9.874166e+002,6.000000e+000
9.912738e+002,6.000000e+000
9.951309e+002,1.625424e+000
9.989879e+002,1.914225e+000
1.002845e+003,2.403764e+000
1.006702e+003,2.998686e+000
1.010559e+003,2.282648e+000
1.014416e+003,2.487325e+000
1.018273e+003,2.081455e+000
1.022130e+003,1.914772e+000
1.025988e+003,1.945559e+000
1.029845e+003,2.071198e+000
1.033702e+003,1.986712e+000
1.037559e+003,1.695745e+000
1.041416e+003,1.663180e+000
1.045273e+003,1.524969e+000
1.049130e+003,1.584814e+000
1.052987e+003,1.781893e+000
1.056844e+003,1.790570e+000
1.060702e+003,1.710339e+000
1.064559e+003,1.771216e+000
1.068416e+003,1.936422e+000
1.072273e+003,1.658270e+000
1.076130e+003,1.607317e+000
1.079987e+003,1.680511e+000
1.083844e+003,1.696579e+000
1.087701e+003,1.791324e+000
1.091558e+003,1.595791e+000
1.095415e+003,1.336174e+000
1.099272e+003,1.355607e+000
1.103130e+003,1.465967e+000
1.106987e+003,1.430154e+000
1.110844e+003,1.368764e+000
1.114701e+003,1.332782e+000
1.118558e+003,1.320544e+000
1.122415e+003,1.358280e+000
1.126272e+003,1.407501e+000
1.130129e+003,1.321362e+000
1.133986e+003,1.257979e+000
1.137843e+003,1.279866e+000
1.141701e+003,1.273354e+000
1.145558e+003,1.291197e+000
1.149415e+003,1.332773e+000
1.153272e+003,1.326210e+000
1.157129e+003,1.336331e+000
1.160986e+003,1.355742e+000
1.164843e+003,1.292784e+000
1.168700e+003,1.236032e+000
1.172557e+003,1.253337e+000
1.176414e+003,1.236164e+000
1.180271e+003,1.175867e+000
1.184129e+003,1.132688e+000
1.187986e+003,1.135731e+000
1.191843e+003,1.197616e+000
1.195700e+003,1.215243e+000
1.199557e+003,1.263603e+000
1.203414e+003,1.258237e+000
1.207271e+003,1.195988e+000
1.211128e+003,1.091616e+000
1.214985e+003,1.031439e+000
1.218842e+003,9.753057e-001
1.222699e+003,9.098911e-001
1.226557e+003,8.491123e-001
1.230414e+003,8.139620e-001
1.234271e+003,7.692045e-001
1.238128e+003,7.225798e-001
1.241985e+003,6.870785e-001
1.245842e+003,6.533167e-001
1.249699e+003,6.323671e-001
1.253556e+003,6.110331e-001
1.257413e+003,5.756187e-001
1.261271e+003,5.315304e-001
1.265128e+003,5.123016e-001
1.268985e+003,5.013438e-001
1.272842e+003,4.915335e-001
1.276699e+003,4.807794e-001
1.280556e+003,4.758304e-001
1.284413e+003,4.615101e-001
1.288270e+003,4.371545e-001
1.292127e+003,4.280333e-001
1.295984e+003,4.286940e-001
1.299841e+003,4.304039e-001
1.303698e+003,4.215077e-001
1.307556e+003,4.120567e-001
1.311413e+003,4.019256e-001
1.315270e+003,3.963191e-001
1.319127e+003,3.916417e-001
1.322984e+003,3.866372e-001
1.326841e+003,3.847577e-001
1.330698e+003,3.874018e-001
1.334555e+003,3.883350e-001
1.338412e+003,3.886968e-001
1.342270e+003,3.849178e-001
1.346127e+003,3.777854e-001
1.349984e+003,3.783802e-001
1.353841e+003,3.801675e-001
1.357698e+003,3.782583e-001
1.361555e+003,3.755050e-001
1.365412e+003,3.789782e-001
1.369269e+003,3.858018e-001
1.373126e+003,3.929459e-001
1.376983e+003,4.033142e-001
1.380840e+003,4.099277e-001
1.384698e+003,4.193776e-001
1.388555e+003,4.337864e-001
1.392412e+003,4.495445e-001
1.396269e+003,4.572498e-001
1.400126e+003,4.670059e-001
1.403983e+003,4.825896e-001
1.407840e+003,4.935417e-001
1.411697e+003,5.096629e-001
1.415554e+003,5.198520e-001
1.419411e+003,5.209901e-001
1.423269e+003,5.289145e-001
1.427126e+003,5.371228e-001
1.430983e+003,5.420913e-001
1.434840e+003,5.470352e-001
1.438697e+003,5.491419e-001
1.442554e+003,5.408764e-001
1.446411e+003,5.255975e-001
1.450268e+003,5.118328e-001
1.454125e+003,5.048714e-001
1.457982e+003,4.979938e-001
1.461839e+003,4.925696e-001
1.465697e+003,4.916576e-001
1.469554e+003,4.900381e-001
1.473411e+003,4.950835e-001
1.477268e+003,5.075343e-001
1.481125e+003,5.142062e-001
1.484982e+003,5.125629e-001
1.488839e+003,5.193148e-001
1.492696e+003,5.410341e-001
1.496553e+003,5.457138e-001
1.500411e+003,5.524242e-001
1.504268e+003,5.611524e-001
1.508125e+003,5.701136e-001
1.511982e+003,5.650740e-001
1.515839e+003,5.514862e-001
1.519696e+003,5.505238e-001
1.523553e+003,5.451341e-001
1.527410e+003,5.291486e-001
1.531267e+003,5.132770e-001
1.535124e+003,4.986552e-001
1.538981e+003,4.895122e-001
1.542839e+003,4.802611e-001
1.546696e+003,4.713514e-001
1.550553e+003,4.633505e-001
1.554410e+003,4.532125e-001
1.558267e+003,4.461482e-001
1.562124e+003,4.338860e-001
1.565981e+003,4.234239e-001
1.569838e+003,4.195485e-001
1.573695e+003,4.210752e-001
1.577552e+003,4.237218e-001
1.581410e+003,4.254768e-001
1.585267e+003,4.267286e-001
1.589124e+003,4.315889e-001
1.592981e+003,4.398256e-001
1.596838e+003,4.451583e-001
1.600695e+003,4.543935e-001
1.604552e+003,4.672461e-001
1.608409e+003,4.841613e-001
1.612266e+003,5.055150e-001
1.616123e+003,5.349472e-001
1.619980e+003,5.509149e-001
1.623838e+003,5.648727e-001
1.627695e+003,5.878261e-001
1.631552e+003,6.002221e-001
1.635409e+003,5.997961e-001
1.639266e+003,6.028154e-001
1.643123e+003,5.945457e-001
1.646980e+003,5.827100e-001
1.650837e+003,5.741141e-001
1.654694e+003,5.657288e-001
1.658551e+003,5.505427e-001
1.662409e+003,5.296116e-001
1.666266e+003,5.115660e-001
1.670123e+003,4.956041e-001
1.673980e+003,4.725161e-001
1.677837e+003,4.491369e-001
1.681694e+003,4.336018e-001
1.685551e+003,4.222579e-001
1.689408e+003,4.169422e-001
1.693265e+003,4.075601e-001
1.697122e+003,3.942721e-001
1.700979e+003,3.880648e-001
1.704837e+003,3.845325e-001
1.708694e+003,3.778420e-001
1.712551e+003,3.720453e-001
1.716408e+003,3.715591e-001
1.720265e+003,3.721587e-001
1.724122e+003,3.724751e-001
1.727979e+003,3.688259e-001
1.731836e+003,3.639414e-001
1.735693e+003,3.582396e-001
1.739550e+003,3.535289e-001
1.743408e+003,3.477808e-001
1.747265e+003,3.467416e-001
1.751122e+003,3.482164e-001
1.754979e+003,3.451579e-001
1.758836e+003,3.437895e-001
1.762693e+003,3.444072e-001
1.766550e+003,3.404541e-001
1.770407e+003,3.384786e-001
1.774264e+003,3.394517e-001
1.778121e+003,3.359027e-001
1.781979e+003,3.297935e-001
1.785836e+003,3.321924e-001
1.789693e+003,3.349273e-001
1.793550e+003,3.302978e-001
1.797407e+003,3.321129e-001
1.801264e+003,3.364896e-001
1.805121e+003,3.345149e-001
1.808978e+003,3.330806e-001
1.812835e+003,3.332543e-001
1.816692e+003,3.379842e-001
1.820549e+003,3.371643e-001
1.824407e+003,3.346347e-001
1.828264e+003,3.377395e-001
1.832121e+003,3.416300e-001
1.835978e+003,3.377143e-001
1.839835e+003,3.351901e-001
1.843692e+003,3.348328e-001
1.847549e+003,3.322393e-001
1.851406e+003,3.262441e-001
1.855263e+003,3.232938e-001
1.859120e+003,3.256376e-001
1.862978e+003,3.257472e-001
1.866835e+003,3.195830e-001
1.870692e+003,3.169361e-001
1.874549e+003,3.137684e-001
1.878406e+003,3.126734e-001
1.882263e+003,3.118505e-001
1.886120e+003,3.134295e-001
1.889977e+003,3.145438e-001
1.893834e+003,3.097565e-001
1.897691e+003,3.123256e-001
1.901548e+003,3.148182e-001
1.905406e+003,3.100879e-001
1.909263e+003,3.081758e-001
1.913120e+003,3.134567e-001
1.916977e+003,3.142275e-001
1.920834e+003,3.162377e-001
1.924691e+003,3.169771e-001
1.928548e+003,3.171867e-001
1.932405e+003,3.172642e-001
1.936262e+003,3.134937e-001
1.940119e+003,3.122886e-001
1.943977e+003,3.125378e-001
1.947834e+003,3.100723e-001
1.951691e+003,3.108696e-001
1.955548e+003,3.119256e-001
1.959405e+003,3.065403e-001
1.963262e+003,3.054356e-001
1.967119e+003,3.049132e-001
1.970976e+003,2.991640e-001
1.974833e+003,2.997239e-001
1.978690e+003,3.002861e-001
1.982547e+003,2.956106e-001
1.986405e+003,2.930791e-001
1.990262e+003,2.901324e-001
1.994119e+003,2.903823e-001
1.997976e+003,2.908921e-001
2.001833e+003,2.867988e-001
2.005690e+003,2.860690e-001
2.009547e+003,2.915292e-001
2.013404e+003,2.940988e-001
2.017261e+003,2.916934e-001
2.021118e+003,2.916462e-001
2.024976e+003,2.912393e-001
2.028833e+003,2.908704e-001
2.032690e+003,2.907250e-001
2.036547e+003,2.912600e-001
2.040404e+003,2.900862e-001
2.044261e+003,2.925718e-001
2.048118e+003,2.936004e-001
2.051975e+003,2.917864e-001
2.055832e+003,2.893855e-001
2.059689e+003,2.892618e-001
2.063546e+003,2.886472e-001
2.067404e+003,2.857010e-001
2.071261e+003,2.844686e-001
2.075118e+003,2.847401e-001
2.078975e+003,2.808214e-001
2.082832e+003,2.774664e-001
2.086689e+003,2.764716e-001
2.090546e+003,2.755782e-001
2.094403e+003,2.763909e-001
2.098260e+003,2.796291e-001
2.102117e+003,2.775028e-001
2.105975e+003,2.736509e-001
2.109832e+003,2.726265e-001
2.113689e+003,2.779128e-001
2.117546e+003,2.819569e-001
2.121403e+003,2.828787e-001
2.125260e+003,2.826177e-001
2.129117e+003,2.830153e-001
2.132974e+003,2.832621e-001
2.136831e+003,2.839655e-001
2.140688e+003,2.864876e-001
2.144545e+003,2.852354e-001
2.148403e+003,2.847306e-001
2.152260e+003,2.891884e-001
2.156117e+003,2.914754e-001
2.159974e+003,2.926075e-001
2.163831e+003,2.945192e-001
2.167688e+003,2.934819e-001
2.171545e+003,2.909231e-001
2.175402e+003,2.918827e-001
2.179259e+003,2.886183e-001
2.183116e+003,2.847610e-001
2.186974e+003,2.853496e-001
2.190831e+003,2.848838e-001
2.194688e+003,2.812807e-001
2.198545e+003,2.818250e-001
2.202402e+003,2.799888e-001
2.206259e+003,2.764353e-001
2.210116e+003,2.798244e-001
2.213973e+003,2.836909e-001
2.217830e+003,2.873268e-001
2.221688e+003,2.859647e-001
2.225544e+003,2.846652e-001
2.229402e+003,2.860328e-001
2.233259e+003,2.857647e-001
2.237116e+003,2.849613e-001
2.240973e+003,2.853434e-001
2.244830e+003,2.886020e-001
2.248687e+003,2.920518e-001
2.252544e+003,2.943102e-001
2.256401e+003,2.939266e-001
2.260258e+003,2.928504e-001
2.264115e+003,2.991646e-001
2.267973e+003,3.007800e-001
2.271830e+003,2.993016e-001
2.275687e+003,2.991606e-001
2.279544e+003,2.992225e-001
2.283401e+003,2.986664e-001
2.287258e+003,2.971762e-001
2.291115e+003,2.947571e-001
2.294972e+003,2.941265e-001
2.298829e+003,2.934116e-001
2.302687e+003,2.948542e-001
2.306543e+003,2.923364e-001
2.310401e+003,2.877797e-001
2.314258e+003,2.891161e-001
2.318115e+003,2.889035e-001
2.321972e+003,2.844056e-001
2.325829e+003,2.833691e-001
2.329686e+003,2.848864e-001
2.333543e+003,2.866880e-001
2.337400e+003,2.871316e-001
2.341257e+003,2.904862e-001
2.345115e+003,2.950483e-001
2.348972e+003,2.938721e-001
2.352829e+003,2.890634e-001
2.356686e+003,2.854186e-001
2.360543e+003,2.834365e-001
2.364400e+003,2.871275e-001
2.368257e+003,2.893836e-001
2.372114e+003,2.920899e-001
2.375971e+003,3.017834e-001
2.379828e+003,3.044850e-001
2.383686e+003,3.023380e-001
2.387542e+003,3.022003e-001
2.391400e+003,3.030571e-001
2.395257e+003,3.018000e-001
2.399114e+003,3.012188e-001
2.402971e+003,2.999865e-001
2.406828e+003,2.982902e-001
2.410685e+003,2.917130e-001
2.414542e+003,2.889433e-001
2.418399e+003,2.922418e-001
2.422256e+003,2.917382e-001
2.426114e+003,2.894374e-001
2.429971e+003,2.878641e-001
2.433828e+003,2.877837e-001
2.437685e+003,2.866272e-001
2.441542e+003,2.870538e-001
2.445399e+003,2.915092e-001
2.449256e+003,2.920347e-001
2.453113e+003,2.859619e-001
2.456970e+003,2.867087e-001
2.460827e+003,2.913926e-001
2.464684e+003,2.917811e-001
2.468542e+003,2.913948e-001
2.472399e+003,2.912351e-001
2.476256e+003,2.929146e-001
2.480113e+003,2.967395e-001
2.483970e+003,2.972564e-001
2.487827e+003,2.970962e-001
2.491684e+003,2.960315e-001
2.495541e+003,2.972510e-001
2.499398e+003,2.994942e-001
2.503255e+003,2.988449e-001
2.507113e+003,2.981271e-001
2.510969e+003,2.958414e-001
2.514827e+003,2.980205e-001
2.518684e+003,2.970757e-001
2.522541e+003,2.950987e-001
2.526398e+003,2.923332e-001
2.530255e+003,2.900390e-001
2.534112e+003,2.918525e-001
2.537969e+003,2.916593e-001
2.541826e+003,2.923925e-001
2.545683e+003,2.926950e-001
2.549541e+003,2.911963e-001
2.553398e+003,2.912338e-001
2.557255e+003,2.927548e-001
2.561112e+003,2.947402e-001
2.564969e+003,2.972042e-001
2.568826e+003,2.962746e-001
2.572683e+003,2.987648e-001
2.576540e+003,3.027966e-001
2.580397e+003,3.054987e-001
2.584254e+003,3.091033e-001
2.588112e+003,3.127407e-001
2.591969e+003,3.135000e-001
2.595826e+003,3.144806e-001
2.599683e+003,3.145140e-001
2.603540e+003,3.189053e-001
2.607397e+003,3.226658e-001
2.611254e+003,3.230440e-001
2.615111e+003,3.239356e-001
2.618968e+003,3.241668e-001
2.622825e+003,3.267458e-001
2.626682e+003,3.302238e-001
2.630540e+003,3.331305e-001
2.634397e+003,3.323512e-001
2.638254e+003,3.306008e-001
2.642111e+003,3.302312e-001
2.645968e+003,3.299397e-001
2.649825e+003,3.293076e-001
2.653682e+003,3.280333e-001
2.657539e+003,3.303741e-001
2.661396e+003,3.357629e-001
2.665253e+003,3.343749e-001
2.669111e+003,3.367212e-001
2.672968e+003,3.396979e-001
2.676825e+003,3.395650e-001
2.680682e+003,3.419937e-001
2.684539e+003,3.454032e-001
2.688396e+003,3.463124e-001
2.692253e+003,3.520410e-001
2.696110e+003,3.596584e-001
2.699967e+003,3.614885e-001
2.703824e+003,3.608997e-001
2.707681e+003,3.631481e-001
2.711539e+003,3.672670e-001
2.715396e+003,3.724631e-001
2.719253e+003,3.778252e-001
2.723110e+003,3.822326e-001
2.726967e+003,3.858147e-001
2.730824e+003,3.915983e-001
2.734681e+003,3.875366e-001
2.738538e+003,3.835248e-001
2.742395e+003,3.891551e-001
2.746252e+003,3.933669e-001
2.750110e+003,3.909284e-001
2.753967e+003,3.865815e-001
2.757824e+003,3.882512e-001
2.761681e+003,3.956464e-001
2.765538e+003,4.005018e-001
2.769395e+003,3.999341e-001
2.773252e+003,4.009624e-001
2.777109e+003,4.028665e-001
2.780966e+003,4.039738e-001
2.784823e+003,4.048039e-001
2.788680e+003,4.100488e-001
2.792538e+003,4.126295e-001
2.796395e+003,4.142801e-001
2.800252e+003,4.182690e-001
2.804109e+003,4.195867e-001
2.807966e+003,4.231402e-001
2.811823e+003,4.310073e-001
2.815680e+003,4.331354e-001
2.819537e+003,4.386688e-001
2.823394e+003,4.438277e-001
2.827251e+003,4.469483e-001
2.831109e+003,4.507641e-001
2.834966e+003,4.528627e-001
2.838823e+003,4.574462e-001
2.842680e+003,4.626234e-001
2.846537e+003,4.610353e-001
2.850394e+003,4.667794e-001
2.854251e+003,4.742736e-001
2.858108e+003,4.725108e-001
2.861965e+003,4.787014e-001
2.865823e+003,4.805975e-001
2.869679e+003,4.836979e-001
2.873537e+003,4.881782e-001
2.877394e+003,4.844455e-001
2.881251e+003,4.856566e-001
2.885108e+003,4.889979e-001
2.888965e+003,4.865653e-001
2.892822e+003,4.898512e-001
2.896679e+003,4.947103e-001
2.900536e+003,4.984320e-001
2.904393e+003,5.038922e-001
2.908250e+003,5.100267e-001
2.912108e+003,5.184138e-001
2.915965e+003,5.275677e-001
2.919822e+003,5.315456e-001
2.923679e+003,5.338425e-001
2.927536e+003,5.376456e-001
2.931393e+003,5.432465e-001
2.935250e+003,5.468137e-001
2.939107e+003,5.526506e-001
2.942964e+003,5.597591e-001
2.946822e+003,5.600934e-001
2.950678e+003,5.644698e-001
2.954536e+003,5.702488e-001
2.958393e+003,5.783268e-001
2.962250e+003,5.769671e-001
2.966107e+003,5.714731e-001
2.969964e+003,5.738281e-001
2.973821e+003,5.847720e-001
2.977678e+003,5.925456e-001
2.981535e+003,5.921819e-001
2.985392e+003,5.927517e-001
2.989250e+003,5.994734e-001
2.993107e+003,5.959122e-001
2.996964e+003,5.999141e-001
3.000821e+003,6.105713e-001
3.004678e+003,6.137775e-001
3.008535e+003,6.169114e-001
3.012392e+003,6.169700e-001
3.016249e+003,6.200882e-001
3.020106e+003,6.240415e-001
3.023963e+003,6.359484e-001
3.027821e+003,6.458030e-001
3.031677e+003,6.439816e-001
3.035535e+003,6.530244e-001
3.039392e+003,6.646892e-001
3.043249e+003,6.663653e-001
3.047106e+003,6.733201e-001
3.050963e+003,6.800172e-001
3.054820e+003,6.836344e-001
3.058677e+003,6.914586e-001
3.062534e+003,6.887485e-001
3.066391e+003,6.879543e-001
3.070249e+003,6.954620e-001
3.074106e+003,6.975861e-001
3.077963e+003,7.026801e-001
3.081820e+003,7.113297e-001
3.085677e+003,7.167528e-001
3.089534e+003,7.231877e-001
3.093391e+003,7.263224e-001
3.097248e+003,7.356290e-001
3.101105e+003,7.491622e-001
3.104962e+003,7.477581e-001
3.108820e+003,7.381634e-001
3.112677e+003,7.380303e-001
3.116534e+003,7.575760e-001
3.120391e+003,7.699819e-001
3.124248e+003,7.647906e-001
3.128105e+003,7.724803e-001
3.131962e+003,7.809915e-001
3.135819e+003,7.849260e-001
3.139676e+003,7.930931e-001
3.143533e+003,7.963484e-001
3.147390e+003,8.003275e-001
3.151248e+003,8.114606e-001
3.155105e+003,8.136021e-001
3.158962e+003,8.103096e-001
3.162819e+003,8.149294e-001
3.166676e+003,8.237119e-001
3.170533e+003,8.243660e-001
3.174390e+003,8.288329e-001
3.178247e+003,8.439682e-001
3.182104e+003,8.634608e-001
3.185961e+003,8.672338e-001
3.189819e+003,8.632608e-001
3.193676e+003,8.712718e-001
3.197533e+003,8.723119e-001
3.201390e+003,8.779839e-001
3.205247e+003,8.899123e-001
3.209104e+003,8.939338e-001
3.212961e+003,9.056843e-001
3.216818e+003,9.090770e-001
3.220675e+003,9.089149e-001
3.224532e+003,9.172559e-001
3.228389e+003,9.095543e-001
3.232247e+003,9.137402e-001
3.236104e+003,9.194237e-001
3.239961e+003,9.345778e-001
3.243818e+003,9.366534e-001
3.247675e+003,9.289767e-001
3.251532e+003,9.403329e-001
3.255389e+003,9.438280e-001
3.259246e+003,9.435301e-001
3.263103e+003,9.557076e-001
3.266960e+003,9.467776e-001
3.270818e+003,9.373584e-001
3.274675e+003,9.429878e-001
3.278532e+003,9.526251e-001
3.282389e+003,9.651466e-001
3.286246e+003,9.631314e-001
3.290103e+003,9.738989e-001
3.293960e+003,9.902007e-001
3.297817e+003,1.004744e+000
3.301674e+003,1.010505e+000
3.305531e+003,1.014598e+000
3.309388e+003,1.020205e+000
3.313246e+003,1.024226e+000
3.317103e+003,1.023600e+000
3.320960e+003,1.018535e+000
3.324817e+003,1.037588e+000
3.328674e+003,1.040197e+000
3.332531e+003,1.039909e+000
3.336388e+003,1.047339e+000
3.340245e+003,1.032482e+000
3.344102e+003,1.026070e+000
3.347959e+003,1.028324e+000
3.351817e+003,1.033265e+000
3.355674e+003,1.043180e+000
3.359531e+003,1.049957e+000
3.363388e+003,1.076426e+000
3.367245e+003,1.082592e+000
3.371102e+003,1.088661e+000
3.374959e+003,1.103292e+000
3.378816e+003,1.078922e+000
3.382673e+003,1.090768e+000
3.386530e+003,1.115381e+000
3.390387e+003,1.113578e+000
3.394245e+003,1.108360e+000
3.398102e+003,1.112287e+000
3.401959e+003,1.111191e+000
3.405816e+003,1.117330e+000
3.409673e+003,1.117615e+000
3.413530e+003,1.132093e+000
3.417387e+003,1.138848e+000
3.421244e+003,1.143950e+000
3.425101e+003,1.152554e+000
3.428958e+003,1.137986e+000
3.432815e+003,1.119316e+000
3.436673e+003,1.109489e+000
3.440530e+003,1.135107e+000
3.444387e+003,1.161469e+000
3.448244e+003,1.154045e+000
3.452101e+003,1.132234e+000
3.455958e+003,1.129471e+000
3.459815e+003,1.131041e+000
3.463672e+003,1.130320e+000
3.467529e+003,1.123550e+000
3.471386e+003,1.130348e+000
3.475244e+003,1.178739e+000
3.479101e+003,1.184518e+000
3.482958e+003,1.157019e+000
3.486815e+003,1.164702e+000
3.490672e+003,1.157664e+000
3.494529e+003,1.148165e+000
3.498386e+003,1.155232e+000
3.502243e+003,1.153665e+000
3.506100e+003,1.163180e+000
3.509958e+003,1.203142e+000
3.513814e+003,1.221089e+000
3.517672e+003,1.188292e+000
3.521529e+003,1.153005e+000
3.525386e+003,1.134460e+000
3.529243e+003,1.126493e+000
3.533100e+003,1.127131e+000
3.536957e+003,1.151648e+000
3.540814e+003,1.158045e+000
3.544671e+003,1.136283e+000
3.548528e+003,1.138294e+000
3.552385e+003,1.137080e+000
3.556243e+003,1.108685e+000
3.560100e+003,1.121228e+000
3.563957e+003,1.127651e+000
3.567814e+003,1.108392e+000
3.571671e+003,1.099392e+000
3.575528e+003,1.091205e+000
3.579385e+003,1.076203e+000
3.583242e+003,1.055020e+000
3.587099e+003,1.041270e+000
3.590957e+003,1.022171e+000
3.594813e+003,9.776285e-001
3.598671e+003,9.637388e-001
3.602528e+003,9.476541e-001
3.606385e+003,9.257915e-001
3.610242e+003,8.990415e-001
3.614099e+003,8.510958e-001
3.617956e+003,8.020128e-001
3.621813e+003,7.571995e-001
3.625670e+003,7.300415e-001
3.629527e+003,7.016462e-001
3.633385e+003,6.532767e-001
3.637242e+003,6.140340e-001
3.641099e+003,5.784941e-001
3.644956e+003,5.414871e-001
3.648813e+003,5.095026e-001
3.652670e+003,4.732833e-001
3.656527e+003,4.313643e-001
3.660384e+003,3.971408e-001
3.664241e+003,3.726759e-001
3.668098e+003,3.460919e-001
3.671956e+003,3.228726e-001
3.675813e+003,3.055357e-001
3.679670e+003,2.855701e-001
3.683527e+003,2.669101e-001
3.687384e+003,2.571350e-001
3.691241e+003,2.514257e-001
3.695098e+003,2.421453e-001
3.698955e+003,2.310356e-001
3.702812e+003,2.259465e-001
3.706669e+003,2.210222e-001
3.710526e+003,2.126913e-001
3.714384e+003,2.086371e-001
3.718241e+003,2.051509e-001
3.722098e+003,2.033773e-001
3.725955e+003,2.030118e-001
3.729812e+003,2.003312e-001
3.733669e+003,2.002442e-001
3.737526e+003,2.015744e-001
3.741383e+003,1.957234e-001
3.745240e+003,1.933167e-001
3.749097e+003,1.936892e-001
3.752955e+003,1.873283e-001
3.756812e+003,1.860635e-001
3.760669e+003,1.873210e-001
3.764526e+003,1.856439e-001
3.768383e+003,1.830765e-001
3.772240e+003,1.808825e-001
3.776097e+003,1.812476e-001
3.779954e+003,1.792416e-001
3.783811e+003,1.759945e-001
3.787668e+003,1.746352e-001
3.791525e+003,1.749130e-001
3.795383e+003,1.726649e-001
3.799240e+003,1.719789e-001
3.803097e+003,1.762374e-001
3.806954e+003,1.769019e-001
3.810811e+003,1.758763e-001
3.814668e+003,1.760355e-001
3.818525e+003,1.783136e-001
3.822382e+003,1.757049e-001
3.826239e+003,1.696855e-001
3.830096e+003,1.729274e-001
3.833954e+003,1.763050e-001
3.837811e+003,1.773144e-001
3.841668e+003,1.766572e-001
3.845525e+003,1.751886e-001
3.849382e+003,1.765788e-001
3.853239e+003,1.790567e-001
3.857096e+003,1.810454e-001
3.860953e+003,1.772357e-001
3.864810e+003,1.709808e-001
3.868667e+003,1.703680e-001
3.872524e+003,1.721075e-001
3.876382e+003,1.707668e-001
3.880239e+003,1.701785e-001
3.884096e+003,1.706896e-001
3.887953e+003,1.688092e-001
3.891810e+003,1.662023e-001
3.895667e+003,1.678334e-001
3.899524e+003,1.685382e-001
3.903381e+003,1.678546e-001
3.907238e+003,1.703104e-001
3.911095e+003,1.719674e-001
3.914953e+003,1.746920e-001
3.918810e+003,1.720224e-001
3.922667e+003,1.665810e-001
3.926524e+003,1.652517e-001
3.930381e+003,1.662259e-001
3.934238e+003,1.667140e-001
3.938095e+003,1.674331e-001
3.941952e+003,1.694931e-001
3.945809e+003,1.696116e-001
3.949667e+003,1.698089e-001
3.953523e+003,1.693232e-001
3.957381e+003,1.693559e-001
3.961238e+003,1.728196e-001
3.965095e+003,1.773143e-001
3.968952e+003,1.765884e-001
3.972809e+003,1.754314e-001
3.976666e+003,1.690302e-001
3.980523e+003,1.673358e-001
3.984380e+003,1.709492e-001
3.988237e+003,1.692047e-001
3.992094e+003,1.674954e-001
3.995952e+003,1.686235e-001
3.999809e+003,1.712258e-001
4.003666e+003,1.668375e-001
4.007523e+003,1.626551e-001
4.011380e+003,1.618990e-001
4.015237e+003,1.610645e-001
4.019094e+003,1.662413e-001
4.022951e+003,1.663743e-001
4.026808e+003,1.634615e-001
4.030666e+003,1.650113e-001
4.034522e+003,1.594178e-001
4.038380e+003,1.569373e-001
4.042237e+003,1.618029e-001
4.046094e+003,1.659783e-001
4.049951e+003,1.666198e-001
4.053808e+003,1.662475e-001
4.057665e+003,1.681029e-001
4.061522e+003,1.649461e-001
4.065379e+003,1.608087e-001
4.069236e+003,1.615423e-001
4.073094e+003,1.612534e-001
4.076951e+003,1.583930e-001
4.080808e+003,1.593537e-001
4.084665e+003,1.624953e-001
4.088522e+003,1.670746e-001
4.092379e+003,1.664124e-001
4.096236e+003,1.613462e-001
4.100093e+003,1.586756e-001
4.103950e+003,1.578059e-001
4.107808e+003,1.533618e-001
4.111665e+003,1.543424e-001
4.115521e+003,1.572894e-001
4.119379e+003,1.524185e-001
4.123236e+003,1.478855e-001
4.127093e+003,1.482090e-001
4.130950e+003,1.497974e-001
4.134807e+003,1.497772e-001
4.138664e+003,1.483057e-001
4.142521e+003,1.499854e-001
4.146378e+003,1.507201e-001
4.150235e+003,1.519268e-001
4.154093e+003,1.526331e-001
4.157950e+003,1.500135e-001
4.161807e+003,1.473788e-001
4.165664e+003,1.517805e-001
4.169521e+003,1.577664e-001
4.173378e+003,1.568127e-001
4.177235e+003,1.516271e-001
4.181092e+003,1.556737e-001
4.184949e+003,1.566884e-001
4.188807e+003,1.528347e-001
4.192664e+003,1.550183e-001
4.196521e+003,1.557451e-001
4.200378e+003,1.552480e-001
4.204235e+003,1.606420e-001
4.208092e+003,1.609923e-001
4.211949e+003,1.565365e-001
4.215806e+003,1.525459e-001
4.219663e+003,1.507309e-001
4.223521e+003,1.508140e-001
4.227377e+003,1.477598e-001
4.231234e+003,1.448226e-001
4.235092e+003,1.439713e-001
4.238949e+003,1.432410e-001
4.242806e+003,1.496560e-001
4.246663e+003,1.500130e-001
4.250520e+003,1.505341e-001
4.254377e+003,1.532334e-001
4.258234e+003,1.464089e-001
4.262091e+003,1.427679e-001
4.265948e+003,1.482706e-001
4.269806e+003,1.502370e-001
4.273663e+003,1.505173e-001
4.277520e+003,1.496660e-001
4.281377e+003,1.506346e-001
4.285234e+003,1.529099e-001
4.289091e+003,1.515634e-001
4.292948e+003,1.485786e-001
4.296805e+003,1.457860e-001
4.300662e+003,1.425646e-001
4.304520e+003,1.407079e-001
4.308376e+003,1.508977e-001
4.312233e+003,1.557154e-001
4.316091e+003,1.523305e-001
4.319948e+003,1.515917e-001
4.323805e+003,1.496565e-001
4.327662e+003,1.448274e-001
4.331519e+003,1.451705e-001
4.335376e+003,1.510135e-001
4.339233e+003,1.516397e-001
4.343090e+003,1.485113e-001
4.346947e+003,1.484829e-001
4.350805e+003,1.488386e-001
4.354662e+003,1.495230e-001
4.358519e+003,1.506770e-001
4.362376e+003,1.478701e-001
4.366233e+003,1.435747e-001
4.370090e+003,1.439510e-001
4.373947e+003,1.467460e-001
4.377804e+003,1.469319e-001
4.381661e+003,1.517826e-001
4.385519e+003,1.579314e-001
4.389375e+003,1.531507e-001
4.393232e+003,1.479918e-001
4.397090e+003,1.445926e-001
4.400947e+003,1.498465e-001
4.404804e+003,1.506285e-001
4.408661e+003,1.515056e-001
4.412518e+003,1.539958e-001
4.416375e+003,1.559233e-001
4.420232e+003,1.519417e-001
4.424089e+003,1.479021e-001
4.427946e+003,1.494193e-001
4.431804e+003,1.508134e-001
4.435661e+003,1.490790e-001
4.439518e+003,1.458144e-001
4.443375e+003,1.474555e-001
4.447232e+003,1.487120e-001
4.451089e+003,1.520749e-001
4.454946e+003,1.542447e-001
4.458803e+003,1.514591e-001
4.462660e+003,1.450464e-001
4.466518e+003,1.453045e-001
4.470375e+003,1.475410e-001
4.474231e+003,1.477394e-001
4.478089e+003,1.478530e-001
4.481946e+003,1.466263e-001
4.485803e+003,1.452800e-001
4.489660e+003,1.431142e-001
4.493517e+003,1.436798e-001
4.497375e+003,1.467791e-001
4.501231e+003,1.452185e-001
4.505088e+003,1.449629e-001
4.508946e+003,1.488618e-001
4.512803e+003,1.440956e-001
4.516660e+003,1.379257e-001
4.520517e+003,1.481742e-001
4.524374e+003,1.565153e-001
4.528231e+003,1.510309e-001
4.532088e+003,1.446576e-001
4.535945e+003,1.382366e-001
4.539802e+003,1.358381e-001
4.543660e+003,1.434473e-001
4.547517e+003,1.477057e-001
4.551374e+003,1.422661e-001
4.555231e+003,1.437037e-001
4.559088e+003,1.436098e-001
4.562945e+003,1.441089e-001
4.566802e+003,1.434103e-001
4.570659e+003,1.465952e-001
4.574516e+003,1.480442e-001
4.578374e+003,1.451484e-001
4.582230e+003,1.415951e-001
4.586087e+003,1.422051e-001
4.589945e+003,1.435227e-001
4.593802e+003,1.367637e-001
4.597659e+003,1.421046e-001
4.601516e+003,1.472834e-001
4.605373e+003,1.421694e-001
4.609230e+003,1.397999e-001
4.613087e+003,1.359498e-001
4.616944e+003,1.350843e-001
4.620801e+003,1.375105e-001
4.624659e+003,1.319411e-001
4.628516e+003,1.305485e-001
4.632373e+003,1.398812e-001
4.636230e+003,1.435587e-001
4.640087e+003,1.400436e-001
4.643944e+003,1.392795e-001
4.647801e+003,1.365936e-001
4.651658e+003,1.354170e-001
4.655515e+003,1.387232e-001
4.659373e+003,1.414418e-001
4.663229e+003,1.396258e-001
4.667086e+003,1.348045e-001
4.670944e+003,1.360498e-001
4.674801e+003,1.408121e-001
4.678658e+003,1.420236e-001
4.682515e+003,1.366328e-001
4.686372e+003,1.392626e-001
4.690229e+003,1.415502e-001
4.694086e+003,1.434038e-001
4.697943e+003,1.414486e-001
4.701800e+003,1.372794e-001
4.705658e+003,1.343824e-001
4.709515e+003,1.348408e-001
4.713372e+003,1.386874e-001
4.717229e+003,1.430669e-001
4.721086e+003,1.395366e-001
4.724943e+003,1.334128e-001
4.728800e+003,1.332027e-001
4.732657e+003,1.315911e-001
4.736514e+003,1.283078e-001
4.740372e+003,1.296974e-001
4.744229e+003,1.333643e-001
4.748085e+003,1.413771e-001
4.751943e+003,1.404125e-001
4.755800e+003,1.360972e-001
4.759657e+003,1.364642e-001
4.763514e+003,1.334500e-001
4.767371e+003,1.327849e-001
4.771228e+003,1.342379e-001
4.775085e+003,1.335446e-001
4.778942e+003,1.307469e-001
4.782799e+003,1.370567e-001
4.786657e+003,1.409766e-001
4.790514e+003,1.371484e-001
4.794371e+003,1.348975e-001
4.798228e+003,1.414682e-001
4.802085e+003,1.433885e-001
4.805942e+003,1.347803e-001
4.809799e+003,1.320695e-001
4.813656e+003,1.335733e-001
4.817513e+003,1.365188e-001
4.821371e+003,1.438121e-001
4.825228e+003,1.430769e-001
4.829084e+003,1.368276e-001
4.832942e+003,1.364882e-001
4.836799e+003,1.325259e-001
4.840656e+003,1.354467e-001
4.844513e+003,1.406461e-001
4.848370e+003,1.381163e-001
4.852227e+003,1.303091e-001
4.856084e+003,1.305102e-001
4.859941e+003,1.310094e-001
4.863798e+003,1.357279e-001
4.867656e+003,1.436441e-001
4.871513e+003,1.475504e-001
4.875370e+003,1.422484e-001
4.879227e+003,1.374499e-001
4.883084e+003,1.420212e-001
4.886941e+003,1.431748e-001
4.890798e+003,1.427820e-001
4.894655e+003,1.431326e-001
4.898512e+003,1.399484e-001
4.902370e+003,1.360910e-001
4.906227e+003,1.391219e-001
4.910083e+003,1.350919e-001
4.913941e+003,1.353959e-001
4.917798e+003,1.379402e-001
4.921655e+003,1.392749e-001
4.925512e+003,1.337582e-001
4.929369e+003,1.316949e-001
4.933226e+003,1.424713e-001
4.937083e+003,1.525948e-001
4.940940e+003,1.429868e-001
4.944797e+003,1.392382e-001
4.948655e+003,1.442443e-001
4.952512e+003,1.420321e-001
4.956369e+003,1.401613e-001
4.960226e+003,1.431385e-001
4.964083e+003,1.404376e-001
4.967940e+003,1.369179e-001
4.971797e+003,1.334233e-001
4.975654e+003,1.328739e-001
4.979511e+003,1.291000e-001
4.983369e+003,1.319109e-001
4.987226e+003,1.392324e-001
4.991083e+003,1.397043e-001
4.994940e+003,1.309452e-001
4.998797e+003,1.273286e-001
5.002654e+003,1.358543e-001
5.006511e+003,1.400741e-001
5.010368e+003,1.413991e-001
5.014225e+003,1.379143e-001
5.018083e+003,1.391011e-001
5.021939e+003,1.477707e-001
5.025796e+003,1.518638e-001
5.029654e+003,1.527672e-001
5.033511e+003,1.511122e-001
5.037368e+003,1.449758e-001
5.041225e+003,1.434610e-001
5.045082e+003,1.393099e-001
5.048939e+003,1.338524e-001
5.052796e+003,1.311964e-001
5.056653e+003,1.385004e-001
5.060510e+003,1.481760e-001
5.064368e+003,1.424766e-001
5.068225e+003,1.436821e-001
5.072082e+003,1.393843e-001
5.075939e+003,1.366545e-001
5.079796e+003,1.354624e-001
5.083653e+003,1.344211e-001
5.087510e+003,1.399625e-001
5.091367e+003,1.410158e-001
5.095224e+003,1.381594e-001
5.099082e+003,1.378504e-001
5.102938e+003,1.374866e-001
5.106795e+003,1.405144e-001
5.110653e+003,1.406484e-001
5.114510e+003,1.455476e-001
5.118367e+003,1.451225e-001
5.122224e+003,1.364111e-001
5.126081e+003,1.369067e-001
5.129938e+003,1.437570e-001
5.133795e+003,1.420318e-001
5.137652e+003,1.328244e-001
5.141509e+003,1.333860e-001
5.145367e+003,1.414872e-001
5.149224e+003,1.539401e-001
5.153081e+003,1.527951e-001
5.156938e+003,1.498772e-001
5.160795e+003,1.455324e-001
5.164652e+003,1.438595e-001
5.168509e+003,1.425816e-001
5.172366e+003,1.382380e-001
5.176223e+003,1.311094e-001
5.180081e+003,1.294738e-001
5.183938e+003,1.330662e-001
5.187794e+003,1.340621e-001
5.191652e+003,1.318949e-001
5.195509e+003,1.420231e-001
5.199366e+003,1.464480e-001
5.203223e+003,1.400080e-001
5.207080e+003,1.326613e-001
5.210937e+003,1.389817e-001
5.214794e+003,1.439254e-001
5.218651e+003,1.348631e-001
5.222508e+003,1.367666e-001
5.226366e+003,1.405969e-001
5.230223e+003,1.384472e-001
5.234080e+003,1.407896e-001
5.237937e+003,1.462286e-001
5.241794e+003,1.435887e-001
5.245651e+003,1.335322e-001
5.249508e+003,1.327751e-001
5.253365e+003,1.381612e-001
5.257222e+003,1.422311e-001
5.261080e+003,1.419518e-001
5.264937e+003,1.377586e-001
5.268793e+003,1.336768e-001
5.272651e+003,1.385991e-001
5.276508e+003,1.371741e-001
5.280365e+003,1.336485e-001
5.284222e+003,1.356359e-001
5.288079e+003,1.355535e-001
5.291936e+003,1.371315e-001
5.295793e+003,1.372189e-001
5.299650e+003,1.348825e-001
5.303507e+003,1.322742e-001
5.307365e+003,1.331976e-001
5.311222e+003,1.261293e-001
5.315079e+003,1.285618e-001
5.318936e+003,1.336659e-001
5.322793e+003,1.368977e-001
5.326650e+003,1.397659e-001
5.330507e+003,1.409434e-001
5.334364e+003,1.375253e-001
5.338221e+003,1.330360e-001
5.342079e+003,1.252884e-001
5.345936e+003,1.257307e-001
5.349792e+003,1.418378e-001
5.353650e+003,1.457865e-001
5.357507e+003,1.343621e-001
5.361364e+003,1.293133e-001
5.365221e+003,1.259671e-001
5.369078e+003,1.243535e-001
5.372935e+003,1.324944e-001
5.376792e+003,1.356982e-001
5.380649e+003,1.324635e-001
5.384506e+003,1.245970e-001
5.388364e+003,1.244437e-001
5.392221e+003,1.305343e-001
5.396078e+003,1.411019e-001
5.399935e+003,1.461571e-001
5.403792e+003,1.384156e-001
5.407649e+003,1.338023e-001
5.411506e+003,1.302634e-001
5.415363e+003,1.391297e-001
5.419220e+003,1.517285e-001
5.423078e+003,1.446159e-001
5.426935e+003,1.294678e-001
5.430792e+003,1.268652e-001
5.434649e+003,1.317184e-001
5.438506e+003,1.287442e-001
5.442363e+003,1.372912e-001
5.446220e+003,1.420502e-001
5.450077e+003,1.354020e-001
5.453934e+003,1.266838e-001
5.457792e+003,1.310622e-001
5.461648e+003,1.362144e-001
5.465505e+003,1.385192e-001
5.469363e+003,1.337962e-001
5.473220e+003,1.258454e-001
5.477077e+003,1.300701e-001
5.480934e+003,1.397166e-001
5.484791e+003,1.356767e-001
5.488648e+003,1.262862e-001
5.492505e+003,1.290487e-001
5.496362e+003,1.398149e-001
5.500219e+003,1.362144e-001
5.504077e+003,1.297976e-001
5.507934e+003,1.338682e-001
5.511791e+003,1.406364e-001
5.515648e+003,1.383910e-001
5.519505e+003,1.334830e-001
5.523362e+003,1.321829e-001
5.527219e+003,1.320175e-001
5.531076e+003,1.318892e-001
5.534933e+003,1.408511e-001
5.538791e+003,1.358341e-001
5.542647e+003,1.292627e-001
5.546504e+003,1.253132e-001
5.550362e+003,1.215356e-001
5.554219e+003,1.286785e-001
5.558076e+003,1.372817e-001
5.561933e+003,1.381925e-001
5.565790e+003,1.353719e-001
5.569647e+003,1.290593e-001
5.573504e+003,1.233469e-001
5.577361e+003,1.155320e-001
5.581218e+003,1.248695e-001
5.585076e+003,1.372826e-001
5.588933e+003,1.321813e-001
5.592790e+003,1.243952e-001
5.596647e+003,1.286607e-001
5.600504e+003,1.357256e-001
5.604361e+003,1.366546e-001
5.608218e+003,1.274439e-001
5.612075e+003,1.236973e-001
5.615932e+003,1.315637e-001
5.619790e+003,1.325002e-001
5.623646e+003,1.338892e-001
5.627503e+003,1.312589e-001
5.631361e+003,1.229025e-001
5.635218e+003,1.238622e-001
5.639075e+003,1.277053e-001
5.642932e+003,1.286475e-001
5.646789e+003,1.341764e-001
5.650646e+003,1.369708e-001
5.654503e+003,1.291145e-001
5.658360e+003,1.332328e-001
5.662217e+003,1.366954e-001
5.666075e+003,1.360154e-001
5.669932e+003,1.347938e-001
5.673789e+003,1.364057e-001
5.677646e+003,1.374896e-001
5.681503e+003,1.356809e-001
5.685360e+003,1.364169e-001
5.689217e+003,1.381186e-001
5.693074e+003,1.348754e-001
5.696931e+003,1.332079e-001
5.700789e+003,1.326841e-001
5.704646e+003,1.282280e-001
5.708502e+003,1.247603e-001
5.712360e+003,1.264020e-001
5.716217e+003,1.251441e-001
5.720074e+003,1.338241e-001
5.723931e+003,1.432865e-001
5.727788e+003,1.312313e-001
5.731645e+003,1.322176e-001
5.735502e+003,1.362661e-001
5.739359e+003,1.307913e-001
5.743216e+003,1.260525e-001
5.747074e+003,1.254741e-001
5.750931e+003,1.327633e-001
5.754788e+003,1.411537e-001
5.758645e+003,1.368810e-001
5.762502e+003,1.324126e-001
5.766359e+003,1.303243e-001
5.770216e+003,1.303475e-001
5.774073e+003,1.339302e-001
5.777930e+003,1.288429e-001
5.781788e+003,1.281715e-001
5.785645e+003,1.320224e-001
5.789501e+003,1.353952e-001
5.793359e+003,1.358843e-001
5.797216e+003,1.361428e-001
5.801073e+003,1.392727e-001
5.804930e+003,1.392964e-001
5.808787e+003,1.445853e-001
5.812644e+003,1.438440e-001
5.816501e+003,1.413023e-001
5.820358e+003,1.366512e-001
5.824215e+003,1.398041e-001
5.828073e+003,1.393252e-001
5.831930e+003,1.332283e-001
5.835787e+003,1.281424e-001
5.839644e+003,1.329818e-001
5.843501e+003,1.372413e-001
5.847358e+003,1.376592e-001
5.851215e+003,1.370559e-001
5.855072e+003,1.308464e-001
5.858929e+003,1.306858e-001
5.862787e+003,1.276735e-001
5.866644e+003,1.248999e-001
5.870500e+003,1.299740e-001
5.874358e+003,1.337315e-001
5.878215e+003,1.386137e-001
5.882072e+003,1.367501e-001
5.885929e+003,1.348362e-001
5.889786e+003,1.361419e-001
5.893643e+003,1.349040e-001
5.897500e+003,1.383499e-001
5.901357e+003,1.409477e-001
5.905214e+003,1.387014e-001
5.909072e+003,1.405980e-001
5.912929e+003,1.351632e-001
5.916786e+003,1.331160e-001
5.920643e+003,1.410646e-001
5.924500e+003,1.369693e-001
5.928357e+003,1.316788e-001
5.932214e+003,1.276460e-001
5.936071e+003,1.273692e-001
5.939928e+003,1.302307e-001
5.943786e+003,1.300424e-001
5.947643e+003,1.345028e-001
5.951500e+003,1.353591e-001
5.955357e+003,1.255092e-001
5.959214e+003,1.204983e-001
5.963071e+003,1.261745e-001
5.966928e+003,1.430327e-001
5.970785e+003,1.530581e-001
5.974642e+003,1.445408e-001
5.978500e+003,1.379889e-001
5.982356e+003,1.364386e-001
5.986213e+003,1.356887e-001
5.990071e+003,1.338607e-001
5.993928e+003,1.261986e-001
5.997785e+003,1.363365e-001
6.001642e+003,1.463499e-001
6.005499e+003,1.454074e-001
6.009356e+003,1.317601e-001
6.013213e+003,1.265407e-001
6.017070e+003,1.360689e-001
6.020927e+003,1.318119e-001
6.024785e+003,1.222312e-001
6.028642e+003,1.232645e-001
6.032499e+003,1.285289e-001
6.036356e+003,1.331644e-001
6.040213e+003,1.309322e-001
6.044070e+003,1.298585e-001
6.047927e+003,1.300761e-001
6.051784e+003,1.375446e-001
6.055641e+003,1.556217e-001
6.059499e+003,1.616901e-001
6.063355e+003,1.544466e-001
6.067212e+003,1.485455e-001
6.071070e+003,1.402774e-001
6.074927e+003,1.350986e-001
6.078784e+003,1.351339e-001
6.082641e+003,1.309027e-001
6.086498e+003,1.371175e-001
6.090355e+003,1.353152e-001
6.094212e+003,1.369101e-001
6.098069e+003,1.398757e-001
6.101926e+003,1.406219e-001
6.105784e+003,1.384885e-001
6.109641e+003,1.387195e-001
6.113498e+003,1.481637e-001
6.117355e+003,1.480360e-001
6.121212e+003,1.288163e-001
6.125069e+003,1.201123e-001
6.128926e+003,1.290485e-001
6.132783e+003,1.417233e-001
6.136640e+003,1.373339e-001
6.140498e+003,1.256427e-001
6.144354e+003,1.276279e-001
6.148211e+003,1.422712e-001
6.152069e+003,1.316961e-001
6.155926e+003,1.319656e-001
6.159783e+003,1.407794e-001
6.163640e+003,1.368002e-001
6.167497e+003,1.380674e-001
6.171354e+003,1.425796e-001
6.175211e+003,1.381954e-001
6.179068e+003,1.274926e-001
6.182925e+003,1.264571e-001
6.186783e+003,1.279909e-001
6.190640e+003,1.340714e-001
6.194497e+003,1.436004e-001
6.198354e+003,1.436658e-001
6.202211e+003,1.433722e-001
6.206068e+003,1.421827e-001
6.209925e+003,1.458230e-001
6.213782e+003,1.430814e-001
6.217639e+003,1.411871e-001
6.221497e+003,1.253447e-001
6.225354e+003,1.238563e-001
6.229210e+003,1.315906e-001
6.233068e+003,1.318537e-001
6.236925e+003,1.312200e-001
6.240782e+003,1.333734e-001
6.244639e+003,1.358304e-001
6.248496e+003,1.551410e-001
6.252353e+003,1.561452e-001
6.256210e+003,1.496432e-001
6.260067e+003,1.510071e-001
6.263924e+003,1.542752e-001
6.267782e+003,1.535213e-001
6.271639e+003,1.511286e-001
6.275496e+003,1.513685e-001
6.279353e+003,1.576733e-001
6.283210e+003,1.535555e-001
6.287067e+003,1.407488e-001
6.290924e+003,1.332898e-001
6.294781e+003,1.490238e-001
6.298638e+003,1.626220e-001
6.302496e+003,1.386003e-001
6.306353e+003,1.280488e-001
6.310209e+003,1.515730e-001
6.314067e+003,1.443883e-001
6.317924e+003,1.371011e-001
6.321781e+003,1.413815e-001
6.325638e+003,1.443052e-001
6.329495e+003,1.475097e-001
6.333352e+003,1.461585e-001
6.337209e+003,1.391386e-001
6.341066e+003,1.293644e-001
6.344923e+003,1.403739e-001
6.348780e+003,1.474161e-001
6.352638e+003,1.437432e-001
6.356495e+003,1.544952e-001
6.360352e+003,1.483130e-001
6.364209e+003,1.409832e-001
6.368066e+003,1.423845e-001
6.371923e+003,1.372879e-001
6.375780e+003,1.402681e-001
6.379637e+003,1.634108e-001
6.383494e+003,1.790388e-001
6.387352e+003,1.787641e-001
6.391208e+003,1.761998e-001
6.395065e+003,1.596871e-001
6.398923e+003,1.518646e-001
6.402780e+003,1.525559e-001
6.406637e+003,1.489886e-001
6.410494e+003,1.407149e-001
6.414351e+003,1.402439e-001
6.418208e+003,1.516851e-001
6.422065e+003,1.376406e-001
6.425922e+003,1.143101e-001
6.429779e+003,1.205964e-001
6.433637e+003,1.313919e-001
6.437494e+003,1.418325e-001
6.441351e+003,1.472476e-001
6.445208e+003,1.372396e-001
6.449065e+003,1.436220e-001
6.452922e+003,1.533919e-001
6.456779e+003,1.518303e-001
6.460636e+003,1.648968e-001
6.464493e+003,1.618857e-001
6.468351e+003,1.568509e-001
6.472208e+003,1.638752e-001
6.476064e+003,1.635089e-001
6.479922e+003,1.587963e-001
6.483779e+003,1.505206e-001
6.487636e+003,1.479980e-001
6.491493e+003,1.528085e-001
6.495350e+003,1.432513e-001
6.499207e+003,1.364488e-001
6.503064e+003,1.429762e-001
6.506921e+003,1.381730e-001
6.510778e+003,1.367387e-001
6.514636e+003,1.406508e-001
6.518493e+003,1.456121e-001
6.522350e+003,1.412799e-001
6.526207e+003,1.321991e-001
6.530064e+003,1.468599e-001
6.533921e+003,1.651488e-001
6.537778e+003,1.690722e-001
6.541635e+003,1.661269e-001
6.545492e+003,1.570247e-001
6.549350e+003,1.563897e-001
6.553207e+003,1.394266e-001
6.557063e+003,1.234886e-001
6.560921e+003,1.156834e-001
6.564778e+003,1.359481e-001
6.568635e+003,1.638321e-001
6.572492e+003,1.606392e-001
6.576349e+003,1.445613e-001
6.580206e+003,1.324891e-001
6.584063e+003,1.390190e-001
6.587920e+003,1.490071e-001
6.591777e+003,1.524546e-001
6.595635e+003,1.527379e-001
6.599492e+003,1.415138e-001
6.603349e+003,1.439640e-001
6.607206e+003,1.540841e-001
6.611063e+003,1.573602e-001
6.614920e+003,1.516443e-001
6.618777e+003,1.433013e-001
6.622634e+003,1.581261e-001
6.626491e+003,1.694927e-001
6.630349e+003,1.651130e-001
6.634206e+003,1.388170e-001
6.638063e+003,1.396251e-001
6.641920e+003,1.617384e-001
6.645777e+003,1.652122e-001
6.649634e+003,1.582000e-001
6.653491e+003,1.455404e-001
6.657348e+003,1.498031e-001
6.661205e+003,1.601314e-001
6.665063e+003,1.702994e-001
6.668919e+003,1.632217e-001
6.672776e+003,1.531380e-001
6.676634e+003,1.574102e-001
6.680491e+003,1.629594e-001
6.684348e+003,1.582851e-001
6.688205e+003,1.416298e-001
6.692062e+003,1.401161e-001
6.695919e+003,1.544904e-001
6.699776e+003,1.553468e-001
6.703633e+003,1.624994e-001
6.707490e+003,1.577317e-001
6.711348e+003,1.540986e-001
6.715205e+003,1.489757e-001
6.719062e+003,1.376387e-001
6.722919e+003,1.474835e-001
6.726776e+003,1.742531e-001
6.730633e+003,1.775077e-001
6.734490e+003,1.630402e-001
6.738347e+003,1.443604e-001
6.742204e+003,1.568931e-001
6.746062e+003,1.774885e-001
6.749918e+003,1.638213e-001
6.753775e+003,1.566363e-001
6.757633e+003,1.636322e-001
6.761490e+003,1.644579e-001
6.765347e+003,1.762552e-001
6.769204e+003,1.794290e-001
6.773061e+003,1.655979e-001
6.776918e+003,1.571137e-001
6.780775e+003,1.692211e-001
6.784632e+003,1.841967e-001
6.788489e+003,1.849960e-001
6.792347e+003,1.593013e-001
6.796204e+003,1.474427e-001
6.800061e+003,1.492874e-001
6.803918e+003,1.428830e-001
6.807775e+003,1.386575e-001
6.811632e+003,1.496723e-001
6.815489e+003,1.647632e-001
6.819346e+003,1.493383e-001
6.823203e+003,1.470546e-001
6.827061e+003,1.429978e-001
6.830917e+003,1.543405e-001
6.834774e+003,1.639878e-001
6.838632e+003,1.723782e-001
6.842489e+003,1.673693e-001
6.846346e+003,1.686091e-001
6.850203e+003,1.794979e-001
6.854060e+003,1.785113e-001
6.857917e+003,1.768111e-001
6.861774e+003,1.771369e-001
6.865631e+003,1.696896e-001
6.869488e+003,1.685296e-001
6.873346e+003,1.942359e-001
6.877203e+003,1.785391e-001
6.881060e+003,1.671034e-001
6.884917e+003,1.765047e-001
6.888774e+003,1.575874e-001
6.892631e+003,1.471233e-001
6.896488e+003,1.624803e-001
6.900345e+003,1.688113e-001
6.904202e+003,1.614508e-001
6.908060e+003,1.666102e-001
6.911917e+003,1.626376e-001
6.915773e+003,1.917726e-001
6.919631e+003,2.054167e-001
6.923488e+003,1.896593e-001
6.927345e+003,1.632864e-001
6.931202e+003,1.600785e-001
6.935059e+003,1.702060e-001
6.938916e+003,1.628073e-001
6.942773e+003,1.612005e-001
6.946630e+003,1.569514e-001
6.950487e+003,1.745033e-001
6.954345e+003,1.970699e-001
6.958202e+003,2.068126e-001
6.962059e+003,1.898892e-001
6.965916e+003,1.939036e-001
6.969773e+003,1.915817e-001
6.973630e+003,1.568215e-001
6.977487e+003,1.612988e-001
6.981344e+003,1.965831e-001
6.985201e+003,2.233352e-001
6.989059e+003,2.083258e-001
6.992916e+003,1.961713e-001
6.996772e+003,1.765317e-001
7.000630e+003,1.266444e-001
7.004487e+003,1.361513e-001
7.008344e+003,1.610321e-001
7.012201e+003,1.590303e-001
7.016058e+003,1.611519e-001
7.019915e+003,1.703437e-001
7.023772e+003,1.732696e-001
7.027629e+003,1.627049e-001
7.031486e+003,1.525143e-001
7.035344e+003,1.583761e-001
7.039201e+003,1.765846e-001
7.043058e+003,2.121911e-001
7.046915e+003,2.011586e-001
7.050772e+003,1.670248e-001
7.054629e+003,1.645153e-001
7.058486e+003,1.807767e-001
7.062343e+003,1.768361e-001
7.066200e+003,1.699411e-001
7.070058e+003,1.861250e-001
7.073915e+003,1.959517e-001
7.077771e+003,1.800980e-001
7.081629e+003,1.506556e-001
7.085486e+003,1.404515e-001
7.089343e+003,1.410871e-001
7.093200e+003,1.647329e-001
7.097057e+003,1.728381e-001
7.100914e+003,1.890576e-001
7.104771e+003,2.140860e-001
7.108628e+003,2.115122e-001
7.112485e+003,1.710247e-001
7.116343e+003,1.386059e-001
7.120200e+003,1.422174e-001
7.124057e+003,1.557300e-001
7.127914e+003,1.631543e-001
7.131771e+003,1.903876e-001
7.135628e+003,1.978193e-001
7.139485e+003,1.619230e-001
7.143342e+003,1.498025e-001
7.147199e+003,1.759427e-001
7.151057e+003,1.951241e-001
7.154914e+003,1.763290e-001
7.158771e+003,1.422932e-001
7.162628e+003,1.720707e-001
7.166485e+003,1.758848e-001
7.170342e+003,1.715122e-001
7.174199e+003,1.870766e-001
7.178056e+003,1.893280e-001
7.181913e+003,1.771755e-001
7.185771e+003,2.118680e-001
7.189627e+003,2.238725e-001
7.193484e+003,2.065500e-001
7.197342e+003,1.852127e-001
7.201199e+003,1.709248e-001
7.205056e+003,1.643638e-001
7.208913e+003,1.900388e-001
7.212770e+003,2.275925e-001
7.216627e+003,1.790378e-001
7.220484e+003,1.568952e-001
7.224341e+003,1.593553e-001
7.228198e+003,1.735812e-001
7.232056e+003,2.083059e-001
7.235913e+003,1.878029e-001
7.239770e+003,1.824849e-001
7.243627e+003,1.791199e-001
7.247484e+003,1.708111e-001
7.251341e+003,1.690076e-001
7.255198e+003,1.782218e-001
7.259055e+003,1.829268e-001
7.262912e+003,1.645046e-001
7.266770e+003,1.488298e-001
7.270626e+003,1.738477e-001
7.274483e+003,1.972508e-001
7.278341e+003,1.974500e-001
7.282198e+003,1.629133e-001
7.286055e+003,1.738927e-001
7.289912e+003,1.932915e-001
7.293769e+003,1.801743e-001
7.297626e+003,1.646816e-001
7.301483e+003,1.601803e-001
7.305340e+003,1.650498e-001
7.309197e+003,1.892085e-001
7.313055e+003,2.158729e-001
7.316912e+003,2.180765e-001
7.320769e+003,1.968358e-001
7.324626e+003,1.905969e-001
7.328483e+003,1.970060e-001
7.332340e+003,2.338615e-001
7.336197e+003,2.241933e-001
7.340054e+003,2.157075e-001
7.343911e+003,2.089641e-001
7.347769e+003,2.005392e-001
7.351625e+003,2.013152e-001
7.355482e+003,1.701488e-001
7.359340e+003,1.586075e-001
7.363197e+003,1.451751e-001
7.367054e+003,1.600920e-001
7.370911e+003,1.792318e-001
7.374768e+003,1.638615e-001
7.378625e+003,1.628315e-001
7.382482e+003,1.276508e-001
7.386339e+003,1.341220e-001
7.390196e+003,1.565893e-001
7.394054e+003,1.556074e-001
7.397911e+003,1.729410e-001
7.401768e+003,2.016686e-001
7.405625e+003,1.683045e-001
7.409482e+003,1.698716e-001
7.413339e+003,2.003105e-001
7.417196e+003,2.135698e-001
7.421053e+003,2.077948e-001
7.424910e+003,2.037336e-001
7.428768e+003,2.522187e-001
7.432625e+003,2.606936e-001
7.436481e+003,1.541031e-001
7.440339e+003,1.270375e-001
7.444196e+003,2.203515e-001
7.448053e+003,2.391008e-001
7.451910e+003,1.833136e-001
7.455767e+003,1.577135e-001
7.459624e+003,1.611343e-001
7.463481e+003,1.934403e-001
7.467338e+003,1.959804e-001
7.471195e+003,1.869680e-001
7.475053e+003,1.827753e-001
7.478910e+003,1.513941e-001
7.482767e+003,1.128967e-001
7.486624e+003,1.115532e-001
7.490481e+003,1.448315e-001
7.494338e+003,1.926344e-001
7.498195e+003,2.448723e-001
7.502052e+003,1.954541e-001
7.505909e+003,1.256745e-001
7.509767e+003,1.587290e-001
7.513624e+003,1.687479e-001
7.517480e+003,1.540910e-001
7.521338e+003,1.627966e-001
7.525195e+003,1.924025e-001
7.529052e+003,1.767178e-001
7.532909e+003,1.432382e-001
7.536766e+003,1.567416e-001
7.540623e+003,1.754305e-001
7.544480e+003,1.791408e-001
7.548337e+003,1.677454e-001
7.552194e+003,1.419040e-001
7.556052e+003,1.359338e-001
7.559909e+003,1.630149e-001
7.563766e+003,2.193059e-001
7.567623e+003,2.387124e-001
7.571480e+003,2.022168e-001
7.575337e+003,1.687028e-001
7.579194e+003,1.586210e-001
7.583051e+003,1.625895e-001
7.586908e+003,1.608907e-001
7.590766e+003,2.461438e-001
7.594623e+003,2.462912e-001
7.598479e+003,1.702799e-001
7.602337e+003,1.674697e-001
7.606194e+003,1.845327e-001
7.610051e+003,1.860254e-001
7.613908e+003,1.873090e-001
7.617765e+003,1.997004e-001
7.621622e+003,2.436990e-001
7.625479e+003,2.746751e-001
7.629336e+003,2.595872e-001
7.633193e+003,1.951452e-001
7.637051e+003,2.048721e-001
7.640908e+003,1.714551e-001
7.644765e+003,1.521914e-001
7.648622e+003,1.770214e-001
7.652479e+003,2.330379e-001
7.656336e+003,2.293162e-001
7.660193e+003,1.997569e-001
7.664050e+003,2.496894e-001
7.667907e+003,2.873888e-001
7.671765e+003,2.374004e-001
7.675622e+003,2.711278e-001
7.679479e+003,2.854006e-001
7.683336e+003,2.458138e-001
7.687193e+003,2.121897e-001
7.691050e+003,2.529874e-001
7.694907e+003,2.652151e-001
7.698764e+003,2.235290e-001
7.702621e+003,1.556603e-001
7.706479e+003,1.721930e-001
7.710335e+003,2.090275e-001
7.714192e+003,2.759707e-001
7.718050e+003,2.838882e-001
7.721907e+003,1.550419e-001
7.725764e+003,1.703408e-001
7.729621e+003,2.050248e-001
7.733478e+003,1.515771e-001
7.737335e+003,1.880956e-001
7.741192e+003,2.044339e-001
7.745049e+003,1.751352e-001
7.748906e+003,2.261587e-001
7.752764e+003,3.045164e-001
7.756621e+003,3.133628e-001
7.760478e+003,2.379705e-001
7.764335e+003,1.683415e-001
7.768192e+003,2.057125e-001
7.772049e+003,1.742017e-001
7.775906e+003,1.728922e-001
7.779763e+003,2.047866e-001
7.783620e+003,1.963459e-001
7.787478e+003,1.089512e-001
7.791334e+003,1.332647e-001
7.795191e+003,1.466730e-001
7.799049e+003,1.413388e-001
7.802906e+003,1.712815e-001
7.806763e+003,1.518841e-001
7.810620e+003,1.176312e-001
7.814477e+003,2.005708e-001
7.818334e+003,2.561558e-001
7.822191e+003,3.124758e-001
7.826048e+003,1.547275e-001
7.829905e+003,9.994407e-002
7.833763e+003,2.267192e-001
7.837620e+003,2.062822e-001
7.841477e+003,1.241585e-001
7.845334e+003,1.654906e-001
7.849191e+003,1.815481e-001
7.853048e+003,1.950862e-001
7.856905e+003,1.887400e-001
7.860762e+003,1.251478e-001
7.864619e+003,1.637396e-001
7.868477e+003,1.584226e-001
7.872333e+003,1.556356e-001
7.876190e+003,1.900478e-001
7.880048e+003,2.504687e-001
7.883905e+003,2.668799e-001
7.887762e+003,1.710031e-001
7.891619e+003,2.426337e-001
7.895476e+003,3.341463e-001
7.899333e+003,2.508871e-001
7.903190e+003,2.582576e-001
7.907047e+003,2.313674e-001
7.910904e+003,1.347573e-001
7.914762e+003,1.337974e-001
7.918619e+003,1.929079e-001
7.922476e+003,1.980558e-001
7.926333e+003,2.853693e-001
7.930190e+003,3.534186e-001
7.934047e+003,2.531541e-001
7.937904e+003,1.483365e-001
7.941761e+003,2.256839e-001
7.945618e+003,3.049807e-001
7.949476e+003,2.566130e-001
7.953333e+003,1.348281e-001
7.957189e+003,1.111891e-001
7.961047e+003,1.747905e-001
7.964904e+003,1.787024e-001
7.968761e+003,2.487964e-001
7.972618e+003,3.082483e-001
7.976475e+003,2.005969e-001
7.980332e+003,2.189091e-001
7.984189e+003,3.394445e-001
7.988046e+003,3.721335e-001
7.991903e+003,2.240517e-001
7.995761e+003,1.361240e-001
7.999618e+003,1.313805e-001
