4.011380e+002,6.000000e+000
4.049951e+002,6.000000e+000
4.088522e+002,1.226410e+000
4.127093e+002,6.000000e+000
4.165664e+002,-2.696431e-001
4.204235e+002,6.000000e+000
4.242806e+002,6.000000e+000
4.281377e+002,-2.151121e-001
4.319948e+002,6.000000e+000
4.358519e+002,6.000000e+000
4.397090e+002,6.294421e-001
4.435661e+002,1.311345e+000
4.474232e+002,-4.568102e-001
4.512803e+002,5.746722e-001
4.551374e+002,6.000000e+000
4.589945e+002,1.178537e-001
4.628516e+002,4.115146e-001
4.667087e+002,6.000000e+000
4.705658e+002,7.530851e-001
4.744229e+002,6.000000e+000
4.782800e+002,-3.516721e-001
4.821371e+002,1.237367e-002
4.859941e+002,7.610506e-001
4.898513e+002,-7.116488e-002
4.937083e+002,6.000000e+000
4.975654e+002,2.272603e-002
5.014225e+002,6.000000e+000
5.052796e+002,6.193777e-001
5.091367e+002,6.000000e+000
5.129938e+002,-2.342954e-001
5.168509e+002,-1.194884e+000
5.207080e+002,6.000000e+000
5.245651e+002,-2.929743e-001
5.284222e+002,5.349758e-001
5.322793e+002,6.000000e+000
5.361364e+002,6.000000e+000
5.399935e+002,6.000000e+000
5.438506e+002,6.000000e+000
5.477077e+002,6.000000e+000
5.515648e+002,2.963065e+000
5.554219e+002,6.000000e+000
5.592790e+002,6.000000e+000
5.631361e+002,-5.431423e-001
5.669932e+002,7.498399e-002
5.708503e+002,6.000000e+000
5.747074e+002,3.760189e-001
5.785645e+002,6.000000e+000
5.824216e+002,6.000000e+000
5.862787e+002,6.000000e+000
5.901357e+002,6.000000e+000
5.939929e+002,-8.289582e-001
5.978499e+002,3.928969e-001
6.017070e+002,1.156217e-001
6.055641e+002,-1.174062e+000
6.094212e+002,6.000000e+000
6.132783e+002,5.539205e-001
6.171354e+002,9.280543e-001
6.209925e+002,5.123937e-001
6.248496e+002,-1.769278e+000
6.287067e+002,6.000000e+000
6.325638e+002,6.000000e+000
6.364209e+002,6.000000e+000
6.402780e+002,-6.876153e-001
6.441351e+002,-8.485721e-001
6.479922e+002,-6.309087e-001
6.518493e+002,6.000000e+000
6.557064e+002,6.000000e+000
6.595635e+002,-1.382207e+000
6.634205e+002,6.000000e+000
6.672777e+002,-4.296111e-001
6.711348e+002,5.082829e-002
6.749918e+002,4.274581e-001
6.788490e+002,1.691818e+000
6.827061e+002,4.103975e-001
6.865631e+002,6.000000e+000
6.904203e+002,6.000000e+000
6.942773e+002,2.905757e-001
6.981344e+002,5.217386e-002
7.019916e+002,-7.136421e-001
7.058486e+002,6.000000e+000
7.097057e+002,6.000000e+000
7.135629e+002,-4.499077e-002
7.174199e+002,6.000000e+000
7.212770e+002,6.000000e+000
7.251342e+002,6.000000e+000
7.289912e+002,-7.763373e-001
7.328483e+002,6.000000e+000
7.367054e+002,6.000000e+000
7.405625e+002,6.000000e+000
7.444196e+002,6.000000e+000
7.482767e+002,6.000000e+000
7.521338e+002,6.000000e+000
7.559908e+002,-3.046466e-001
7.598480e+002,6.000000e+000
7.637051e+002,6.000000e+000
7.675621e+002,6.000000e+000
7.714193e+002,6.000000e+000
7.752764e+002,6.000000e+000
7.791334e+002,6.000000e+000
7.829905e+002,-1.015541e-001
7.868477e+002,6.000000e+000
7.907047e+002,-1.772327e+000
7.945618e+002,6.555259e-001
7.984189e+002,2.041986e-001
8.022760e+002,6.000000e+000
8.061331e+002,-8.619435e-001
8.099902e+002,-6.571270e-002
8.138473e+002,2.698378e-001
8.177044e+002,1.199384e+000
8.215615e+002,4.579504e-001
8.254186e+002,3.532369e-001
8.292757e+002,3.981605e-001
8.331328e+002,4.422488e-001
8.369899e+002,5.485128e-001
8.408470e+002,7.964926e-001
8.447041e+002,1.925046e+000
8.485612e+002,1.816643e+000
8.524183e+002,6.000000e+000
8.562754e+002,6.000000e+000
8.601324e+002,1.643970e+000
8.639896e+002,1.239669e+000
8.678467e+002,1.827287e+000
8.717037e+002,1.656888e+000
8.755609e+002,1.586285e+000
8.794180e+002,6.000000e+000
8.832750e+002,1.774392e+000
8.871321e+002,1.304655e+000
8.909893e+002,1.826897e+000
8.948463e+002,6.000000e+000
8.987034e+002,6.000000e+000
9.025605e+002,1.883374e+000
9.064176e+002,6.000000e+000
9.102747e+002,6.000000e+000
9.141318e+002,2.026453e+000
9.179889e+002,2.563889e+000
9.218461e+002,6.000000e+000
9.257031e+002,6.000000e+000
9.295602e+002,6.000000e+000
9.334174e+002,3.720850e+000
9.372744e+002,2.820822e+000
9.411315e+002,2.225605e+000
9.449886e+002,3.287129e+000
9.488457e+002,2.217529e+000
9.527028e+002,1.904324e+000
9.565599e+002,2.017537e+000
9.604170e+002,3.266171e+000
9.642740e+002,2.242623e+000
9.681312e+002,2.129805e+000
9.719883e+002,2.861180e+000
9.758453e+002,6.000000e+000
9.797025e+002,6.000000e+000
9.835596e+002,2.745513e+000
9.874166e+002,2.077711e+000
9.912738e+002,2.108968e+000
9.951309e+002,2.122547e+000
9.989879e+002,2.059362e+000
1.002845e+003,2.084883e+000
1.006702e+003,2.343987e+000
1.010559e+003,2.145113e+000
1.014416e+003,2.081022e+000
1.018273e+003,2.058731e+000
1.022130e+003,2.064218e+000
1.025988e+003,2.199883e+000
1.029845e+003,2.165951e+000
1.033702e+003,2.014034e+000
1.037559e+003,1.933469e+000
1.041416e+003,1.804935e+000
1.045273e+003,1.642326e+000
1.049130e+003,1.594312e+000
1.052987e+003,1.623145e+000
1.056844e+003,1.652182e+000
1.060702e+003,1.739581e+000
1.064559e+003,1.706860e+000
1.068416e+003,1.591516e+000
1.072273e+003,1.582266e+000
1.076130e+003,1.603520e+000
1.079987e+003,1.650064e+000
1.083844e+003,1.612743e+000
1.087701e+003,1.556366e+000
1.091558e+003,1.596690e+000
1.095415e+003,1.573735e+000
1.099272e+003,1.469917e+000
1.103130e+003,1.435190e+000
1.106987e+003,1.412225e+000
1.110844e+003,1.434858e+000
1.114701e+003,1.448593e+000
1.118558e+003,1.409838e+000
1.122415e+003,1.368661e+000
1.126272e+003,1.353453e+000
1.130129e+003,1.323765e+000
1.133986e+003,1.285691e+000
1.137843e+003,1.319246e+000
1.141701e+003,1.355004e+000
1.145558e+003,1.348662e+000
1.149415e+003,1.312510e+000
1.153272e+003,1.251055e+000
1.157129e+003,1.257027e+000
1.160986e+003,1.262645e+000
1.164843e+003,1.253986e+000
1.168700e+003,1.270145e+000
1.172557e+003,1.273546e+000
1.176414e+003,1.263762e+000
1.180271e+003,1.223994e+000
1.184129e+003,1.219289e+000
1.187986e+003,1.241815e+000
1.191843e+003,1.216329e+000
1.195700e+003,1.181567e+000
1.199557e+003,1.164796e+000
1.203414e+003,1.130671e+000
1.207271e+003,1.067841e+000
1.211128e+003,1.014972e+000
1.214985e+003,9.642654e-001
1.218842e+003,8.901839e-001
1.222699e+003,8.140030e-001
1.226557e+003,7.497883e-001
1.230414e+003,6.977771e-001
1.234271e+003,6.526608e-001
1.238128e+003,6.095849e-001
1.241985e+003,5.721386e-001
1.245842e+003,5.422555e-001
1.249699e+003,5.172589e-001
1.253556e+003,4.977484e-001
1.257413e+003,4.756978e-001
1.261271e+003,4.534151e-001
1.265128e+003,4.368736e-001
1.268985e+003,4.238983e-001
1.272842e+003,4.122259e-001
1.276699e+003,3.991894e-001
1.280556e+003,3.854963e-001
1.284413e+003,3.782578e-001
1.288270e+003,3.699241e-001
1.292127e+003,3.581185e-001
1.295984e+003,3.491354e-001
1.299841e+003,3.382496e-001
1.303698e+003,3.302649e-001
1.307556e+003,3.246338e-001
1.311413e+003,3.176735e-001
1.315270e+003,3.111537e-001
1.319127e+003,3.069228e-001
1.322984e+003,3.051491e-001
1.326841e+003,3.038988e-001
1.330698e+003,2.998025e-001
1.334555e+003,2.960730e-001
1.338412e+003,2.944749e-001
1.342270e+003,2.925472e-001
1.346127e+003,2.935905e-001
1.349984e+003,2.946166e-001
1.353841e+003,2.903931e-001
1.357698e+003,2.887312e-001
1.361555e+003,2.909742e-001
1.365412e+003,2.909575e-001
1.369269e+003,2.912729e-001
1.373126e+003,2.898389e-001
1.376983e+003,2.963658e-001
1.380840e+003,3.045537e-001
1.384698e+003,3.121515e-001
1.388555e+003,3.181683e-001
1.392412e+003,3.251470e-001
1.396269e+003,3.344878e-001
1.400126e+003,3.424927e-001
1.403983e+003,3.544431e-001
1.407840e+003,3.705626e-001
1.411697e+003,3.826143e-001
1.415554e+003,3.919288e-001
1.419411e+003,4.045094e-001
1.423269e+003,4.142450e-001
1.427126e+003,4.209783e-001
1.430983e+003,4.265541e-001
1.434840e+003,4.281521e-001
1.438697e+003,4.267863e-001
1.442554e+003,4.217838e-001
1.446411e+003,4.157278e-001
1.450268e+003,4.109342e-001
1.454125e+003,4.052969e-001
1.457982e+003,4.008673e-001
1.461839e+003,3.922929e-001
1.465697e+003,3.834475e-001
1.469554e+003,3.796812e-001
1.473411e+003,3.808387e-001
1.477268e+003,3.842188e-001
1.481125e+003,3.874044e-001
1.484982e+003,3.922328e-001
1.488839e+003,4.012091e-001
1.492696e+003,4.099916e-001
1.496553e+003,4.168491e-001
1.500411e+003,4.199662e-001
1.504268e+003,4.240946e-001
1.508125e+003,4.273721e-001
1.511982e+003,4.274731e-001
1.515839e+003,4.283533e-001
1.519696e+003,4.283685e-001
1.523553e+003,4.257929e-001
1.527410e+003,4.206981e-001
1.531267e+003,4.148015e-001
1.535124e+003,4.094503e-001
1.538981e+003,4.000847e-001
1.542839e+003,3.870248e-001
1.546696e+003,3.767837e-001
1.550553e+003,3.699409e-001
1.554410e+003,3.613843e-001
1.558267e+003,3.515284e-001
1.562124e+003,3.436700e-001
1.565981e+003,3.390872e-001
1.569838e+003,3.350553e-001
1.573695e+003,3.344221e-001
1.577552e+003,3.296052e-001
1.581410e+003,3.228384e-001
1.585267e+003,3.206522e-001
1.589124e+003,3.220770e-001
1.592981e+003,3.234613e-001
1.596838e+003,3.271766e-001
1.600695e+003,3.342962e-001
1.604552e+003,3.472762e-001
1.608409e+003,3.610542e-001
1.612266e+003,3.764461e-001
1.616123e+003,3.964124e-001
1.619980e+003,4.167016e-001
1.623838e+003,4.343000e-001
1.627695e+003,4.493158e-001
1.631552e+003,4.608670e-001
1.635409e+003,4.723042e-001
1.639266e+003,4.786347e-001
1.643123e+003,4.798669e-001
1.646980e+003,4.733436e-001
1.650837e+003,4.621216e-001
1.654694e+003,4.492597e-001
1.658551e+003,4.341061e-001
1.662409e+003,4.207903e-001
1.666266e+003,4.068942e-001
1.670123e+003,3.922278e-001
1.673980e+003,3.764162e-001
1.677837e+003,3.623224e-001
1.681694e+003,3.520021e-001
1.685551e+003,3.418280e-001
1.689408e+003,3.298533e-001
1.693265e+003,3.194140e-001
1.697122e+003,3.094745e-001
1.700979e+003,3.007128e-001
1.704837e+003,2.928350e-001
1.708694e+003,2.864365e-001
1.712551e+003,2.809665e-001
1.716408e+003,2.759373e-001
1.720265e+003,2.717951e-001
1.724122e+003,2.669797e-001
1.727979e+003,2.618539e-001
1.731836e+003,2.598492e-001
1.735693e+003,2.585051e-001
1.739550e+003,2.571258e-001
1.743408e+003,2.564411e-001
1.747265e+003,2.565898e-001
1.751122e+003,2.552839e-001
1.754979e+003,2.552997e-001
1.758836e+003,2.566582e-001
1.762693e+003,2.593665e-001
1.766550e+003,2.635820e-001
1.770407e+003,2.675644e-001
1.774264e+003,2.699896e-001
1.778121e+003,2.717775e-001
1.781979e+003,2.710364e-001
1.785836e+003,2.705278e-001
1.789693e+003,2.702390e-001
1.793550e+003,2.705933e-001
1.797407e+003,2.693685e-001
1.801264e+003,2.679006e-001
1.805121e+003,2.678023e-001
1.808978e+003,2.658785e-001
1.812835e+003,2.639650e-001
1.816692e+003,2.634250e-001
1.820549e+003,2.619807e-001
1.824407e+003,2.593932e-001
1.828264e+003,2.543977e-001
1.832121e+003,2.513780e-001
1.835978e+003,2.485364e-001
1.839835e+003,2.444410e-001
1.843692e+003,2.423698e-001
1.847549e+003,2.403090e-001
1.851406e+003,2.385118e-001
1.855263e+003,2.364913e-001
1.859120e+003,2.335879e-001
1.862978e+003,2.318211e-001
1.866835e+003,2.292033e-001
1.870692e+003,2.301043e-001
1.874549e+003,2.335572e-001
1.878406e+003,2.353886e-001
1.882263e+003,2.367870e-001
1.886120e+003,2.398747e-001
1.889977e+003,2.410596e-001
1.893834e+003,2.409423e-001
1.897691e+003,2.444688e-001
1.901548e+003,2.476505e-001
1.905406e+003,2.487136e-001
1.909263e+003,2.493316e-001
1.913120e+003,2.492530e-001
1.916977e+003,2.514142e-001
1.920834e+003,2.551992e-001
1.924691e+003,2.559417e-001
1.928548e+003,2.532070e-001
1.932405e+003,2.509482e-001
1.936262e+003,2.496003e-001
1.940119e+003,2.481326e-001
1.943977e+003,2.448527e-001
1.947834e+003,2.404724e-001
1.951691e+003,2.369527e-001
1.955548e+003,2.345817e-001
1.959405e+003,2.330364e-001
1.963262e+003,2.306486e-001
1.967119e+003,2.273642e-001
1.970976e+003,2.252683e-001
1.974833e+003,2.225589e-001
1.978690e+003,2.178921e-001
1.982547e+003,2.147462e-001
1.986405e+003,2.135345e-001
1.990262e+003,2.140190e-001
1.994119e+003,2.141677e-001
1.997976e+003,2.136828e-001
2.001833e+003,2.144074e-001
2.005690e+003,2.158195e-001
2.009547e+003,2.174967e-001
2.013404e+003,2.193926e-001
2.017261e+003,2.221332e-001
2.021118e+003,2.246315e-001
2.024976e+003,2.258704e-001
2.028833e+003,2.259104e-001
2.032690e+003,2.267965e-001
2.036547e+003,2.301821e-001
2.040404e+003,2.337013e-001
2.044261e+003,2.347615e-001
2.048118e+003,2.338956e-001
2.051975e+003,2.336945e-001
2.055832e+003,2.343583e-001
2.059689e+003,2.339965e-001
2.063546e+003,2.313443e-001
2.067404e+003,2.311894e-001
2.071261e+003,2.314052e-001
2.075118e+003,2.278158e-001
2.078975e+003,2.247127e-001
2.082832e+003,2.233340e-001
2.086689e+003,2.202934e-001
2.090546e+003,2.165396e-001
2.094403e+003,2.133614e-001
2.098260e+003,2.107065e-001
2.102117e+003,2.088826e-001
2.105975e+003,2.074362e-001
2.109832e+003,2.072212e-001
2.113689e+003,2.078589e-001
2.117546e+003,2.063921e-001
2.121403e+003,2.047334e-001
2.125260e+003,2.044366e-001
2.129117e+003,2.050841e-001
2.132974e+003,2.068608e-001
2.136831e+003,2.090240e-001
2.140688e+003,2.113015e-001
2.144545e+003,2.143054e-001
2.148403e+003,2.164317e-001
2.152260e+003,2.192286e-001
2.156117e+003,2.215849e-001
2.159974e+003,2.235683e-001
2.163831e+003,2.258046e-001
2.167688e+003,2.277256e-001
2.171545e+003,2.300256e-001
2.175402e+003,2.317579e-001
2.179259e+003,2.333236e-001
2.183116e+003,2.339052e-001
2.186974e+003,2.336645e-001
2.190831e+003,2.344897e-001
2.194688e+003,2.325480e-001
2.198545e+003,2.310176e-001
2.202402e+003,2.315480e-001
2.206259e+003,2.302799e-001
2.210116e+003,2.280929e-001
2.213973e+003,2.261221e-001
2.217830e+003,2.243017e-001
2.221688e+003,2.238192e-001
2.225544e+003,2.215931e-001
2.229402e+003,2.191522e-001
2.233259e+003,2.172580e-001
2.237116e+003,2.166896e-001
2.240973e+003,2.153893e-001
2.244830e+003,2.149806e-001
2.248687e+003,2.143507e-001
2.252544e+003,2.143396e-001
2.256401e+003,2.166401e-001
2.260258e+003,2.171101e-001
2.264115e+003,2.182091e-001
2.267973e+003,2.210041e-001
2.271830e+003,2.234121e-001
2.275687e+003,2.255932e-001
2.279544e+003,2.277926e-001
2.283401e+003,2.310770e-001
2.287258e+003,2.332679e-001
2.291115e+003,2.345962e-001
2.294972e+003,2.385021e-001
2.298829e+003,2.428396e-001
2.302687e+003,2.446234e-001
2.306543e+003,2.465245e-001
2.310401e+003,2.498303e-001
2.314258e+003,2.526917e-001
2.318115e+003,2.544263e-001
2.321972e+003,2.557994e-001
2.325829e+003,2.565962e-001
2.329686e+003,2.560201e-001
2.333543e+003,2.557594e-001
2.337400e+003,2.550074e-001
2.341257e+003,2.522267e-001
2.345115e+003,2.478832e-001
2.348972e+003,2.431241e-001
2.352829e+003,2.434358e-001
2.356686e+003,2.450538e-001
2.360543e+003,2.446949e-001
2.364400e+003,2.439816e-001
2.368257e+003,2.394641e-001
2.372114e+003,2.336222e-001
2.375971e+003,2.300424e-001
2.379828e+003,2.291945e-001
2.383686e+003,2.280900e-001
2.387542e+003,2.263488e-001
2.391400e+003,2.251642e-001
2.395257e+003,2.269652e-001
2.399114e+003,2.283071e-001
2.402971e+003,2.290175e-001
2.406828e+003,2.308031e-001
2.410685e+003,2.324875e-001
2.414542e+003,2.354918e-001
2.418399e+003,2.381431e-001
2.422256e+003,2.396735e-001
2.426114e+003,2.404841e-001
2.429971e+003,2.432193e-001
2.433828e+003,2.423591e-001
2.437685e+003,2.410347e-001
2.441542e+003,2.431972e-001
2.445399e+003,2.436329e-001
2.449256e+003,2.436179e-001
2.453113e+003,2.441769e-001
2.456970e+003,2.421585e-001
2.460827e+003,2.395130e-001
2.464684e+003,2.387328e-001
2.468542e+003,2.368381e-001
2.472399e+003,2.347006e-001
2.476256e+003,2.330680e-001
2.480113e+003,2.319770e-001
2.483970e+003,2.313295e-001
2.487827e+003,2.288520e-001
2.491684e+003,2.258845e-001
2.495541e+003,2.237037e-001
2.499398e+003,2.214189e-001
2.503255e+003,2.199525e-001
2.507113e+003,2.198621e-001
2.510969e+003,2.214510e-001
2.514827e+003,2.227704e-001
2.518684e+003,2.216159e-001
2.522541e+003,2.216928e-001
2.526398e+003,2.241270e-001
2.530255e+003,2.267246e-001
2.534112e+003,2.281168e-001
2.537969e+003,2.315318e-001
2.541826e+003,2.341016e-001
2.545683e+003,2.359007e-001
2.549541e+003,2.388983e-001
2.553398e+003,2.412000e-001
2.557255e+003,2.428034e-001
2.561112e+003,2.445515e-001
2.564969e+003,2.469705e-001
2.568826e+003,2.472454e-001
2.572683e+003,2.486622e-001
2.576540e+003,2.514674e-001
2.580397e+003,2.526701e-001
2.584254e+003,2.542035e-001
2.588112e+003,2.551232e-001
2.591969e+003,2.551517e-001
2.595826e+003,2.533508e-001
2.599683e+003,2.519166e-001
2.603540e+003,2.529138e-001
2.607397e+003,2.524012e-001
2.611254e+003,2.502853e-001
2.615111e+003,2.499367e-001
2.618968e+003,2.497062e-001
2.622825e+003,2.513367e-001
2.626682e+003,2.524916e-001
2.630540e+003,2.516533e-001
2.634397e+003,2.525045e-001
2.638254e+003,2.513230e-001
2.642111e+003,2.521708e-001
2.645968e+003,2.556199e-001
2.649825e+003,2.574471e-001
2.653682e+003,2.594202e-001
2.657539e+003,2.599478e-001
2.661396e+003,2.620656e-001
2.665253e+003,2.649314e-001
2.669111e+003,2.688485e-001
2.672968e+003,2.727005e-001
2.676825e+003,2.773972e-001
2.680682e+003,2.807539e-001
2.684539e+003,2.826107e-001
2.688396e+003,2.849973e-001
2.692253e+003,2.896850e-001
2.696110e+003,2.930516e-001
2.699967e+003,2.945835e-001
2.703824e+003,2.983601e-001
2.707681e+003,3.011163e-001
2.711539e+003,3.026712e-001
2.715396e+003,3.061074e-001
2.719253e+003,3.071364e-001
2.723110e+003,3.073708e-001
2.726967e+003,3.086508e-001
2.730824e+003,3.090899e-001
2.734681e+003,3.085103e-001
2.738538e+003,3.078108e-001
2.742395e+003,3.088128e-001
2.746252e+003,3.120464e-001
2.750110e+003,3.131254e-001
2.753967e+003,3.135253e-001
2.757824e+003,3.175178e-001
2.761681e+003,3.211055e-001
2.765538e+003,3.222580e-001
2.769395e+003,3.254373e-001
2.773252e+003,3.276470e-001
2.777109e+003,3.275441e-001
2.780966e+003,3.292163e-001
2.784823e+003,3.342891e-001
2.788680e+003,3.377340e-001
2.792538e+003,3.391894e-001
2.796395e+003,3.422219e-001
2.800252e+003,3.456587e-001
2.804109e+003,3.509205e-001
2.807966e+003,3.580447e-001
2.811823e+003,3.614316e-001
2.815680e+003,3.626826e-001
2.819537e+003,3.657370e-001
2.823394e+003,3.691692e-001
2.827251e+003,3.742650e-001
2.831109e+003,3.774628e-001
2.834966e+003,3.781888e-001
2.838823e+003,3.791143e-001
2.842680e+003,3.833340e-001
2.846537e+003,3.889907e-001
2.850394e+003,3.930970e-001
2.854251e+003,3.953130e-001
2.858108e+003,3.963862e-001
2.861965e+003,3.974292e-001
2.865823e+003,3.987160e-001
2.869679e+003,4.006260e-001
2.873537e+003,4.029265e-001
2.877394e+003,4.045239e-001
2.881251e+003,4.064183e-001
2.885108e+003,4.091537e-001
2.888965e+003,4.118509e-001
2.892822e+003,4.130335e-001
2.896679e+003,4.145712e-001
2.900536e+003,4.185549e-001
2.904393e+003,4.239644e-001
2.908250e+003,4.283636e-001
2.912108e+003,4.295026e-001
2.915965e+003,4.324735e-001
2.919822e+003,4.356732e-001
2.923679e+003,4.402094e-001
2.927536e+003,4.465889e-001
2.931393e+003,4.509414e-001
2.935250e+003,4.557251e-001
2.939107e+003,4.579261e-001
2.942964e+003,4.649088e-001
2.946822e+003,4.695228e-001
2.950678e+003,4.729300e-001
2.954536e+003,4.773249e-001
2.958393e+003,4.819952e-001
2.962250e+003,4.866204e-001
2.966107e+003,4.889658e-001
2.969964e+003,4.923420e-001
2.973821e+003,4.951130e-001
2.977678e+003,4.991044e-001
2.981535e+003,5.037374e-001
2.985392e+003,5.061985e-001
2.989250e+003,5.108417e-001
2.993107e+003,5.136775e-001
2.996964e+003,5.140734e-001
3.000821e+003,5.160712e-001
3.004678e+003,5.185884e-001
3.008535e+003,5.230849e-001
3.012392e+003,5.277185e-001
3.016249e+003,5.276946e-001
3.020106e+003,5.286779e-001
3.023963e+003,5.320647e-001
3.027821e+003,5.363709e-001
3.031677e+003,5.410545e-001
3.035535e+003,5.470052e-001
3.039392e+003,5.471506e-001
3.043249e+003,5.466478e-001
3.047106e+003,5.519556e-001
3.050963e+003,5.584609e-001
3.054820e+003,5.630915e-001
3.058677e+003,5.672663e-001
3.062534e+003,5.765841e-001
3.066391e+003,5.876508e-001
3.070249e+003,5.938038e-001
3.074106e+003,5.962322e-001
3.077963e+003,6.001160e-001
3.081820e+003,6.013049e-001
3.085677e+003,6.028329e-001
3.089534e+003,6.125907e-001
3.093391e+003,6.214604e-001
3.097248e+003,6.246800e-001
3.101105e+003,6.284234e-001
3.104962e+003,6.351652e-001
3.108820e+003,6.390467e-001
3.112677e+003,6.426222e-001
3.116534e+003,6.511404e-001
3.120391e+003,6.547031e-001
3.124248e+003,6.544044e-001
3.128105e+003,6.559324e-001
3.131962e+003,6.604187e-001
3.135819e+003,6.677033e-001
3.139676e+003,6.722595e-001
3.143533e+003,6.742884e-001
3.147390e+003,6.789364e-001
3.151248e+003,6.812063e-001
3.155105e+003,6.807578e-001
3.158962e+003,6.837336e-001
3.162819e+003,6.890534e-001
3.166676e+003,6.971989e-001
3.170533e+003,7.067624e-001
3.174390e+003,7.105428e-001
3.178247e+003,7.109064e-001
3.182104e+003,7.180716e-001
3.185961e+003,7.226548e-001
3.189819e+003,7.282178e-001
3.193676e+003,7.355169e-001
3.197533e+003,7.390502e-001
3.201390e+003,7.433303e-001
3.205247e+003,7.499632e-001
3.209104e+003,7.588949e-001
3.212961e+003,7.672571e-001
3.216818e+003,7.755643e-001
3.220675e+003,7.793319e-001
3.224532e+003,7.802656e-001
3.228389e+003,7.845376e-001
3.232247e+003,7.905355e-001
3.236104e+003,7.939505e-001
3.239961e+003,7.930809e-001
3.243818e+003,7.980154e-001
3.247675e+003,8.068842e-001
3.251532e+003,8.091848e-001
3.255389e+003,8.093905e-001
3.259246e+003,8.123389e-001
3.263103e+003,8.161232e-001
3.266960e+003,8.192717e-001
3.270818e+003,8.200172e-001
3.274675e+003,8.210948e-001
3.278532e+003,8.266737e-001
3.282389e+003,8.335550e-001
3.286246e+003,8.340024e-001
3.290103e+003,8.355504e-001
3.293960e+003,8.367409e-001
3.297817e+003,8.413196e-001
3.301674e+003,8.460944e-001
3.305531e+003,8.438619e-001
3.309388e+003,8.464335e-001
3.313246e+003,8.563344e-001
3.317103e+003,8.631021e-001
3.320960e+003,8.705454e-001
3.324817e+003,8.724133e-001
3.328674e+003,8.782192e-001
3.332531e+003,8.868414e-001
3.336388e+003,8.938658e-001
3.340245e+003,8.943676e-001
3.344102e+003,9.045949e-001
3.347959e+003,9.136140e-001
3.351817e+003,9.191176e-001
3.355674e+003,9.257559e-001
3.359531e+003,9.323472e-001
3.363388e+003,9.449063e-001
3.367245e+003,9.395244e-001
3.371102e+003,9.340831e-001
3.374959e+003,9.446983e-001
3.378816e+003,9.478195e-001
3.382673e+003,9.425529e-001
3.386530e+003,9.439247e-001
3.390387e+003,9.462897e-001
3.394245e+003,9.465681e-001
3.398102e+003,9.540337e-001
3.401959e+003,9.636964e-001
3.405816e+003,9.646048e-001
3.409673e+003,9.719287e-001
3.413530e+003,9.732635e-001
3.417387e+003,9.683079e-001
3.421244e+003,9.716694e-001
3.425101e+003,9.787191e-001
3.428958e+003,9.782816e-001
3.432815e+003,9.769131e-001
3.436673e+003,9.771177e-001
3.440530e+003,9.751410e-001
3.444387e+003,9.749341e-001
3.448244e+003,9.717839e-001
3.452101e+003,9.814830e-001
3.455958e+003,9.931874e-001
3.459815e+003,9.992807e-001
3.463672e+003,9.993561e-001
3.467529e+003,9.919968e-001
3.471386e+003,9.961263e-001
3.475244e+003,1.002511e+000
3.479101e+003,1.003298e+000
3.482958e+003,1.004955e+000
3.486815e+003,1.005423e+000
3.490672e+003,1.007894e+000
3.494529e+003,1.013734e+000
3.498386e+003,1.019100e+000
3.502243e+003,1.013889e+000
3.506100e+003,1.008436e+000
3.509958e+003,1.011493e+000
3.513814e+003,1.007211e+000
3.517672e+003,1.003046e+000
3.521529e+003,1.005935e+000
3.525386e+003,1.012263e+000
3.529243e+003,1.013751e+000
3.533100e+003,1.012062e+000
3.536957e+003,1.001230e+000
3.540814e+003,9.887047e-001
3.544671e+003,9.933435e-001
3.548528e+003,9.906200e-001
3.552385e+003,9.874464e-001
3.556243e+003,9.906638e-001
3.560100e+003,9.854861e-001
3.563957e+003,9.714530e-001
3.567814e+003,9.606034e-001
3.571671e+003,9.549015e-001
3.575528e+003,9.482144e-001
3.579385e+003,9.339356e-001
3.583242e+003,9.102582e-001
3.587099e+003,8.887950e-001
3.590957e+003,8.789289e-001
3.594813e+003,8.618088e-001
3.598671e+003,8.327670e-001
3.602528e+003,8.113449e-001
3.606385e+003,7.895566e-001
3.610242e+003,7.558179e-001
3.614099e+003,7.241144e-001
3.617956e+003,6.957590e-001
3.621813e+003,6.584460e-001
3.625670e+003,6.247677e-001
3.629527e+003,5.940767e-001
3.633385e+003,5.538500e-001
3.637242e+003,5.135012e-001
3.641099e+003,4.764687e-001
3.644956e+003,4.420222e-001
3.648813e+003,4.085107e-001
3.652670e+003,3.776332e-001
3.656527e+003,3.507355e-001
3.660384e+003,3.242701e-001
3.664241e+003,3.002885e-001
3.668098e+003,2.784672e-001
3.671956e+003,2.602352e-001
3.675813e+003,2.453373e-001
3.679670e+003,2.303929e-001
3.683527e+003,2.163044e-001
3.687384e+003,2.064027e-001
3.691241e+003,1.966538e-001
3.695098e+003,1.887906e-001
3.698955e+003,1.808091e-001
3.702812e+003,1.721580e-001
3.706669e+003,1.675297e-001
3.710526e+003,1.634256e-001
3.714384e+003,1.589990e-001
3.718241e+003,1.541285e-001
3.722098e+003,1.502205e-001
3.725955e+003,1.467735e-001
3.729812e+003,1.426775e-001
3.733669e+003,1.409695e-001
3.737526e+003,1.391816e-001
3.741383e+003,1.370493e-001
3.745240e+003,1.334845e-001
3.749097e+003,1.297408e-001
3.752955e+003,1.288799e-001
3.756812e+003,1.291178e-001
3.760669e+003,1.285964e-001
3.764526e+003,1.281681e-001
3.768383e+003,1.275617e-001
3.772240e+003,1.272092e-001
3.776097e+003,1.280727e-001
3.779954e+003,1.278275e-001
3.783811e+003,1.273374e-001
3.787668e+003,1.277458e-001
3.791525e+003,1.296124e-001
3.795383e+003,1.307167e-001
3.799240e+003,1.289850e-001
3.803097e+003,1.297821e-001
3.806954e+003,1.315752e-001
3.810811e+003,1.317226e-001
3.814668e+003,1.302195e-001
3.818525e+003,1.302018e-001
3.822382e+003,1.306835e-001
3.826239e+003,1.303010e-001
3.830096e+003,1.295065e-001
3.833954e+003,1.294069e-001
3.837811e+003,1.280794e-001
3.841668e+003,1.252769e-001
3.845525e+003,1.245553e-001
3.849382e+003,1.252645e-001
3.853239e+003,1.232543e-001
3.857096e+003,1.211693e-001
3.860953e+003,1.222609e-001
3.864810e+003,1.215508e-001
3.868667e+003,1.189521e-001
3.872524e+003,1.182201e-001
3.876382e+003,1.162352e-001
3.880239e+003,1.158855e-001
3.884096e+003,1.152644e-001
3.887953e+003,1.146526e-001
3.891810e+003,1.150016e-001
3.895667e+003,1.174139e-001
3.899524e+003,1.188409e-001
3.903381e+003,1.191885e-001
3.907238e+003,1.204129e-001
3.911095e+003,1.217830e-001
3.914953e+003,1.221334e-001
3.918810e+003,1.215161e-001
3.922667e+003,1.215014e-001
3.926524e+003,1.222168e-001
3.930381e+003,1.232248e-001
3.934238e+003,1.244014e-001
3.938095e+003,1.244139e-001
3.941952e+003,1.244435e-001
3.945809e+003,1.262531e-001
3.949667e+003,1.260021e-001
3.953523e+003,1.258123e-001
3.957381e+003,1.247973e-001
3.961238e+003,1.241498e-001
3.965095e+003,1.246450e-001
3.968952e+003,1.236888e-001
3.972809e+003,1.216451e-001
3.976666e+003,1.210754e-001
3.980523e+003,1.208564e-001
3.984380e+003,1.206284e-001
3.988237e+003,1.190280e-001
3.992094e+003,1.173905e-001
3.995952e+003,1.161989e-001
3.999809e+003,1.144942e-001
4.003666e+003,1.110654e-001
4.007523e+003,1.104482e-001
4.011380e+003,1.103049e-001
4.015237e+003,1.113725e-001
4.019094e+003,1.126282e-001
4.022951e+003,1.112791e-001
4.026808e+003,1.130741e-001
4.030666e+003,1.142111e-001
4.034522e+003,1.130553e-001
4.038380e+003,1.118711e-001
4.042237e+003,1.113029e-001
4.046094e+003,1.113039e-001
4.049951e+003,1.129344e-001
4.053808e+003,1.160695e-001
4.057665e+003,1.171961e-001
4.061522e+003,1.152913e-001
4.065379e+003,1.166720e-001
4.069236e+003,1.157192e-001
4.073094e+003,1.169342e-001
4.076951e+003,1.179847e-001
4.080808e+003,1.175332e-001
4.084665e+003,1.168922e-001
4.088522e+003,1.161008e-001
4.092379e+003,1.178300e-001
4.096236e+003,1.178813e-001
4.100093e+003,1.161851e-001
4.103950e+003,1.150276e-001
4.107808e+003,1.161791e-001
4.111665e+003,1.164703e-001
4.115521e+003,1.145157e-001
4.119379e+003,1.125529e-001
4.123236e+003,1.109475e-001
4.127093e+003,1.093499e-001
4.130950e+003,1.078479e-001
4.134807e+003,1.066965e-001
4.138664e+003,1.045637e-001
4.142521e+003,1.036352e-001
4.146378e+003,1.040653e-001
4.150235e+003,1.043133e-001
4.154093e+003,1.024576e-001
4.157950e+003,1.014858e-001
4.161807e+003,1.031944e-001
4.165664e+003,1.045449e-001
4.169521e+003,1.046460e-001
4.173378e+003,1.067184e-001
4.177235e+003,1.059649e-001
4.181092e+003,1.035136e-001
4.184949e+003,1.027707e-001
4.188807e+003,1.042517e-001
4.192664e+003,1.058994e-001
4.196521e+003,1.056143e-001
4.200378e+003,1.073194e-001
4.204235e+003,1.096924e-001
4.208092e+003,1.092696e-001
4.211949e+003,1.080383e-001
4.215806e+003,1.072818e-001
4.219663e+003,1.088697e-001
4.223521e+003,1.114515e-001
4.227377e+003,1.119111e-001
4.231234e+003,1.107264e-001
4.235092e+003,1.084712e-001
4.238949e+003,1.069306e-001
4.242806e+003,1.069130e-001
4.246663e+003,1.070463e-001
4.250520e+003,1.051175e-001
4.254377e+003,1.036441e-001
4.258234e+003,1.039713e-001
4.262091e+003,1.038641e-001
4.265948e+003,1.022762e-001
4.269806e+003,9.805281e-002
4.273663e+003,9.637874e-002
4.277520e+003,9.766231e-002
4.281377e+003,9.660851e-002
4.285234e+003,9.567504e-002
4.289091e+003,9.532038e-002
4.292948e+003,9.594564e-002
4.296805e+003,9.705334e-002
4.300662e+003,9.785287e-002
4.304520e+003,9.755814e-002
4.308376e+003,9.815569e-002
4.312233e+003,9.873622e-002
4.316091e+003,9.925010e-002
4.319948e+003,1.024141e-001
4.323805e+003,1.064287e-001
4.327662e+003,1.070128e-001
4.331519e+003,1.054607e-001
4.335376e+003,1.074608e-001
4.339233e+003,1.053573e-001
4.343090e+003,1.041865e-001
4.346947e+003,1.055090e-001
4.350805e+003,1.050143e-001
4.354662e+003,1.067655e-001
4.358519e+003,1.072018e-001
4.362376e+003,1.067862e-001
4.366233e+003,1.063994e-001
4.370090e+003,1.073615e-001
4.373947e+003,1.069065e-001
4.377804e+003,1.067364e-001
4.381661e+003,1.052457e-001
4.385519e+003,1.009782e-001
4.389375e+003,9.920101e-002
4.393232e+003,9.963958e-002
4.397090e+003,1.003477e-001
4.400947e+003,1.006872e-001
4.404804e+003,1.003831e-001
4.408661e+003,1.009114e-001
4.412518e+003,9.768272e-002
4.416375e+003,9.420326e-002
4.420232e+003,9.432758e-002
4.424089e+003,9.723709e-002
4.427946e+003,9.999174e-002
4.431804e+003,9.830941e-002
4.435661e+003,9.680445e-002
4.439518e+003,9.886538e-002
4.443375e+003,9.963854e-002
4.447232e+003,9.965392e-002
4.451089e+003,1.022458e-001
4.454946e+003,1.036374e-001
4.458803e+003,1.009567e-001
4.462660e+003,9.879840e-002
4.466518e+003,9.791057e-002
4.470375e+003,1.009759e-001
4.474231e+003,1.039831e-001
4.478089e+003,1.058622e-001
4.481946e+003,1.072002e-001
4.485803e+003,1.059934e-001
4.489660e+003,1.032340e-001
4.493517e+003,1.023697e-001
4.497375e+003,1.040235e-001
4.501231e+003,1.020152e-001
4.505088e+003,1.021296e-001
4.508946e+003,1.019487e-001
4.512803e+003,1.010296e-001
4.516660e+003,1.027556e-001
4.520517e+003,1.021277e-001
4.524374e+003,9.947474e-002
4.528231e+003,9.920321e-002
4.532088e+003,9.756295e-002
4.535945e+003,9.593713e-002
4.539802e+003,9.683418e-002
4.543660e+003,9.954210e-002
4.547517e+003,9.794424e-002
4.551374e+003,9.460656e-002
4.555231e+003,9.287528e-002
4.559088e+003,9.164704e-002
4.562945e+003,9.016533e-002
4.566802e+003,8.958323e-002
4.570659e+003,9.090807e-002
4.574516e+003,9.150217e-002
4.578374e+003,9.083116e-002
4.582230e+003,9.219906e-002
4.586087e+003,9.666178e-002
4.589945e+003,1.008480e-001
4.593802e+003,9.943732e-002
4.597659e+003,9.584804e-002
4.601516e+003,9.415609e-002
4.605373e+003,9.423347e-002
4.609230e+003,9.601755e-002
4.613087e+003,9.934831e-002
4.616944e+003,1.008077e-001
4.620801e+003,9.994056e-002
4.624659e+003,1.011486e-001
4.628516e+003,9.981692e-002
4.632373e+003,9.817223e-002
4.636230e+003,9.948540e-002
4.640087e+003,9.924561e-002
4.643944e+003,9.980078e-002
4.647801e+003,1.006485e-001
4.651658e+003,9.990790e-002
4.655515e+003,9.754636e-002
4.659373e+003,9.597279e-002
4.663229e+003,9.696307e-002
4.667086e+003,9.629312e-002
4.670944e+003,9.302451e-002
4.674801e+003,9.093753e-002
4.678658e+003,9.181689e-002
4.682515e+003,9.467962e-002
4.686372e+003,9.742866e-002
4.690229e+003,9.553671e-002
4.694086e+003,9.377692e-002
4.697943e+003,9.340113e-002
4.701800e+003,9.324076e-002
4.705658e+003,9.232810e-002
4.709515e+003,9.070396e-002
4.713372e+003,9.131700e-002
4.717229e+003,9.188800e-002
4.721086e+003,9.253052e-002
4.724943e+003,9.236744e-002
4.728800e+003,9.111224e-002
4.732657e+003,9.374962e-002
4.736514e+003,9.495170e-002
4.740372e+003,9.292740e-002
4.744229e+003,9.318643e-002
4.748085e+003,9.187269e-002
4.751943e+003,8.991665e-002
4.755800e+003,9.122603e-002
4.759657e+003,9.353323e-002
4.763514e+003,9.686164e-002
4.767371e+003,1.002809e-001
4.771228e+003,1.005143e-001
4.775085e+003,1.013224e-001
4.778942e+003,9.954794e-002
4.782799e+003,9.796359e-002
4.786657e+003,9.877840e-002
4.790514e+003,9.695334e-002
4.794371e+003,9.486912e-002
4.798228e+003,9.368388e-002
4.802085e+003,9.667271e-002
4.805942e+003,9.976393e-002
4.809799e+003,9.724931e-002
4.813656e+003,9.352041e-002
4.817513e+003,9.399857e-002
4.821371e+003,9.473426e-002
4.825228e+003,9.308711e-002
4.829084e+003,9.098675e-002
4.832942e+003,9.249981e-002
4.836799e+003,9.317715e-002
4.840656e+003,9.000779e-002
4.844513e+003,8.712725e-002
4.848370e+003,8.697926e-002
4.852227e+003,8.846844e-002
4.856084e+003,8.934689e-002
4.859941e+003,8.996744e-002
4.863798e+003,8.780177e-002
4.867656e+003,8.591768e-002
4.871513e+003,9.063879e-002
4.875370e+003,9.485016e-002
4.879227e+003,9.557560e-002
4.883084e+003,9.502745e-002
4.886941e+003,9.533829e-002
4.890798e+003,9.459866e-002
4.894655e+003,9.591857e-002
4.898512e+003,9.864373e-002
4.902370e+003,1.007434e-001
4.906227e+003,1.013153e-001
4.910083e+003,1.006898e-001
4.913941e+003,9.923207e-002
4.917798e+003,9.971269e-002
4.921655e+003,9.906230e-002
4.925512e+003,9.682681e-002
4.929369e+003,9.563168e-002
4.933226e+003,9.599193e-002
4.937083e+003,9.429810e-002
4.940940e+003,9.239277e-002
4.944797e+003,9.165318e-002
4.948655e+003,9.030735e-002
4.952512e+003,9.314632e-002
4.956369e+003,9.513155e-002
4.960226e+003,9.453468e-002
4.964083e+003,9.201527e-002
4.967940e+003,8.815347e-002
4.971797e+003,8.865327e-002
4.975654e+003,8.937848e-002
4.979511e+003,9.033798e-002
4.983369e+003,8.852962e-002
4.987226e+003,8.691972e-002
4.991083e+003,8.914582e-002
4.994940e+003,8.914676e-002
4.998797e+003,8.950420e-002
5.002654e+003,9.203677e-002
5.006511e+003,9.043179e-002
5.010368e+003,8.953473e-002
5.014225e+003,9.314016e-002
5.018083e+003,9.614533e-002
5.021939e+003,9.769335e-002
5.025796e+003,9.616580e-002
5.029654e+003,9.508135e-002
5.033511e+003,9.344982e-002
5.037368e+003,9.282792e-002
5.041225e+003,9.636435e-002
5.045082e+003,1.000975e-001
5.048939e+003,1.015571e-001
5.052796e+003,9.879046e-002
5.056653e+003,9.662218e-002
5.060510e+003,9.835183e-002
5.064368e+003,9.872374e-002
5.068225e+003,9.864464e-002
5.072082e+003,9.826108e-002
5.075939e+003,9.547541e-002
5.079796e+003,9.425006e-002
5.083653e+003,9.394246e-002
5.087510e+003,9.133626e-002
5.091367e+003,9.270711e-002
5.095224e+003,9.399109e-002
5.099082e+003,9.366196e-002
5.102938e+003,9.620963e-002
5.106795e+003,9.311404e-002
5.110653e+003,8.830222e-002
5.114510e+003,8.965145e-002
5.118367e+003,9.173965e-002
5.122224e+003,8.872552e-002
5.126081e+003,8.775448e-002
5.129938e+003,8.992004e-002
5.133795e+003,9.208006e-002
5.137652e+003,9.189582e-002
5.141509e+003,9.274595e-002
5.145367e+003,9.477431e-002
5.149224e+003,9.369259e-002
5.153081e+003,8.860735e-002
5.156938e+003,8.814307e-002
5.160795e+003,9.197075e-002
5.164652e+003,9.821692e-002
5.168509e+003,1.038605e-001
5.172366e+003,1.035338e-001
5.176223e+003,9.665591e-002
5.180081e+003,9.250649e-002
5.183938e+003,9.424400e-002
5.187794e+003,9.507405e-002
5.191652e+003,9.670434e-002
5.195509e+003,9.732526e-002
5.199366e+003,9.743957e-002
5.203223e+003,1.015979e-001
5.207080e+003,9.987497e-002
5.210937e+003,9.626637e-002
5.214794e+003,9.425162e-002
5.218651e+003,9.301572e-002
5.222508e+003,9.561330e-002
5.226366e+003,9.741527e-002
5.230223e+003,9.271798e-002
5.234080e+003,9.085619e-002
5.237937e+003,9.484138e-002
5.241794e+003,9.398200e-002
5.245651e+003,8.875040e-002
5.249508e+003,8.754564e-002
5.253365e+003,9.185804e-002
5.257222e+003,9.288529e-002
5.261080e+003,9.034619e-002
5.264937e+003,9.109831e-002
5.268793e+003,9.372717e-002
5.272651e+003,9.297270e-002
5.276508e+003,9.405646e-002
5.280365e+003,9.272376e-002
5.284222e+003,8.900895e-002
5.288079e+003,8.636220e-002
5.291936e+003,8.939154e-002
5.295793e+003,9.207117e-002
5.299650e+003,8.861588e-002
5.303507e+003,8.558143e-002
5.307365e+003,8.922476e-002
5.311222e+003,9.062116e-002
5.315079e+003,8.615645e-002
5.318936e+003,8.832459e-002
5.322793e+003,9.263427e-002
5.326650e+003,9.004142e-002
5.330507e+003,8.546685e-002
5.334364e+003,8.964836e-002
5.338221e+003,9.097356e-002
5.342079e+003,8.822118e-002
5.345936e+003,8.908786e-002
5.349792e+003,8.581509e-002
5.353650e+003,8.537258e-002
5.357507e+003,8.893090e-002
5.361364e+003,9.133327e-002
5.365221e+003,8.908485e-002
5.369078e+003,8.833442e-002
5.372935e+003,8.827846e-002
5.376792e+003,8.731340e-002
5.380649e+003,8.813337e-002
5.384506e+003,8.884130e-002
5.388364e+003,8.800026e-002
5.392221e+003,8.611596e-002
5.396078e+003,8.700023e-002
5.399935e+003,8.639336e-002
5.403792e+003,8.632360e-002
5.407649e+003,8.798521e-002
5.411506e+003,8.647209e-002
5.415363e+003,8.691777e-002
5.419220e+003,9.134472e-002
5.423078e+003,8.898320e-002
5.426935e+003,8.565689e-002
5.430792e+003,8.625630e-002
5.434649e+003,8.580898e-002
5.438506e+003,8.331365e-002
5.442363e+003,8.586095e-002
5.446220e+003,8.755302e-002
5.450077e+003,8.596671e-002
5.453934e+003,8.623133e-002
5.457792e+003,8.752237e-002
5.461648e+003,8.685314e-002
5.465505e+003,8.786922e-002
5.469363e+003,8.776267e-002
5.473220e+003,8.716592e-002
5.477077e+003,8.859540e-002
5.480934e+003,8.738746e-002
5.484791e+003,8.609787e-002
5.488648e+003,8.972506e-002
5.492505e+003,9.105899e-002
5.496362e+003,9.132808e-002
5.500219e+003,9.173978e-002
5.504077e+003,8.957867e-002
5.507934e+003,8.957195e-002
5.511791e+003,9.134202e-002
5.515648e+003,9.010564e-002
5.519505e+003,8.387482e-002
5.523362e+003,8.412188e-002
5.527219e+003,8.810168e-002
5.531076e+003,8.756696e-002
5.534933e+003,8.647152e-002
5.538791e+003,8.639579e-002
5.542647e+003,8.690559e-002
5.546504e+003,8.756785e-002
5.550362e+003,8.679669e-002
5.554219e+003,8.918802e-002
5.558076e+003,8.943485e-002
5.561933e+003,8.832264e-002
5.565790e+003,8.517883e-002
5.569647e+003,8.405858e-002
5.573504e+003,8.683743e-002
5.577361e+003,8.914167e-002
5.581218e+003,8.812083e-002
5.585076e+003,8.867309e-002
5.588933e+003,8.564022e-002
5.592790e+003,8.102124e-002
5.596647e+003,7.793826e-002
5.600504e+003,8.146445e-002
5.604361e+003,8.331578e-002
5.608218e+003,8.235610e-002
5.612075e+003,8.193667e-002
5.615932e+003,8.373522e-002
5.619790e+003,8.624005e-002
5.623646e+003,8.806795e-002
5.627503e+003,8.677071e-002
5.631361e+003,8.797405e-002
5.635218e+003,8.386096e-002
5.639075e+003,8.150398e-002
5.642932e+003,8.556578e-002
5.646789e+003,7.992747e-002
5.650646e+003,7.403078e-002
5.654503e+003,7.633500e-002
5.658360e+003,7.860480e-002
5.662217e+003,8.042857e-002
5.666075e+003,7.874245e-002
5.669932e+003,8.227905e-002
5.673789e+003,8.642110e-002
5.677646e+003,7.867958e-002
5.681503e+003,7.848232e-002
5.685360e+003,8.287193e-002
5.689217e+003,8.100890e-002
5.693074e+003,7.951360e-002
5.696931e+003,7.720291e-002
5.700789e+003,7.847458e-002
5.704646e+003,7.870249e-002
5.708502e+003,8.204097e-002
5.712360e+003,8.637533e-002
5.716217e+003,8.266386e-002
5.720074e+003,7.857189e-002
5.723931e+003,7.912752e-002
5.727788e+003,7.945328e-002
5.731645e+003,8.178925e-002
5.735502e+003,8.161860e-002
5.739359e+003,8.221009e-002
5.743216e+003,8.394240e-002
5.747074e+003,8.415003e-002
5.750931e+003,8.513042e-002
5.754788e+003,8.809619e-002
5.758645e+003,9.052903e-002
5.762502e+003,8.771348e-002
5.766359e+003,8.402903e-002
5.770216e+003,8.234132e-002
5.774073e+003,8.411625e-002
5.777930e+003,8.376515e-002
5.781788e+003,8.112655e-002
5.785645e+003,8.270811e-002
5.789501e+003,8.542990e-002
5.793359e+003,8.894685e-002
5.797216e+003,8.242055e-002
5.801073e+003,7.786773e-002
5.804930e+003,8.073632e-002
5.808787e+003,8.074909e-002
5.812644e+003,8.144870e-002
5.816501e+003,8.184245e-002
5.820358e+003,8.061922e-002
5.824215e+003,8.323884e-002
5.828073e+003,8.237905e-002
5.831930e+003,8.153356e-002
5.835787e+003,7.826527e-002
5.839644e+003,7.943427e-002
5.843501e+003,8.164115e-002
5.847358e+003,8.077590e-002
5.851215e+003,8.432703e-002
5.855072e+003,8.698748e-002
5.858929e+003,8.514380e-002
5.862787e+003,7.824536e-002
5.866644e+003,7.672351e-002
5.870500e+003,8.319546e-002
5.874358e+003,8.488251e-002
5.878215e+003,8.133184e-002
5.882072e+003,8.372196e-002
5.885929e+003,8.028931e-002
5.889786e+003,7.490803e-002
5.893643e+003,7.684106e-002
5.897500e+003,8.547536e-002
5.901357e+003,9.192194e-002
5.905214e+003,8.866249e-002
5.909072e+003,7.706673e-002
5.912929e+003,7.291882e-002
5.916786e+003,7.852488e-002
5.920643e+003,8.895392e-002
5.924500e+003,9.074638e-002
5.928357e+003,8.325894e-002
5.932214e+003,8.305302e-002
5.936071e+003,7.964490e-002
5.939928e+003,7.761438e-002
5.943786e+003,7.774823e-002
5.947643e+003,8.300564e-002
5.951500e+003,8.747499e-002
5.955357e+003,7.844648e-002
5.959214e+003,7.497052e-002
5.963071e+003,7.745638e-002
5.966928e+003,8.257020e-002
5.970785e+003,8.209772e-002
5.974642e+003,8.092271e-002
5.978500e+003,8.477451e-002
5.982356e+003,8.671375e-002
5.986213e+003,8.605739e-002
5.990071e+003,8.425341e-002
5.993928e+003,8.256671e-002
5.997785e+003,8.147416e-002
6.001642e+003,7.616206e-002
6.005499e+003,7.208461e-002
6.009356e+003,7.302944e-002
6.013213e+003,8.013061e-002
6.017070e+003,8.898146e-002
6.020927e+003,8.571905e-002
6.024785e+003,8.032332e-002
6.028642e+003,8.109660e-002
6.032499e+003,7.921082e-002
6.036356e+003,8.266839e-002
6.040213e+003,8.712477e-002
6.044070e+003,8.212658e-002
6.047927e+003,8.257043e-002
6.051784e+003,8.187281e-002
6.055641e+003,8.057761e-002
6.059499e+003,8.127867e-002
6.063355e+003,8.354175e-002
6.067212e+003,8.530955e-002
6.071070e+003,8.479239e-002
6.074927e+003,8.533475e-002
6.078784e+003,8.388809e-002
6.082641e+003,8.056955e-002
6.086498e+003,8.519371e-002
6.090355e+003,8.296140e-002
6.094212e+003,7.861985e-002
6.098069e+003,8.140018e-002
6.101926e+003,8.387306e-002
6.105784e+003,8.250444e-002
6.109641e+003,8.257172e-002
6.113498e+003,8.125318e-002
6.117355e+003,7.907318e-002
6.121212e+003,8.144442e-002
6.125069e+003,8.007625e-002
6.128926e+003,7.803188e-002
6.132783e+003,8.374241e-002
6.136640e+003,8.602564e-002
6.140498e+003,8.201599e-002
6.144354e+003,7.846208e-002
6.148211e+003,7.403318e-002
6.152069e+003,7.514878e-002
6.155926e+003,7.949884e-002
6.159783e+003,8.357252e-002
6.163640e+003,8.804478e-002
6.167497e+003,8.655567e-002
6.171354e+003,8.531390e-002
6.175211e+003,8.407532e-002
6.179068e+003,7.553855e-002
6.182925e+003,7.703497e-002
6.186783e+003,9.109066e-002
6.190640e+003,9.002239e-002
6.194497e+003,8.459858e-002
6.198354e+003,8.045449e-002
6.202211e+003,7.842421e-002
6.206068e+003,8.306104e-002
6.209925e+003,8.797937e-002
6.213782e+003,8.863681e-002
6.217639e+003,8.700881e-002
6.221497e+003,8.510583e-002
6.225354e+003,8.286098e-002
6.229210e+003,7.921591e-002
6.233068e+003,7.742759e-002
6.236925e+003,8.376459e-002
6.240782e+003,8.676877e-002
6.244639e+003,8.153508e-002
6.248496e+003,7.982206e-002
6.252353e+003,7.836666e-002
6.256210e+003,7.485248e-002
6.260067e+003,7.314576e-002
6.263924e+003,7.757913e-002
6.267782e+003,8.069801e-002
6.271639e+003,8.997396e-002
6.275496e+003,9.441364e-002
6.279353e+003,8.753729e-002
6.283210e+003,8.566585e-002
6.287067e+003,8.928315e-002
6.290924e+003,8.601958e-002
6.294781e+003,8.216121e-002
6.298638e+003,9.044929e-002
6.302496e+003,9.550752e-002
6.306353e+003,8.768453e-002
6.310209e+003,7.874035e-002
6.314067e+003,7.576979e-002
6.317924e+003,8.279077e-002
6.321781e+003,9.127673e-002
6.325638e+003,8.762939e-002
6.329495e+003,7.978136e-002
6.333352e+003,8.005646e-002
6.337209e+003,8.686071e-002
6.341066e+003,8.464021e-002
6.344923e+003,8.468531e-002
6.348780e+003,9.686338e-002
6.352638e+003,9.615104e-002
6.356495e+003,9.298875e-002
6.360352e+003,9.076026e-002
6.364209e+003,8.621411e-002
6.368066e+003,7.927778e-002
6.371923e+003,7.205453e-002
6.375780e+003,7.102409e-002
6.379637e+003,7.331283e-002
6.383494e+003,7.945018e-002
6.387352e+003,7.926586e-002
6.391208e+003,8.265187e-002
6.395065e+003,9.471567e-002
6.398923e+003,9.063528e-002
6.402780e+003,8.532660e-002
6.406637e+003,8.354203e-002
6.410494e+003,8.527704e-002
6.414351e+003,8.868024e-002
6.418208e+003,9.000245e-002
6.422065e+003,8.843628e-002
6.425922e+003,8.506371e-002
6.429779e+003,8.947980e-002
6.433637e+003,9.398409e-002
6.437494e+003,8.621112e-002
6.441351e+003,7.336234e-002
6.445208e+003,7.112075e-002
6.449065e+003,7.497501e-002
6.452922e+003,8.687908e-002
6.456779e+003,9.259633e-002
6.460636e+003,8.882260e-002
6.464493e+003,7.804239e-002
6.468351e+003,8.257537e-002
6.472208e+003,9.601267e-002
6.476064e+003,1.007687e-001
6.479922e+003,9.619032e-002
6.483779e+003,9.498415e-002
6.487636e+003,8.454069e-002
6.491493e+003,7.466558e-002
6.495350e+003,8.331851e-002
6.499207e+003,9.472622e-002
6.503064e+003,1.048286e-001
6.506921e+003,1.009374e-001
6.510778e+003,8.983544e-002
6.514636e+003,8.328945e-002
6.518493e+003,8.293842e-002
6.522350e+003,9.363664e-002
6.526207e+003,9.152545e-002
6.530064e+003,8.591663e-002
6.533921e+003,8.843717e-002
6.537778e+003,9.310669e-002
6.541635e+003,9.534543e-002
6.545492e+003,9.444819e-002
6.549350e+003,9.281874e-002
6.553207e+003,8.684553e-002
6.557063e+003,8.510035e-002
6.560921e+003,8.725713e-002
6.564778e+003,9.061348e-002
6.568635e+003,8.518939e-002
6.572492e+003,8.760113e-002
6.576349e+003,9.540342e-002
6.580206e+003,9.445259e-002
6.584063e+003,8.746661e-002
6.587920e+003,9.876613e-002
6.591777e+003,1.109786e-001
6.595635e+003,1.024074e-001
6.599492e+003,9.615641e-002
6.603349e+003,8.719994e-002
6.607206e+003,8.682000e-002
6.611063e+003,9.128110e-002
6.614920e+003,9.012500e-002
6.618777e+003,8.590743e-002
6.622634e+003,9.241266e-002
6.626491e+003,9.567880e-002
6.630349e+003,9.842626e-002
6.634206e+003,9.972286e-002
6.638063e+003,9.507026e-002
6.641920e+003,9.251785e-002
6.645777e+003,8.988788e-002
6.649634e+003,9.770666e-002
6.653491e+003,1.013958e-001
6.657348e+003,9.794295e-002
6.661205e+003,9.644134e-002
6.665063e+003,1.008226e-001
6.668919e+003,1.021077e-001
6.672776e+003,1.019758e-001
6.676634e+003,9.608795e-002
6.680491e+003,8.853372e-002
6.684348e+003,9.158137e-002
6.688205e+003,9.242102e-002
6.692062e+003,9.242688e-002
6.695919e+003,1.039303e-001
6.699776e+003,1.026097e-001
6.703633e+003,1.014373e-001
6.707490e+003,1.043094e-001
6.711348e+003,1.009904e-001
6.715205e+003,1.040280e-001
6.719062e+003,9.756051e-002
6.722919e+003,9.794614e-002
6.726776e+003,9.997001e-002
6.730633e+003,9.346846e-002
6.734490e+003,9.785108e-002
6.738347e+003,1.007449e-001
6.742204e+003,1.016520e-001
6.746062e+003,1.029788e-001
6.749918e+003,9.746412e-002
6.753775e+003,1.013235e-001
6.757633e+003,1.081839e-001
6.761490e+003,1.029182e-001
6.765347e+003,9.414250e-002
6.769204e+003,9.583317e-002
6.773061e+003,1.018283e-001
6.776918e+003,1.151995e-001
6.780775e+003,1.189032e-001
6.784632e+003,1.087047e-001
6.788489e+003,1.046982e-001
6.792347e+003,1.000702e-001
6.796204e+003,9.805349e-002
6.800061e+003,1.028366e-001
6.803918e+003,1.009973e-001
6.807775e+003,1.047382e-001
6.811632e+003,9.826229e-002
6.815489e+003,9.225233e-002
6.819346e+003,1.017436e-001
6.823203e+003,1.089181e-001
6.827061e+003,1.128982e-001
6.830917e+003,1.063453e-001
6.834774e+003,9.576236e-002
6.838632e+003,1.126720e-001
6.842489e+003,1.260785e-001
6.846346e+003,1.172482e-001
6.850203e+003,1.138190e-001
6.854060e+003,1.197747e-001
6.857917e+003,1.120125e-001
6.861774e+003,1.011296e-001
6.865631e+003,1.113876e-001
6.869488e+003,1.181082e-001
6.873346e+003,1.073613e-001
6.877203e+003,1.076716e-001
6.881060e+003,1.116622e-001
6.884917e+003,9.791809e-002
6.888774e+003,9.649090e-002
6.892631e+003,1.095938e-001
6.896488e+003,1.179220e-001
6.900345e+003,1.266465e-001
6.904202e+003,1.277378e-001
6.908060e+003,1.245766e-001
6.911917e+003,1.201096e-001
6.915773e+003,1.171075e-001
6.919631e+003,1.193411e-001
6.923488e+003,1.190627e-001
6.927345e+003,1.035219e-001
6.931202e+003,1.005775e-001
6.935059e+003,1.056338e-001
6.938916e+003,1.041186e-001
6.942773e+003,1.049270e-001
6.946630e+003,1.048562e-001
6.950487e+003,1.111810e-001
6.954345e+003,9.810581e-002
6.958202e+003,8.251290e-002
6.962059e+003,9.989427e-002
6.965916e+003,1.201280e-001
6.969773e+003,1.141510e-001
6.973630e+003,1.140345e-001
6.977487e+003,1.181036e-001
6.981344e+003,1.115713e-001
6.985201e+003,1.067075e-001
6.989059e+003,1.022824e-001
6.992916e+003,9.461555e-002
6.996772e+003,9.544502e-002
7.000630e+003,1.080765e-001
7.004487e+003,1.152802e-001
7.008344e+003,1.252432e-001
7.012201e+003,1.208929e-001
7.016058e+003,1.136154e-001
7.019915e+003,1.210679e-001
7.023772e+003,1.191391e-001
7.027629e+003,1.168032e-001
7.031486e+003,1.263411e-001
7.035344e+003,1.335142e-001
7.039201e+003,1.280999e-001
7.043058e+003,1.207136e-001
7.046915e+003,1.057929e-001
7.050772e+003,9.901431e-002
7.054629e+003,1.026966e-001
7.058486e+003,1.064865e-001
7.062343e+003,1.184686e-001
7.066200e+003,1.313768e-001
7.070058e+003,1.209969e-001
7.073915e+003,1.214710e-001
7.077771e+003,1.252836e-001
7.081629e+003,1.137238e-001
7.085486e+003,1.045934e-001
7.089343e+003,1.208252e-001
7.093200e+003,1.401098e-001
7.097057e+003,1.387101e-001
7.100914e+003,1.209968e-001
7.104771e+003,1.015853e-001
7.108628e+003,1.124536e-001
7.112485e+003,1.182616e-001
7.116343e+003,1.181656e-001
7.120200e+003,1.139032e-001
7.124057e+003,1.143547e-001
7.127914e+003,1.146603e-001
7.131771e+003,1.141698e-001
7.135628e+003,1.206639e-001
7.139485e+003,1.155742e-001
7.143342e+003,1.170199e-001
7.147199e+003,1.249375e-001
7.151057e+003,1.243878e-001
7.154914e+003,1.201948e-001
7.158771e+003,1.488466e-001
7.162628e+003,1.548141e-001
7.166485e+003,1.280616e-001
7.170342e+003,1.043123e-001
7.174199e+003,9.115536e-002
7.178056e+003,1.085766e-001
7.181913e+003,1.311866e-001
7.185771e+003,1.291284e-001
7.189627e+003,1.289972e-001
7.193484e+003,1.372113e-001
7.197342e+003,1.317861e-001
7.201199e+003,1.158886e-001
7.205056e+003,1.095801e-001
7.208913e+003,1.125826e-001
7.212770e+003,1.313127e-001
7.216627e+003,1.275205e-001
7.220484e+003,1.172193e-001
7.224341e+003,1.146684e-001
7.228198e+003,1.078805e-001
7.232056e+003,9.673895e-002
7.235913e+003,1.080595e-001
7.239770e+003,1.117922e-001
7.243627e+003,1.063149e-001
7.247484e+003,1.078694e-001
7.251341e+003,1.164947e-001
7.255198e+003,1.069215e-001
7.259055e+003,1.102852e-001
7.262912e+003,1.279088e-001
7.266770e+003,1.167949e-001
7.270626e+003,1.106042e-001
7.274483e+003,1.104886e-001
7.278341e+003,1.017385e-001
7.282198e+003,1.178458e-001
7.286055e+003,1.246917e-001
7.289912e+003,1.245181e-001
7.293769e+003,1.333029e-001
7.297626e+003,1.232198e-001
7.301483e+003,1.136604e-001
7.305340e+003,1.261711e-001
7.309197e+003,1.586539e-001
7.313055e+003,1.634409e-001
7.316912e+003,1.417184e-001
7.320769e+003,1.284169e-001
7.324626e+003,1.361861e-001
7.328483e+003,1.342290e-001
7.332340e+003,1.238113e-001
7.336197e+003,1.160749e-001
7.340054e+003,1.197423e-001
7.343911e+003,1.227706e-001
7.347769e+003,1.334264e-001
7.351625e+003,1.281687e-001
7.355482e+003,1.053184e-001
7.359340e+003,1.157437e-001
7.363197e+003,1.363088e-001
7.367054e+003,1.236020e-001
7.370911e+003,1.075591e-001
7.374768e+003,1.056546e-001
7.378625e+003,1.229001e-001
7.382482e+003,1.249131e-001
7.386339e+003,1.285562e-001
7.390196e+003,1.002116e-001
7.394054e+003,8.931490e-002
7.397911e+003,1.057957e-001
7.401768e+003,1.155188e-001
7.405625e+003,1.223601e-001
7.409482e+003,1.375176e-001
7.413339e+003,1.446403e-001
7.417196e+003,1.289254e-001
7.421053e+003,1.117898e-001
7.424910e+003,1.080546e-001
7.428768e+003,1.287529e-001
7.432625e+003,1.595756e-001
7.436481e+003,1.766979e-001
7.440339e+003,1.574277e-001
7.444196e+003,1.477619e-001
7.448053e+003,1.578499e-001
7.451910e+003,1.564823e-001
7.455767e+003,1.176602e-001
7.459624e+003,9.422597e-002
7.463481e+003,1.008422e-001
7.467338e+003,1.174404e-001
7.471195e+003,1.365123e-001
7.475053e+003,1.320626e-001
7.478910e+003,1.117773e-001
7.482767e+003,1.098759e-001
7.486624e+003,1.194077e-001
7.490481e+003,1.219065e-001
7.494338e+003,1.328314e-001
7.498195e+003,1.291451e-001
7.502052e+003,1.021746e-001
7.505909e+003,9.755433e-002
7.509767e+003,1.166996e-001
7.513624e+003,1.102134e-001
7.517480e+003,9.345253e-002
7.521338e+003,9.953348e-002
7.525195e+003,7.964191e-002
7.529052e+003,7.592521e-002
7.532909e+003,1.005116e-001
7.536766e+003,1.096226e-001
7.540623e+003,1.237780e-001
7.544480e+003,1.240224e-001
7.548337e+003,1.108552e-001
7.552194e+003,1.277044e-001
7.556052e+003,1.385597e-001
7.559909e+003,1.360786e-001
7.563766e+003,1.454727e-001
7.567623e+003,1.387953e-001
7.571480e+003,1.217850e-001
7.575337e+003,1.006855e-001
7.579194e+003,1.102110e-001
7.583051e+003,1.256377e-001
7.586908e+003,1.207639e-001
7.590766e+003,1.162997e-001
7.594623e+003,1.348401e-001
7.598479e+003,1.361458e-001
7.602337e+003,8.996295e-002
7.606194e+003,1.035342e-001
7.610051e+003,1.152384e-001
7.613908e+003,1.071167e-001
7.617765e+003,1.331447e-001
7.621622e+003,1.327332e-001
7.625479e+003,1.335060e-001
7.629336e+003,1.341860e-001
7.633193e+003,9.493702e-002
7.637051e+003,7.832916e-002
7.640908e+003,9.466305e-002
7.644765e+003,8.333276e-002
7.648622e+003,8.446900e-002
7.652479e+003,9.015730e-002
7.656336e+003,1.097609e-001
7.660193e+003,1.346607e-001
7.664050e+003,1.038531e-001
7.667907e+003,9.420334e-002
7.671765e+003,9.785640e-002
7.675622e+003,1.340432e-001
7.679479e+003,1.466687e-001
7.683336e+003,1.493391e-001
7.687193e+003,1.559978e-001
7.691050e+003,1.456400e-001
7.694907e+003,1.241513e-001
7.698764e+003,1.229175e-001
7.702621e+003,1.140036e-001
7.706479e+003,1.408382e-001
7.710335e+003,1.400595e-001
7.714192e+003,8.368086e-002
7.718050e+003,9.659390e-002
7.721907e+003,1.241881e-001
7.725764e+003,1.145099e-001
7.729621e+003,1.095576e-001
7.733478e+003,1.078039e-001
7.737335e+003,9.293671e-002
7.741192e+003,9.702993e-002
7.745049e+003,1.104063e-001
7.748906e+003,1.225659e-001
7.752764e+003,1.079751e-001
7.756621e+003,1.010193e-001
7.760478e+003,1.256052e-001
7.764335e+003,1.086307e-001
7.768192e+003,1.048697e-001
7.772049e+003,1.408499e-001
7.775906e+003,1.458721e-001
7.779763e+003,1.512217e-001
7.783620e+003,1.503227e-001
7.787478e+003,1.400523e-001
7.791334e+003,1.407149e-001
7.795191e+003,1.039834e-001
7.799049e+003,8.603727e-002
7.802906e+003,9.919980e-002
7.806763e+003,1.134799e-001
7.810620e+003,1.192981e-001
7.814477e+003,1.329066e-001
7.818334e+003,1.419250e-001
7.822191e+003,1.310143e-001
7.826048e+003,1.092200e-001
7.829905e+003,1.284797e-001
7.833763e+003,1.576140e-001
7.837620e+003,1.410531e-001
7.841477e+003,1.240225e-001
7.845334e+003,1.504212e-001
7.849191e+003,1.349285e-001
7.853048e+003,1.488465e-001
7.856905e+003,1.694054e-001
7.860762e+003,1.519789e-001
7.864619e+003,1.583252e-001
7.868477e+003,1.867654e-001
7.872333e+003,2.136640e-001
7.876190e+003,1.902445e-001
7.880048e+003,1.595517e-001
7.883905e+003,1.595386e-001
7.887762e+003,1.447622e-001
7.891619e+003,1.504959e-001
7.895476e+003,1.588002e-001
7.899333e+003,1.317191e-001
7.903190e+003,1.311814e-001
7.907047e+003,1.620728e-001
7.910904e+003,1.645989e-001
7.914762e+003,1.668430e-001
7.918619e+003,1.749349e-001
7.922476e+003,1.794975e-001
7.926333e+003,1.530217e-001
7.930190e+003,1.415859e-001
7.934047e+003,1.512996e-001
7.937904e+003,1.390675e-001
7.941761e+003,9.828506e-002
7.945618e+003,9.637072e-002
7.949476e+003,1.174345e-001
7.953333e+003,1.391801e-001
7.957189e+003,1.094149e-001
7.961047e+003,1.356459e-001
7.964904e+003,1.437912e-001
7.968761e+003,1.440262e-001
7.972618e+003,2.016269e-001
7.976475e+003,2.405113e-001
7.980332e+003,1.347000e-001
7.984189e+003,3.896829e-002
7.988046e+003,6.546056e-002
7.991903e+003,1.099783e-001
7.995761e+003,1.243736e-001
7.999618e+003,9.843121e-002
