4.011380e+002,6.000000e+000
4.049951e+002,-4.721711e-001
4.088522e+002,5.261573e-001
4.127093e+002,6.000000e+000
4.165664e+002,-1.176390e+000
4.204235e+002,6.000000e+000
4.242806e+002,-4.219881e-001
4.281377e+002,-5.478911e-001
4.319948e+002,6.000000e+000
4.358519e+002,6.000000e+000
4.397090e+002,-2.394609e-001
4.435661e+002,-6.494327e-001
4.474232e+002,6.000000e+000
4.512803e+002,1.712011e+000
4.551374e+002,1.064509e+000
4.589945e+002,6.000000e+000
4.628516e+002,-6.150566e-001
4.667087e+002,6.000000e+000
4.705658e+002,6.000000e+000
4.744229e+002,6.000000e+000
4.782800e+002,6.000000e+000
4.821371e+002,2.420434e-001
4.859941e+002,6.000000e+000
4.898513e+002,5.384059e-001
4.937083e+002,1.024135e-001
4.975654e+002,8.792119e-001
5.014225e+002,1.401625e+000
5.052796e+002,6.065193e-001
5.091367e+002,7.820745e-003
5.129938e+002,-7.094147e-001
5.168509e+002,6.000000e+000
5.207080e+002,6.000000e+000
5.245651e+002,6.000000e+000
5.284222e+002,6.000000e+000
5.322793e+002,6.000000e+000
5.361364e+002,6.000000e+000
5.399935e+002,6.000000e+000
5.438506e+002,1.250241e+000
5.477077e+002,6.000000e+000
5.515648e+002,-7.831246e-001
5.554219e+002,6.000000e+000
5.592790e+002,-4.605257e-001
5.631361e+002,3.392139e-001
5.669932e+002,6.000000e+000
5.708503e+002,6.000000e+000
5.747074e+002,6.000000e+000
5.785645e+002,6.000000e+000
5.824216e+002,6.000000e+000
5.862787e+002,6.000000e+000
5.901357e+002,6.000000e+000
5.939929e+002,6.000000e+000
5.978499e+002,6.000000e+000
6.017070e+002,6.000000e+000
6.055641e+002,6.000000e+000
6.094212e+002,6.000000e+000
6.132783e+002,-2.808369e-001
6.171354e+002,-7.198385e-001
6.209925e+002,6.000000e+000
6.248496e+002,-4.478825e-001
6.287067e+002,-3.505782e-001
6.325638e+002,6.000000e+000
6.364209e+002,6.000000e+000
6.402780e+002,-2.395126e-001
6.441351e+002,3.135430e-002
6.479922e+002,3.579406e-001
6.518493e+002,3.646311e-001
6.557064e+002,4.609868e-001
6.595635e+002,1.774228e-001
6.634205e+002,-3.990352e-001
6.672777e+002,6.000000e+000
6.711348e+002,6.000000e+000
6.749918e+002,-3.439485e-001
6.788490e+002,6.000000e+000
6.827061e+002,1.098342e-001
6.865631e+002,6.000000e+000
6.904203e+002,1.998046e-001
6.942773e+002,-1.220829e-003
6.981344e+002,6.000000e+000
7.019916e+002,6.000000e+000
7.058486e+002,6.000000e+000
7.097057e+002,6.000000e+000
7.135629e+002,6.000000e+000
7.174199e+002,6.000000e+000
7.212770e+002,6.000000e+000
7.251342e+002,-3.089730e-001
7.289912e+002,6.000000e+000
7.328483e+002,-7.060713e-001
7.367054e+002,-6.791577e-001
7.405625e+002,6.000000e+000
7.444196e+002,6.000000e+000
7.482767e+002,6.000000e+000
7.521338e+002,6.000000e+000
7.559908e+002,-1.679049e-001
7.598480e+002,-2.963898e-001
7.637051e+002,6.671763e-003
7.675621e+002,5.534101e-001
7.714193e+002,1.484124e+000
7.752764e+002,-9.219278e-002
7.791334e+002,-5.485568e-001
7.829905e+002,-5.977061e-001
7.868477e+002,-2.122287e-001
7.907047e+002,-3.135017e+000
7.945618e+002,6.000000e+000
7.984189e+002,6.000000e+000
8.022760e+002,4.523924e-001
8.061331e+002,1.024210e+000
8.099902e+002,6.000000e+000
8.138473e+002,1.271677e+000
8.177044e+002,6.119549e-001
8.215615e+002,7.868101e-001
8.254186e+002,6.542261e-001
8.292757e+002,6.300659e-001
8.331328e+002,9.354687e-001
8.369899e+002,6.000000e+000
8.408470e+002,6.000000e+000
8.447041e+002,3.273372e+000
8.485612e+002,6.000000e+000
8.524183e+002,6.000000e+000
8.562754e+002,6.000000e+000
8.601324e+002,6.000000e+000
8.639896e+002,2.456554e+000
8.678467e+002,6.000000e+000
8.717037e+002,1.526937e+000
8.755609e+002,1.231836e+000
8.794180e+002,6.000000e+000
8.832750e+002,6.000000e+000
8.871321e+002,6.000000e+000
8.909893e+002,2.006401e+000
8.948463e+002,2.676399e+000
8.987034e+002,2.150265e+000
9.025605e+002,1.505002e+000
9.064176e+002,2.212936e+000
9.102747e+002,6.000000e+000
9.141318e+002,2.520409e+000
9.179889e+002,1.764757e+000
9.218461e+002,1.707545e+000
9.257031e+002,1.747099e+000
9.295602e+002,1.970832e+000
9.334174e+002,2.041307e+000
9.372744e+002,2.179649e+000
9.411315e+002,6.000000e+000
9.449886e+002,6.000000e+000
9.488457e+002,2.281468e+000
9.527028e+002,1.968892e+000
9.565599e+002,2.154837e+000
9.604170e+002,6.000000e+000
9.642740e+002,6.000000e+000
9.681312e+002,2.939908e+000
9.719883e+002,2.576089e+000
9.758453e+002,2.964670e+000
9.797025e+002,2.540694e+000
9.835596e+002,2.239190e+000
9.874166e+002,2.186617e+000
9.912738e+002,1.992991e+000
9.951309e+002,1.939386e+000
9.989879e+002,2.376938e+000
1.002845e+003,2.271837e+000
1.006702e+003,2.004519e+000
1.010559e+003,2.071327e+000
1.014416e+003,2.083930e+000
1.018273e+003,2.293489e+000
1.022130e+003,2.247171e+000
1.025988e+003,2.070443e+000
1.029845e+003,2.088085e+000
1.033702e+003,2.280610e+000
1.037559e+003,2.154566e+000
1.041416e+003,2.022781e+000
1.045273e+003,2.064166e+000
1.049130e+003,1.987352e+000
1.052987e+003,2.005400e+000
1.056844e+003,1.930726e+000
1.060702e+003,1.912827e+000
1.064559e+003,1.971973e+000
1.068416e+003,1.971985e+000
1.072273e+003,1.893826e+000
1.076130e+003,1.790053e+000
1.079987e+003,1.773049e+000
1.083844e+003,1.787924e+000
1.087701e+003,1.801715e+000
1.091558e+003,1.841292e+000
1.095415e+003,1.860014e+000
1.099272e+003,1.888990e+000
1.103130e+003,1.833393e+000
1.106987e+003,1.653230e+000
1.110844e+003,1.618464e+000
1.114701e+003,1.665492e+000
1.118558e+003,1.763645e+000
1.122415e+003,1.693697e+000
1.126272e+003,1.657700e+000
1.130129e+003,1.660070e+000
1.133986e+003,1.659732e+000
1.137843e+003,1.654012e+000
1.141701e+003,1.665263e+000
1.145558e+003,1.679652e+000
1.149415e+003,1.630936e+000
1.153272e+003,1.592587e+000
1.157129e+003,1.586841e+000
1.160986e+003,1.592953e+000
1.164843e+003,1.604624e+000
1.168700e+003,1.630745e+000
1.172557e+003,1.655937e+000
1.176414e+003,1.620569e+000
1.180271e+003,1.602633e+000
1.184129e+003,1.616885e+000
1.187986e+003,1.675895e+000
1.191843e+003,1.627587e+000
1.195700e+003,1.528047e+000
1.199557e+003,1.480003e+000
1.203414e+003,1.484640e+000
1.207271e+003,1.461592e+000
1.211128e+003,1.392378e+000
1.214985e+003,1.309200e+000
1.218842e+003,1.203724e+000
1.222699e+003,1.115273e+000
1.226557e+003,1.032743e+000
1.230414e+003,9.631761e-001
1.234271e+003,8.896670e-001
1.238128e+003,8.254476e-001
1.241985e+003,7.725910e-001
1.245842e+003,7.284715e-001
1.249699e+003,6.957482e-001
1.253556e+003,6.638677e-001
1.257413e+003,6.358353e-001
1.261271e+003,6.080567e-001
1.265128e+003,5.833913e-001
1.268985e+003,5.649866e-001
1.272842e+003,5.476136e-001
1.276699e+003,5.293387e-001
1.280556e+003,5.136061e-001
1.284413e+003,5.023661e-001
1.288270e+003,4.898759e-001
1.292127e+003,4.763591e-001
1.295984e+003,4.643250e-001
1.299841e+003,4.557953e-001
1.303698e+003,4.452303e-001
1.307556e+003,4.307100e-001
1.311413e+003,4.238147e-001
1.315270e+003,4.173844e-001
1.319127e+003,4.086805e-001
1.322984e+003,4.052668e-001
1.326841e+003,4.010098e-001
1.330698e+003,3.963493e-001
1.334555e+003,3.925935e-001
1.338412e+003,3.885711e-001
1.342270e+003,3.857992e-001
1.346127e+003,3.830864e-001
1.349984e+003,3.798192e-001
1.353841e+003,3.771217e-001
1.357698e+003,3.785264e-001
1.361555e+003,3.836322e-001
1.365412e+003,3.885803e-001
1.369269e+003,3.911794e-001
1.373126e+003,3.936801e-001
1.376983e+003,4.024175e-001
1.380840e+003,4.108860e-001
1.384698e+003,4.179128e-001
1.388555e+003,4.283304e-001
1.392412e+003,4.403962e-001
1.396269e+003,4.542134e-001
1.400126e+003,4.677617e-001
1.403983e+003,4.802420e-001
1.407840e+003,4.925787e-001
1.411697e+003,5.023257e-001
1.415554e+003,5.145100e-001
1.419411e+003,5.256619e-001
1.423269e+003,5.333108e-001
1.427126e+003,5.376381e-001
1.430983e+003,5.411870e-001
1.434840e+003,5.411471e-001
1.438697e+003,5.368699e-001
1.442554e+003,5.360882e-001
1.446411e+003,5.345284e-001
1.450268e+003,5.298240e-001
1.454125e+003,5.206759e-001
1.457982e+003,5.077412e-001
1.461839e+003,4.991188e-001
1.465697e+003,4.959004e-001
1.469554e+003,4.931548e-001
1.473411e+003,4.942172e-001
1.477268e+003,4.958713e-001
1.481125e+003,5.027897e-001
1.484982e+003,5.111706e-001
1.488839e+003,5.207886e-001
1.492696e+003,5.306686e-001
1.496553e+003,5.387326e-001
1.500411e+003,5.442092e-001
1.504268e+003,5.490068e-001
1.508125e+003,5.548937e-001
1.511982e+003,5.551949e-001
1.515839e+003,5.514094e-001
1.519696e+003,5.448412e-001
1.523553e+003,5.362604e-001
1.527410e+003,5.301879e-001
1.531267e+003,5.237473e-001
1.535124e+003,5.150543e-001
1.538981e+003,5.050002e-001
1.542839e+003,4.926950e-001
1.546696e+003,4.840878e-001
1.550553e+003,4.768792e-001
1.554410e+003,4.689096e-001
1.558267e+003,4.585905e-001
1.562124e+003,4.476273e-001
1.565981e+003,4.370302e-001
1.569838e+003,4.295540e-001
1.573695e+003,4.231972e-001
1.577552e+003,4.200289e-001
1.581410e+003,4.200211e-001
1.585267e+003,4.251763e-001
1.589124e+003,4.317634e-001
1.592981e+003,4.388623e-001
1.596838e+003,4.500884e-001
1.600695e+003,4.641844e-001
1.604552e+003,4.847482e-001
1.608409e+003,5.092050e-001
1.612266e+003,5.343269e-001
1.616123e+003,5.629686e-001
1.619980e+003,5.925550e-001
1.623838e+003,6.213839e-001
1.627695e+003,6.476091e-001
1.631552e+003,6.646493e-001
1.635409e+003,6.756281e-001
1.639266e+003,6.743517e-001
1.643123e+003,6.646785e-001
1.646980e+003,6.520535e-001
1.650837e+003,6.338217e-001
1.654694e+003,6.106578e-001
1.658551e+003,5.852373e-001
1.662409e+003,5.620577e-001
1.666266e+003,5.393729e-001
1.670123e+003,5.119601e-001
1.673980e+003,4.859612e-001
1.677837e+003,4.631132e-001
1.681694e+003,4.429202e-001
1.685551e+003,4.254985e-001
1.689408e+003,4.104990e-001
1.693265e+003,3.956239e-001
1.697122e+003,3.838328e-001
1.700979e+003,3.776357e-001
1.704837e+003,3.724169e-001
1.708694e+003,3.656404e-001
1.712551e+003,3.575183e-001
1.716408e+003,3.522285e-001
1.720265e+003,3.509671e-001
1.724122e+003,3.475486e-001
1.727979e+003,3.438091e-001
1.731836e+003,3.399598e-001
1.735693e+003,3.367369e-001
1.739550e+003,3.346093e-001
1.743408e+003,3.321158e-001
1.747265e+003,3.291733e-001
1.751122e+003,3.261588e-001
1.754979e+003,3.224095e-001
1.758836e+003,3.183974e-001
1.762693e+003,3.174561e-001
1.766550e+003,3.179025e-001
1.770407e+003,3.190500e-001
1.774264e+003,3.185729e-001
1.778121e+003,3.171137e-001
1.781979e+003,3.161738e-001
1.785836e+003,3.152576e-001
1.789693e+003,3.152742e-001
1.793550e+003,3.154296e-001
1.797407e+003,3.136073e-001
1.801264e+003,3.110512e-001
1.805121e+003,3.104541e-001
1.808978e+003,3.102704e-001
1.812835e+003,3.079116e-001
1.816692e+003,3.076488e-001
1.820549e+003,3.079511e-001
1.824407e+003,3.050393e-001
1.828264e+003,3.028431e-001
1.832121e+003,3.027298e-001
1.835978e+003,3.008915e-001
1.839835e+003,2.987210e-001
1.843692e+003,2.964466e-001
1.847549e+003,2.951081e-001
1.851406e+003,2.951177e-001
1.855263e+003,2.929152e-001
1.859120e+003,2.896074e-001
1.862978e+003,2.911893e-001
1.866835e+003,2.933473e-001
1.870692e+003,2.917722e-001
1.874549e+003,2.902508e-001
1.878406e+003,2.901323e-001
1.882263e+003,2.921453e-001
1.886120e+003,2.948164e-001
1.889977e+003,2.936761e-001
1.893834e+003,2.922565e-001
1.897691e+003,2.917791e-001
1.901548e+003,2.899879e-001
1.905406e+003,2.886854e-001
1.909263e+003,2.886315e-001
1.913120e+003,2.865661e-001
1.916977e+003,2.843991e-001
1.920834e+003,2.837178e-001
1.924691e+003,2.818594e-001
1.928548e+003,2.779703e-001
1.932405e+003,2.765051e-001
1.936262e+003,2.760749e-001
1.940119e+003,2.744262e-001
1.943977e+003,2.737857e-001
1.947834e+003,2.734869e-001
1.951691e+003,2.728834e-001
1.955548e+003,2.734261e-001
1.959405e+003,2.725320e-001
1.963262e+003,2.713814e-001
1.967119e+003,2.714772e-001
1.970976e+003,2.715753e-001
1.974833e+003,2.703247e-001
1.978690e+003,2.688856e-001
1.982547e+003,2.692525e-001
1.986405e+003,2.675194e-001
1.990262e+003,2.661037e-001
1.994119e+003,2.662573e-001
1.997976e+003,2.646983e-001
2.001833e+003,2.628258e-001
2.005690e+003,2.626600e-001
2.009547e+003,2.602440e-001
2.013404e+003,2.577748e-001
2.017261e+003,2.551839e-001
2.021118e+003,2.537263e-001
2.024976e+003,2.530860e-001
2.028833e+003,2.510548e-001
2.032690e+003,2.509275e-001
2.036547e+003,2.512305e-001
2.040404e+003,2.506987e-001
2.044261e+003,2.515148e-001
2.048118e+003,2.514812e-001
2.051975e+003,2.521824e-001
2.055832e+003,2.541644e-001
2.059689e+003,2.548466e-001
2.063546e+003,2.553495e-001
2.067404e+003,2.561408e-001
2.071261e+003,2.560764e-001
2.075118e+003,2.561794e-001
2.078975e+003,2.566692e-001
2.082832e+003,2.545536e-001
2.086689e+003,2.523836e-001
2.090546e+003,2.519902e-001
2.094403e+003,2.508438e-001
2.098260e+003,2.484545e-001
2.102117e+003,2.463761e-001
2.105975e+003,2.440481e-001
2.109832e+003,2.447622e-001
2.113689e+003,2.458771e-001
2.117546e+003,2.450150e-001
2.121403e+003,2.450859e-001
2.125260e+003,2.459309e-001
2.129117e+003,2.461210e-001
2.132974e+003,2.458138e-001
2.136831e+003,2.453523e-001
2.140688e+003,2.466130e-001
2.144545e+003,2.501278e-001
2.148403e+003,2.514330e-001
2.152260e+003,2.527961e-001
2.156117e+003,2.551176e-001
2.159974e+003,2.556124e-001
2.163831e+003,2.568147e-001
2.167688e+003,2.577357e-001
2.171545e+003,2.583724e-001
2.175402e+003,2.585140e-001
2.179259e+003,2.583056e-001
2.183116e+003,2.555153e-001
2.186974e+003,2.539378e-001
2.190831e+003,2.532537e-001
2.194688e+003,2.515996e-001
2.198545e+003,2.506970e-001
2.202402e+003,2.511246e-001
2.206259e+003,2.511335e-001
2.210116e+003,2.502398e-001
2.213973e+003,2.504018e-001
2.217830e+003,2.522131e-001
2.221688e+003,2.551029e-001
2.225544e+003,2.566362e-001
2.229402e+003,2.577711e-001
2.233259e+003,2.595258e-001
2.237116e+003,2.625346e-001
2.240973e+003,2.643962e-001
2.244830e+003,2.656176e-001
2.248687e+003,2.673328e-001
2.252544e+003,2.683941e-001
2.256401e+003,2.688079e-001
2.260258e+003,2.698849e-001
2.264115e+003,2.707020e-001
2.267973e+003,2.715180e-001
2.271830e+003,2.703633e-001
2.275687e+003,2.697144e-001
2.279544e+003,2.681798e-001
2.283401e+003,2.661349e-001
2.287258e+003,2.659926e-001
2.291115e+003,2.652454e-001
2.294972e+003,2.642022e-001
2.298829e+003,2.659478e-001
2.302687e+003,2.663868e-001
2.306543e+003,2.665059e-001
2.310401e+003,2.681812e-001
2.314258e+003,2.682218e-001
2.318115e+003,2.696706e-001
2.321972e+003,2.708266e-001
2.325829e+003,2.724265e-001
2.329686e+003,2.726817e-001
2.333543e+003,2.728278e-001
2.337400e+003,2.726886e-001
2.341257e+003,2.749502e-001
2.345115e+003,2.765646e-001
2.348972e+003,2.774234e-001
2.352829e+003,2.773527e-001
2.356686e+003,2.771128e-001
2.360543e+003,2.761529e-001
2.364400e+003,2.740443e-001
2.368257e+003,2.745277e-001
2.372114e+003,2.740719e-001
2.375971e+003,2.729263e-001
2.379828e+003,2.754813e-001
2.383686e+003,2.757889e-001
2.387542e+003,2.732375e-001
2.391400e+003,2.722748e-001
2.395257e+003,2.720390e-001
2.399114e+003,2.722328e-001
2.402971e+003,2.714303e-001
2.406828e+003,2.707659e-001
2.410685e+003,2.718093e-001
2.414542e+003,2.720458e-001
2.418399e+003,2.733315e-001
2.422256e+003,2.751443e-001
2.426114e+003,2.756521e-001
2.429971e+003,2.770147e-001
2.433828e+003,2.781524e-001
2.437685e+003,2.786089e-001
2.441542e+003,2.783424e-001
2.445399e+003,2.773995e-001
2.449256e+003,2.779787e-001
2.453113e+003,2.765428e-001
2.456970e+003,2.744942e-001
2.460827e+003,2.740059e-001
2.464684e+003,2.726500e-001
2.468542e+003,2.704456e-001
2.472399e+003,2.679839e-001
2.476256e+003,2.655374e-001
2.480113e+003,2.634391e-001
2.483970e+003,2.633361e-001
2.487827e+003,2.638395e-001
2.491684e+003,2.625236e-001
2.495541e+003,2.621645e-001
2.499398e+003,2.652254e-001
2.503255e+003,2.670604e-001
2.507113e+003,2.675438e-001
2.510969e+003,2.688539e-001
2.514827e+003,2.706394e-001
2.518684e+003,2.730491e-001
2.522541e+003,2.736369e-001
2.526398e+003,2.742390e-001
2.530255e+003,2.769364e-001
2.534112e+003,2.796007e-001
2.537969e+003,2.790090e-001
2.541826e+003,2.790614e-001
2.545683e+003,2.790494e-001
2.549541e+003,2.796037e-001
2.553398e+003,2.803949e-001
2.557255e+003,2.818511e-001
2.561112e+003,2.812734e-001
2.564969e+003,2.799073e-001
2.568826e+003,2.791215e-001
2.572683e+003,2.805732e-001
2.576540e+003,2.840465e-001
2.580397e+003,2.839050e-001
2.584254e+003,2.828720e-001
2.588112e+003,2.839054e-001
2.591969e+003,2.872529e-001
2.595826e+003,2.914387e-001
2.599683e+003,2.948256e-001
2.603540e+003,2.977167e-001
2.607397e+003,3.010983e-001
2.611254e+003,3.031380e-001
2.615111e+003,3.050372e-001
2.618968e+003,3.095596e-001
2.622825e+003,3.134781e-001
2.626682e+003,3.157663e-001
2.630540e+003,3.166886e-001
2.634397e+003,3.173206e-001
2.638254e+003,3.186915e-001
2.642111e+003,3.210963e-001
2.645968e+003,3.239919e-001
2.649825e+003,3.246242e-001
2.653682e+003,3.246886e-001
2.657539e+003,3.280870e-001
2.661396e+003,3.325297e-001
2.665253e+003,3.333177e-001
2.669111e+003,3.338599e-001
2.672968e+003,3.351036e-001
2.676825e+003,3.368959e-001
2.680682e+003,3.405341e-001
2.684539e+003,3.438267e-001
2.688396e+003,3.463568e-001
2.692253e+003,3.494905e-001
2.696110e+003,3.534645e-001
2.699967e+003,3.595475e-001
2.703824e+003,3.648751e-001
2.707681e+003,3.673634e-001
2.711539e+003,3.695493e-001
2.715396e+003,3.731568e-001
2.719253e+003,3.784066e-001
2.723110e+003,3.828195e-001
2.726967e+003,3.838743e-001
2.730824e+003,3.846653e-001
2.734681e+003,3.911541e-001
2.738538e+003,3.963646e-001
2.742395e+003,3.981559e-001
2.746252e+003,3.997342e-001
2.750110e+003,3.994799e-001
2.753967e+003,4.009066e-001
2.757824e+003,4.056099e-001
2.761681e+003,4.118386e-001
2.765538e+003,4.152592e-001
2.769395e+003,4.167417e-001
2.773252e+003,4.194200e-001
2.777109e+003,4.231902e-001
2.780966e+003,4.277137e-001
2.784823e+003,4.326772e-001
2.788680e+003,4.387932e-001
2.792538e+003,4.442054e-001
2.796395e+003,4.476864e-001
2.800252e+003,4.496555e-001
2.804109e+003,4.536902e-001
2.807966e+003,4.610169e-001
2.811823e+003,4.672119e-001
2.815680e+003,4.690665e-001
2.819537e+003,4.728038e-001
2.823394e+003,4.783365e-001
2.827251e+003,4.830697e-001
2.831109e+003,4.863282e-001
2.834966e+003,4.898940e-001
2.838823e+003,4.921177e-001
2.842680e+003,4.954146e-001
2.846537e+003,5.002000e-001
2.850394e+003,5.040202e-001
2.854251e+003,5.052792e-001
2.858108e+003,5.098089e-001
2.861965e+003,5.138972e-001
2.865823e+003,5.163356e-001
2.869679e+003,5.239984e-001
2.873537e+003,5.303981e-001
2.877394e+003,5.347749e-001
2.881251e+003,5.429588e-001
2.885108e+003,5.491135e-001
2.888965e+003,5.531308e-001
2.892822e+003,5.581667e-001
2.896679e+003,5.630629e-001
2.900536e+003,5.677413e-001
2.904393e+003,5.713689e-001
2.908250e+003,5.758359e-001
2.912108e+003,5.846665e-001
2.915965e+003,5.876177e-001
2.919822e+003,5.886930e-001
2.923679e+003,5.959535e-001
2.927536e+003,6.035294e-001
2.931393e+003,6.075861e-001
2.935250e+003,6.103615e-001
2.939107e+003,6.152906e-001
2.942964e+003,6.214393e-001
2.946822e+003,6.268696e-001
2.950678e+003,6.332306e-001
2.954536e+003,6.410091e-001
2.958393e+003,6.468475e-001
2.962250e+003,6.520308e-001
2.966107e+003,6.569803e-001
2.969964e+003,6.614861e-001
2.973821e+003,6.651923e-001
2.977678e+003,6.734796e-001
2.981535e+003,6.809431e-001
2.985392e+003,6.847008e-001
2.989250e+003,6.888410e-001
2.993107e+003,6.938644e-001
2.996964e+003,7.018611e-001
3.000821e+003,7.094097e-001
3.004678e+003,7.174610e-001
3.008535e+003,7.247834e-001
3.012392e+003,7.263664e-001
3.016249e+003,7.319182e-001
3.020106e+003,7.421548e-001
3.023963e+003,7.538883e-001
3.027821e+003,7.560567e-001
3.031677e+003,7.533913e-001
3.035535e+003,7.588871e-001
3.039392e+003,7.625835e-001
3.043249e+003,7.700834e-001
3.047106e+003,7.798930e-001
3.050963e+003,7.855862e-001
3.054820e+003,7.935504e-001
3.058677e+003,7.967173e-001
3.062534e+003,8.010733e-001
3.066391e+003,8.101560e-001
3.070249e+003,8.200628e-001
3.074106e+003,8.283117e-001
3.077963e+003,8.278407e-001
3.081820e+003,8.361622e-001
3.085677e+003,8.499362e-001
3.089534e+003,8.558661e-001
3.093391e+003,8.583221e-001
3.097248e+003,8.653885e-001
3.101105e+003,8.756204e-001
3.104962e+003,8.848180e-001
3.108820e+003,8.964850e-001
3.112677e+003,9.004913e-001
3.116534e+003,9.050565e-001
3.120391e+003,9.177840e-001
3.124248e+003,9.278256e-001
3.128105e+003,9.350645e-001
3.131962e+003,9.399314e-001
3.135819e+003,9.457375e-001
3.139676e+003,9.559967e-001
3.143533e+003,9.624591e-001
3.147390e+003,9.673069e-001
3.151248e+003,9.672961e-001
3.155105e+003,9.698325e-001
3.158962e+003,9.767810e-001
3.162819e+003,9.940311e-001
3.166676e+003,1.016982e+000
3.170533e+003,1.023273e+000
3.174390e+003,1.023761e+000
3.178247e+003,1.028484e+000
3.182104e+003,1.042674e+000
3.185961e+003,1.054475e+000
3.189819e+003,1.051836e+000
3.193676e+003,1.053496e+000
3.197533e+003,1.067964e+000
3.201390e+003,1.081153e+000
3.205247e+003,1.086324e+000
3.209104e+003,1.095696e+000
3.212961e+003,1.095751e+000
3.216818e+003,1.107082e+000
3.220675e+003,1.120580e+000
3.224532e+003,1.124578e+000
3.228389e+003,1.119237e+000
3.232247e+003,1.123869e+000
3.236104e+003,1.134119e+000
3.239961e+003,1.143185e+000
3.243818e+003,1.156563e+000
3.247675e+003,1.161781e+000
3.251532e+003,1.157839e+000
3.255389e+003,1.164234e+000
3.259246e+003,1.169015e+000
3.263103e+003,1.183554e+000
3.266960e+003,1.192182e+000
3.270818e+003,1.188154e+000
3.274675e+003,1.193899e+000
3.278532e+003,1.214216e+000
3.282389e+003,1.236362e+000
3.286246e+003,1.228472e+000
3.290103e+003,1.218335e+000
3.293960e+003,1.213200e+000
3.297817e+003,1.214254e+000
3.301674e+003,1.230670e+000
3.305531e+003,1.248323e+000
3.309388e+003,1.262574e+000
3.313246e+003,1.265321e+000
3.317103e+003,1.256756e+000
3.320960e+003,1.258196e+000
3.324817e+003,1.297617e+000
3.328674e+003,1.322298e+000
3.332531e+003,1.304619e+000
3.336388e+003,1.283319e+000
3.340245e+003,1.282047e+000
3.344102e+003,1.303117e+000
3.347959e+003,1.305499e+000
3.351817e+003,1.324620e+000
3.355674e+003,1.344526e+000
3.359531e+003,1.343437e+000
3.363388e+003,1.353436e+000
3.367245e+003,1.359867e+000
3.371102e+003,1.355600e+000
3.374959e+003,1.362167e+000
3.378816e+003,1.362896e+000
3.382673e+003,1.372347e+000
3.386530e+003,1.395625e+000
3.390387e+003,1.390512e+000
3.394245e+003,1.394394e+000
3.398102e+003,1.411548e+000
3.401959e+003,1.408928e+000
3.405816e+003,1.424611e+000
3.409673e+003,1.450647e+000
3.413530e+003,1.423181e+000
3.417387e+003,1.403371e+000
3.421244e+003,1.421968e+000
3.425101e+003,1.440220e+000
3.428958e+003,1.468063e+000
3.432815e+003,1.476680e+000
3.436673e+003,1.471941e+000
3.440530e+003,1.447057e+000
3.444387e+003,1.398572e+000
3.448244e+003,1.415376e+000
3.452101e+003,1.464629e+000
3.455958e+003,1.483712e+000
3.459815e+003,1.475373e+000
3.463672e+003,1.464720e+000
3.467529e+003,1.465759e+000
3.471386e+003,1.482566e+000
3.475244e+003,1.492720e+000
3.479101e+003,1.472128e+000
3.482958e+003,1.476281e+000
3.486815e+003,1.507370e+000
3.490672e+003,1.525040e+000
3.494529e+003,1.542693e+000
3.498386e+003,1.508674e+000
3.502243e+003,1.477866e+000
3.506100e+003,1.519940e+000
3.509958e+003,1.551249e+000
3.513814e+003,1.536906e+000
3.517672e+003,1.534483e+000
3.521529e+003,1.530253e+000
3.525386e+003,1.515636e+000
3.529243e+003,1.512350e+000
3.533100e+003,1.544553e+000
3.536957e+003,1.546086e+000
3.540814e+003,1.501865e+000
3.544671e+003,1.469791e+000
3.548528e+003,1.468319e+000
3.552385e+003,1.488696e+000
3.556243e+003,1.495952e+000
3.560100e+003,1.477823e+000
3.563957e+003,1.477707e+000
3.567814e+003,1.459709e+000
3.571671e+003,1.426374e+000
3.575528e+003,1.399456e+000
3.579385e+003,1.405113e+000
3.583242e+003,1.407296e+000
3.587099e+003,1.342603e+000
3.590957e+003,1.299603e+000
3.594813e+003,1.306085e+000
3.598671e+003,1.283998e+000
3.602528e+003,1.238372e+000
3.606385e+003,1.197892e+000
3.610242e+003,1.159506e+000
3.614099e+003,1.098112e+000
3.617956e+003,1.035912e+000
3.621813e+003,9.830167e-001
3.625670e+003,9.255587e-001
3.629527e+003,8.718587e-001
3.633385e+003,8.192466e-001
3.637242e+003,7.624363e-001
3.641099e+003,7.096419e-001
3.644956e+003,6.574115e-001
3.648813e+003,6.042559e-001
3.652670e+003,5.562723e-001
3.656527e+003,5.118365e-001
3.660384e+003,4.718704e-001
3.664241e+003,4.378539e-001
3.668098e+003,4.037067e-001
3.671956e+003,3.715908e-001
3.675813e+003,3.425621e-001
3.679670e+003,3.166864e-001
3.683527e+003,2.921018e-001
3.687384e+003,2.684214e-001
3.691241e+003,2.500614e-001
3.695098e+003,2.339384e-001
3.698955e+003,2.185364e-001
3.702812e+003,2.057591e-001
3.706669e+003,1.955339e-001
3.710526e+003,1.892893e-001
3.714384e+003,1.850435e-001
3.718241e+003,1.816076e-001
3.722098e+003,1.782945e-001
3.725955e+003,1.751764e-001
3.729812e+003,1.699957e-001
3.733669e+003,1.666410e-001
3.737526e+003,1.651410e-001
3.741383e+003,1.631972e-001
3.745240e+003,1.601039e-001
3.749097e+003,1.580315e-001
3.752955e+003,1.552434e-001
3.756812e+003,1.524253e-001
3.760669e+003,1.507088e-001
3.764526e+003,1.490116e-001
3.768383e+003,1.460470e-001
3.772240e+003,1.421935e-001
3.776097e+003,1.396825e-001
3.779954e+003,1.394114e-001
3.783811e+003,1.397419e-001
3.787668e+003,1.411471e-001
3.791525e+003,1.412732e-001
3.795383e+003,1.394640e-001
3.799240e+003,1.370340e-001
3.803097e+003,1.375407e-001
3.806954e+003,1.390999e-001
3.810811e+003,1.400206e-001
3.814668e+003,1.402983e-001
3.818525e+003,1.412438e-001
3.822382e+003,1.421946e-001
3.826239e+003,1.423877e-001
3.830096e+003,1.417476e-001
3.833954e+003,1.418503e-001
3.837811e+003,1.409043e-001
3.841668e+003,1.393380e-001
3.845525e+003,1.386428e-001
3.849382e+003,1.378078e-001
3.853239e+003,1.358522e-001
3.857096e+003,1.337347e-001
3.860953e+003,1.331759e-001
3.864810e+003,1.330261e-001
3.868667e+003,1.314355e-001
3.872524e+003,1.292487e-001
3.876382e+003,1.284539e-001
3.880239e+003,1.303688e-001
3.884096e+003,1.327541e-001
3.887953e+003,1.328790e-001
3.891810e+003,1.336450e-001
3.895667e+003,1.346658e-001
3.899524e+003,1.356132e-001
3.903381e+003,1.375683e-001
3.907238e+003,1.387078e-001
3.911095e+003,1.369472e-001
3.914953e+003,1.355809e-001
3.918810e+003,1.385396e-001
3.922667e+003,1.399213e-001
3.926524e+003,1.385799e-001
3.930381e+003,1.361586e-001
3.934238e+003,1.338600e-001
3.938095e+003,1.326925e-001
3.941952e+003,1.329338e-001
3.945809e+003,1.326193e-001
3.949667e+003,1.322661e-001
3.953523e+003,1.315885e-001
3.957381e+003,1.294606e-001
3.961238e+003,1.272695e-001
3.965095e+003,1.259987e-001
3.968952e+003,1.278244e-001
3.972809e+003,1.280847e-001
3.976666e+003,1.260593e-001
3.980523e+003,1.287726e-001
3.984380e+003,1.306024e-001
3.988237e+003,1.292251e-001
3.992094e+003,1.294775e-001
3.995952e+003,1.298493e-001
3.999809e+003,1.316095e-001
4.003666e+003,1.342077e-001
4.007523e+003,1.348624e-001
4.011380e+003,1.333044e-001
4.015237e+003,1.336681e-001
4.019094e+003,1.334743e-001
4.022951e+003,1.326270e-001
4.026808e+003,1.315220e-001
4.030666e+003,1.295161e-001
4.034522e+003,1.284214e-001
4.038380e+003,1.279096e-001
4.042237e+003,1.263341e-001
4.046094e+003,1.253699e-001
4.049951e+003,1.249113e-001
4.053808e+003,1.241588e-001
4.057665e+003,1.244642e-001
4.061522e+003,1.249673e-001
4.065379e+003,1.250469e-001
4.069236e+003,1.239238e-001
4.073094e+003,1.234790e-001
4.076951e+003,1.239480e-001
4.080808e+003,1.239258e-001
4.084665e+003,1.250857e-001
4.088522e+003,1.282621e-001
4.092379e+003,1.286446e-001
4.096236e+003,1.271404e-001
4.100093e+003,1.271417e-001
4.103950e+003,1.277264e-001
4.107808e+003,1.280937e-001
4.111665e+003,1.274776e-001
4.115521e+003,1.268179e-001
4.119379e+003,1.258924e-001
4.123236e+003,1.252693e-001
4.127093e+003,1.239120e-001
4.130950e+003,1.223770e-001
4.134807e+003,1.214687e-001
4.138664e+003,1.190852e-001
4.142521e+003,1.165980e-001
4.146378e+003,1.156306e-001
4.150235e+003,1.163250e-001
4.154093e+003,1.149530e-001
4.157950e+003,1.150930e-001
4.161807e+003,1.167367e-001
4.165664e+003,1.195103e-001
4.169521e+003,1.221917e-001
4.173378e+003,1.206618e-001
4.177235e+003,1.173013e-001
4.181092e+003,1.163932e-001
4.184949e+003,1.171627e-001
4.188807e+003,1.183178e-001
4.192664e+003,1.210407e-001
4.196521e+003,1.203257e-001
4.200378e+003,1.185575e-001
4.204235e+003,1.211536e-001
4.208092e+003,1.226718e-001
4.211949e+003,1.205739e-001
4.215806e+003,1.193384e-001
4.219663e+003,1.178537e-001
4.223521e+003,1.175997e-001
4.227377e+003,1.163312e-001
4.231234e+003,1.151727e-001
4.235092e+003,1.136061e-001
4.238949e+003,1.149299e-001
4.242806e+003,1.162254e-001
4.246663e+003,1.139521e-001
4.250520e+003,1.101817e-001
4.254377e+003,1.111710e-001
4.258234e+003,1.109759e-001
4.262091e+003,1.128678e-001
4.265948e+003,1.130844e-001
4.269806e+003,1.120048e-001
4.273663e+003,1.123761e-001
4.277520e+003,1.139973e-001
4.281377e+003,1.162688e-001
4.285234e+003,1.175648e-001
4.289091e+003,1.180762e-001
4.292948e+003,1.150322e-001
4.296805e+003,1.149638e-001
4.300662e+003,1.166940e-001
4.304520e+003,1.161117e-001
4.308376e+003,1.172674e-001
4.312233e+003,1.213800e-001
4.316091e+003,1.205150e-001
4.319948e+003,1.156170e-001
4.323805e+003,1.155102e-001
4.327662e+003,1.150680e-001
4.331519e+003,1.133075e-001
4.335376e+003,1.113555e-001
4.339233e+003,1.106656e-001
4.343090e+003,1.109972e-001
4.346947e+003,1.107748e-001
4.350805e+003,1.099454e-001
4.354662e+003,1.095787e-001
4.358519e+003,1.117957e-001
4.362376e+003,1.150366e-001
4.366233e+003,1.141673e-001
4.370090e+003,1.139484e-001
4.373947e+003,1.175037e-001
4.377804e+003,1.180925e-001
4.381661e+003,1.171519e-001
4.385519e+003,1.174501e-001
4.389375e+003,1.184582e-001
4.393232e+003,1.175293e-001
4.397090e+003,1.186838e-001
4.400947e+003,1.191409e-001
4.404804e+003,1.201735e-001
4.408661e+003,1.168216e-001
4.412518e+003,1.148839e-001
4.416375e+003,1.151879e-001
4.420232e+003,1.145541e-001
4.424089e+003,1.133298e-001
4.427946e+003,1.144345e-001
4.431804e+003,1.146349e-001
4.435661e+003,1.135662e-001
4.439518e+003,1.137455e-001
4.443375e+003,1.112361e-001
4.447232e+003,1.111303e-001
4.451089e+003,1.114968e-001
4.454946e+003,1.105765e-001
4.458803e+003,1.102926e-001
4.462660e+003,1.118623e-001
4.466518e+003,1.135661e-001
4.470375e+003,1.162498e-001
4.474231e+003,1.156380e-001
4.478089e+003,1.164466e-001
4.481946e+003,1.156932e-001
4.485803e+003,1.147396e-001
4.489660e+003,1.203765e-001
4.493517e+003,1.231332e-001
4.497375e+003,1.225249e-001
4.501231e+003,1.216597e-001
4.505088e+003,1.197792e-001
4.508946e+003,1.175270e-001
4.512803e+003,1.139208e-001
4.516660e+003,1.145310e-001
4.520517e+003,1.168859e-001
4.524374e+003,1.161313e-001
4.528231e+003,1.149671e-001
4.532088e+003,1.142965e-001
4.535945e+003,1.139131e-001
4.539802e+003,1.113676e-001
4.543660e+003,1.086801e-001
4.547517e+003,1.079676e-001
4.551374e+003,1.073564e-001
4.555231e+003,1.069947e-001
4.559088e+003,1.074613e-001
4.562945e+003,1.101727e-001
4.566802e+003,1.126994e-001
4.570659e+003,1.115325e-001
4.574516e+003,1.114573e-001
4.578374e+003,1.140757e-001
4.582230e+003,1.148349e-001
4.586087e+003,1.136030e-001
4.589945e+003,1.136442e-001
4.593802e+003,1.097750e-001
4.597659e+003,1.081560e-001
4.601516e+003,1.100982e-001
4.605373e+003,1.094838e-001
4.609230e+003,1.081343e-001
4.613087e+003,1.090110e-001
4.616944e+003,1.090903e-001
4.620801e+003,1.070893e-001
4.624659e+003,1.056258e-001
4.628516e+003,1.042703e-001
4.632373e+003,9.993110e-002
4.636230e+003,9.859017e-002
4.640087e+003,1.004813e-001
4.643944e+003,1.034628e-001
4.647801e+003,1.039928e-001
4.651658e+003,1.016693e-001
4.655515e+003,1.058130e-001
4.659373e+003,1.092267e-001
4.663229e+003,1.075181e-001
4.667086e+003,1.078401e-001
4.670944e+003,1.074084e-001
4.674801e+003,1.091374e-001
4.678658e+003,1.083887e-001
4.682515e+003,1.082802e-001
4.686372e+003,1.097919e-001
4.690229e+003,1.095384e-001
4.694086e+003,1.090297e-001
4.697943e+003,1.084733e-001
4.701800e+003,1.064074e-001
4.705658e+003,1.050039e-001
4.709515e+003,1.082231e-001
4.713372e+003,1.094409e-001
4.717229e+003,1.080526e-001
4.721086e+003,1.087379e-001
4.724943e+003,1.081419e-001
4.728800e+003,1.001389e-001
4.732657e+003,9.678375e-002
4.736514e+003,1.019543e-001
4.740372e+003,1.065816e-001
4.744229e+003,1.071838e-001
4.748085e+003,1.060345e-001
4.751943e+003,1.061732e-001
4.755800e+003,1.055583e-001
4.759657e+003,1.079681e-001
4.763514e+003,1.099440e-001
4.767371e+003,1.104304e-001
4.771228e+003,1.122181e-001
4.775085e+003,1.141328e-001
4.778942e+003,1.110902e-001
4.782799e+003,1.093830e-001
4.786657e+003,1.096595e-001
4.790514e+003,1.106711e-001
4.794371e+003,1.095384e-001
4.798228e+003,1.077218e-001
4.802085e+003,1.071419e-001
4.805942e+003,1.088638e-001
4.809799e+003,1.096358e-001
4.813656e+003,1.068233e-001
4.817513e+003,1.081349e-001
4.821371e+003,1.085274e-001
4.825228e+003,1.081074e-001
4.829084e+003,1.042350e-001
4.832942e+003,9.929058e-002
4.836799e+003,1.006363e-001
4.840656e+003,1.038253e-001
4.844513e+003,1.049590e-001
4.848370e+003,1.064891e-001
4.852227e+003,1.053961e-001
4.856084e+003,1.056329e-001
4.859941e+003,1.075383e-001
4.863798e+003,1.069464e-001
4.867656e+003,1.058066e-001
4.871513e+003,1.061804e-001
4.875370e+003,1.062885e-001
4.879227e+003,1.095318e-001
4.883084e+003,1.099672e-001
4.886941e+003,1.062558e-001
4.890798e+003,1.067206e-001
4.894655e+003,1.122368e-001
4.898512e+003,1.110310e-001
4.902370e+003,1.061453e-001
4.906227e+003,1.067120e-001
4.910083e+003,1.092778e-001
4.913941e+003,1.076351e-001
4.917798e+003,1.045319e-001
4.921655e+003,1.067806e-001
4.925512e+003,1.065093e-001
4.929369e+003,1.050099e-001
4.933226e+003,1.071225e-001
4.937083e+003,1.044717e-001
4.940940e+003,1.017861e-001
4.944797e+003,1.033995e-001
4.948655e+003,1.071637e-001
4.952512e+003,1.078694e-001
4.956369e+003,1.048280e-001
4.960226e+003,1.046617e-001
4.964083e+003,1.107660e-001
4.967940e+003,1.096072e-001
4.971797e+003,1.048851e-001
4.975654e+003,1.056814e-001
4.979511e+003,1.050819e-001
4.983369e+003,1.061126e-001
4.987226e+003,1.099628e-001
4.991083e+003,1.099593e-001
4.994940e+003,1.066131e-001
4.998797e+003,1.035719e-001
5.002654e+003,1.061337e-001
5.006511e+003,1.101495e-001
5.010368e+003,1.081365e-001
5.014225e+003,1.084949e-001
5.018083e+003,1.064130e-001
5.021939e+003,1.031536e-001
5.025796e+003,1.044701e-001
5.029654e+003,1.039113e-001
5.033511e+003,1.035258e-001
5.037368e+003,1.020697e-001
5.041225e+003,1.022592e-001
5.045082e+003,1.033667e-001
5.048939e+003,1.055653e-001
5.052796e+003,1.069638e-001
5.056653e+003,1.035839e-001
5.060510e+003,1.035435e-001
5.064368e+003,1.049363e-001
5.068225e+003,1.046609e-001
5.072082e+003,1.094553e-001
5.075939e+003,1.123336e-001
5.079796e+003,1.117348e-001
5.083653e+003,1.078427e-001
5.087510e+003,1.056515e-001
5.091367e+003,1.066704e-001
5.095224e+003,1.103576e-001
5.099082e+003,1.108307e-001
5.102938e+003,1.080609e-001
5.106795e+003,1.090436e-001
5.110653e+003,1.110485e-001
5.114510e+003,1.094701e-001
5.118367e+003,1.053638e-001
5.122224e+003,1.043043e-001
5.126081e+003,1.068901e-001
5.129938e+003,1.089146e-001
5.133795e+003,1.064614e-001
5.137652e+003,1.058523e-001
5.141509e+003,1.071056e-001
5.145367e+003,1.083363e-001
5.149224e+003,1.093180e-001
5.153081e+003,1.072526e-001
5.156938e+003,1.090746e-001
5.160795e+003,1.134374e-001
5.164652e+003,1.132951e-001
5.168509e+003,1.102186e-001
5.172366e+003,1.106586e-001
5.176223e+003,1.119865e-001
5.180081e+003,1.106933e-001
5.183938e+003,1.078542e-001
5.187794e+003,1.072278e-001
5.191652e+003,1.066830e-001
5.195509e+003,1.039717e-001
5.199366e+003,1.074576e-001
5.203223e+003,1.117303e-001
5.207080e+003,1.102395e-001
5.210937e+003,1.070040e-001
5.214794e+003,1.059610e-001
5.218651e+003,1.075000e-001
5.222508e+003,1.030332e-001
5.226366e+003,1.006671e-001
5.230223e+003,1.033919e-001
5.234080e+003,1.061963e-001
5.237937e+003,1.071528e-001
5.241794e+003,1.060209e-001
5.245651e+003,1.049265e-001
5.249508e+003,1.049931e-001
5.253365e+003,1.053073e-001
5.257222e+003,1.060743e-001
5.261080e+003,1.035318e-001
5.264937e+003,1.066946e-001
5.268793e+003,1.062140e-001
5.272651e+003,1.002312e-001
5.276508e+003,1.004307e-001
5.280365e+003,1.049289e-001
5.284222e+003,1.072206e-001
5.288079e+003,1.051699e-001
5.291936e+003,1.033723e-001
5.295793e+003,1.003975e-001
5.299650e+003,1.006299e-001
5.303507e+003,1.020331e-001
5.307365e+003,9.903083e-002
5.311222e+003,1.005524e-001
5.315079e+003,9.995858e-002
5.318936e+003,9.912965e-002
5.322793e+003,9.908386e-002
5.326650e+003,9.849065e-002
5.330507e+003,1.016992e-001
5.334364e+003,1.018355e-001
5.338221e+003,1.011386e-001
5.342079e+003,9.881059e-002
5.345936e+003,9.806781e-002
5.349792e+003,1.013049e-001
5.353650e+003,1.001947e-001
5.357507e+003,9.799527e-002
5.361364e+003,9.656221e-002
5.365221e+003,9.804858e-002
5.369078e+003,1.002948e-001
5.372935e+003,1.000430e-001
5.376792e+003,1.006354e-001
5.380649e+003,1.026361e-001
5.384506e+003,9.836338e-002
5.388364e+003,9.335035e-002
5.392221e+003,9.882524e-002
5.396078e+003,1.014428e-001
5.399935e+003,9.834273e-002
5.403792e+003,9.302479e-002
5.407649e+003,9.574766e-002
5.411506e+003,9.918977e-002
5.415363e+003,9.744053e-002
5.419220e+003,9.828730e-002
5.423078e+003,1.007475e-001
5.426935e+003,9.952331e-002
5.430792e+003,9.635872e-002
5.434649e+003,9.861038e-002
5.438506e+003,9.708123e-002
5.442363e+003,9.058246e-002
5.446220e+003,9.293051e-002
5.450077e+003,9.726548e-002
5.453934e+003,9.648350e-002
5.457792e+003,9.375948e-002
5.461648e+003,9.260892e-002
5.465505e+003,9.441627e-002
5.469363e+003,9.777965e-002
5.473220e+003,9.649525e-002
5.477077e+003,9.561916e-002
5.480934e+003,9.670410e-002
5.484791e+003,9.779908e-002
5.488648e+003,9.805988e-002
5.492505e+003,9.658045e-002
5.496362e+003,9.656481e-002
5.500219e+003,9.442957e-002
5.504077e+003,9.281373e-002
5.507934e+003,9.503405e-002
5.511791e+003,9.933344e-002
5.515648e+003,9.812906e-002
5.519505e+003,9.515980e-002
5.523362e+003,9.173090e-002
5.527219e+003,9.024037e-002
5.531076e+003,9.385210e-002
5.534933e+003,1.005274e-001
5.538791e+003,1.038673e-001
5.542647e+003,9.932644e-002
5.546504e+003,9.265580e-002
5.550362e+003,9.387780e-002
5.554219e+003,9.658729e-002
5.558076e+003,9.804705e-002
5.561933e+003,9.633887e-002
5.565790e+003,9.600751e-002
5.569647e+003,9.686971e-002
5.573504e+003,9.835054e-002
5.577361e+003,9.621690e-002
5.581218e+003,9.280987e-002
5.585076e+003,9.845548e-002
5.588933e+003,9.952027e-002
5.592790e+003,9.465374e-002
5.596647e+003,9.366381e-002
5.600504e+003,9.625024e-002
5.604361e+003,1.018268e-001
5.608218e+003,9.808849e-002
5.612075e+003,8.964090e-002
5.615932e+003,9.084120e-002
5.619790e+003,9.673187e-002
5.623646e+003,9.470756e-002
5.627503e+003,8.662996e-002
5.631361e+003,8.653436e-002
5.635218e+003,8.950754e-002
5.639075e+003,9.205675e-002
5.642932e+003,9.114809e-002
5.646789e+003,9.127112e-002
5.650646e+003,8.882158e-002
5.654503e+003,8.909746e-002
5.658360e+003,9.697914e-002
5.662217e+003,9.979278e-002
5.666075e+003,9.584503e-002
5.669932e+003,9.049287e-002
5.673789e+003,8.780469e-002
5.677646e+003,8.903798e-002
5.681503e+003,9.284947e-002
5.685360e+003,9.390947e-002
5.689217e+003,9.024580e-002
5.693074e+003,8.896226e-002
5.696931e+003,9.104551e-002
5.700789e+003,8.927249e-002
5.704646e+003,8.609346e-002
5.708502e+003,8.439922e-002
5.712360e+003,8.900085e-002
5.716217e+003,9.128004e-002
5.720074e+003,8.846946e-002
5.723931e+003,8.474568e-002
5.727788e+003,8.487730e-002
5.731645e+003,8.258138e-002
5.735502e+003,8.404057e-002
5.739359e+003,8.975647e-002
5.743216e+003,9.334990e-002
5.747074e+003,9.212225e-002
5.750931e+003,9.531118e-002
5.754788e+003,9.682151e-002
5.758645e+003,9.565824e-002
5.762502e+003,9.005895e-002
5.766359e+003,8.890346e-002
5.770216e+003,8.503529e-002
5.774073e+003,8.384054e-002
5.777930e+003,9.037430e-002
5.781788e+003,9.102402e-002
5.785645e+003,8.829426e-002
5.789501e+003,8.872996e-002
5.793359e+003,8.656194e-002
5.797216e+003,8.730116e-002
5.801073e+003,8.956283e-002
5.804930e+003,9.203439e-002
5.808787e+003,8.891679e-002
5.812644e+003,8.749902e-002
5.816501e+003,8.750539e-002
5.820358e+003,8.320681e-002
5.824215e+003,8.087943e-002
5.828073e+003,8.366282e-002
5.831930e+003,8.758289e-002
5.835787e+003,9.151866e-002
5.839644e+003,8.863413e-002
5.843501e+003,7.796927e-002
5.847358e+003,7.859333e-002
5.851215e+003,7.988609e-002
5.855072e+003,8.601017e-002
5.858929e+003,8.895811e-002
5.862787e+003,8.942614e-002
5.866644e+003,8.992305e-002
5.870500e+003,9.195961e-002
5.874358e+003,9.148630e-002
5.878215e+003,8.667790e-002
5.882072e+003,8.666743e-002
5.885929e+003,8.806068e-002
5.889786e+003,8.820596e-002
5.893643e+003,8.865603e-002
5.897500e+003,8.542364e-002
5.901357e+003,8.841751e-002
5.905214e+003,9.207592e-002
5.909072e+003,9.241499e-002
5.912929e+003,8.931213e-002
5.916786e+003,8.665496e-002
5.920643e+003,9.079248e-002
5.924500e+003,8.971980e-002
5.928357e+003,8.520149e-002
5.932214e+003,8.324401e-002
5.936071e+003,8.655640e-002
5.939928e+003,9.048447e-002
5.943786e+003,8.855347e-002
5.947643e+003,8.656476e-002
5.951500e+003,8.528003e-002
5.955357e+003,8.036318e-002
5.959214e+003,7.883763e-002
5.963071e+003,8.025443e-002
5.966928e+003,8.260278e-002
5.970785e+003,8.956731e-002
5.974642e+003,8.716438e-002
5.978500e+003,8.392161e-002
5.982356e+003,8.188082e-002
5.986213e+003,8.006303e-002
5.990071e+003,8.466276e-002
5.993928e+003,8.647148e-002
5.997785e+003,8.868188e-002
6.001642e+003,8.820868e-002
6.005499e+003,9.049940e-002
6.009356e+003,8.968644e-002
6.013213e+003,8.584537e-002
6.017070e+003,8.522346e-002
6.020927e+003,8.391466e-002
6.024785e+003,8.565383e-002
6.028642e+003,8.618813e-002
6.032499e+003,9.027398e-002
6.036356e+003,9.157479e-002
6.040213e+003,9.164995e-002
6.044070e+003,9.040351e-002
6.047927e+003,8.506609e-002
6.051784e+003,8.123200e-002
6.055641e+003,8.069195e-002
6.059499e+003,8.352147e-002
6.063355e+003,9.071914e-002
6.067212e+003,8.717851e-002
6.071070e+003,8.214432e-002
6.074927e+003,8.165571e-002
6.078784e+003,8.269552e-002
6.082641e+003,8.959028e-002
6.086498e+003,8.583983e-002
6.090355e+003,7.702365e-002
6.094212e+003,8.216978e-002
6.098069e+003,8.444276e-002
6.101926e+003,8.642296e-002
6.105784e+003,8.955567e-002
6.109641e+003,8.731891e-002
6.113498e+003,8.901533e-002
6.117355e+003,8.851012e-002
6.121212e+003,8.779775e-002
6.125069e+003,8.635363e-002
6.128926e+003,8.531559e-002
6.132783e+003,8.363117e-002
6.136640e+003,8.210397e-002
6.140498e+003,8.186910e-002
6.144354e+003,8.015547e-002
6.148211e+003,7.960867e-002
6.152069e+003,8.511393e-002
6.155926e+003,8.742231e-002
6.159783e+003,8.327616e-002
6.163640e+003,7.940467e-002
6.167497e+003,8.434888e-002
6.171354e+003,9.376076e-002
6.175211e+003,9.742726e-002
6.179068e+003,9.136856e-002
6.182925e+003,8.232899e-002
6.186783e+003,8.504082e-002
6.190640e+003,9.025783e-002
6.194497e+003,8.602322e-002
6.198354e+003,8.571485e-002
6.202211e+003,8.364084e-002
6.206068e+003,7.878850e-002
6.209925e+003,8.123168e-002
6.213782e+003,8.231481e-002
6.217639e+003,8.251806e-002
6.221497e+003,8.336869e-002
6.225354e+003,8.495945e-002
6.229210e+003,8.486167e-002
6.233068e+003,8.671791e-002
6.236925e+003,8.518343e-002
6.240782e+003,7.826051e-002
6.244639e+003,7.871810e-002
6.248496e+003,7.491429e-002
6.252353e+003,7.650358e-002
6.256210e+003,8.031191e-002
6.260067e+003,7.846815e-002
6.263924e+003,8.146737e-002
6.267782e+003,8.879531e-002
6.271639e+003,9.453385e-002
6.275496e+003,9.895438e-002
6.279353e+003,9.411740e-002
6.283210e+003,8.363663e-002
6.287067e+003,8.004370e-002
6.290924e+003,8.649978e-002
6.294781e+003,9.029018e-002
6.298638e+003,8.628051e-002
6.302496e+003,7.826527e-002
6.306353e+003,7.912442e-002
6.310209e+003,8.647139e-002
6.314067e+003,8.568651e-002
6.317924e+003,8.975834e-002
6.321781e+003,8.721314e-002
6.325638e+003,7.941385e-002
6.329495e+003,8.136529e-002
6.333352e+003,8.741806e-002
6.337209e+003,8.288552e-002
6.341066e+003,7.932213e-002
6.344923e+003,8.475631e-002
6.348780e+003,8.478482e-002
6.352638e+003,7.705459e-002
6.356495e+003,7.109573e-002
6.360352e+003,7.738609e-002
6.364209e+003,8.567901e-002
6.368066e+003,8.677860e-002
6.371923e+003,8.132086e-002
6.375780e+003,7.796471e-002
6.379637e+003,7.441869e-002
6.383494e+003,7.835563e-002
6.387352e+003,8.104751e-002
6.391208e+003,8.139510e-002
6.395065e+003,8.353858e-002
6.398923e+003,8.890143e-002
6.402780e+003,9.002250e-002
6.406637e+003,8.426085e-002
6.410494e+003,8.140738e-002
6.414351e+003,7.972073e-002
6.418208e+003,8.490865e-002
6.422065e+003,8.343136e-002
6.425922e+003,8.332273e-002
6.429779e+003,8.359393e-002
6.433637e+003,8.159481e-002
6.437494e+003,8.134995e-002
6.441351e+003,7.912024e-002
6.445208e+003,7.922004e-002
6.449065e+003,8.270770e-002
6.452922e+003,8.336817e-002
6.456779e+003,8.748630e-002
6.460636e+003,9.085554e-002
6.464493e+003,8.193355e-002
6.468351e+003,8.339619e-002
6.472208e+003,8.879665e-002
6.476064e+003,8.820299e-002
6.479922e+003,8.140677e-002
6.483779e+003,7.814801e-002
6.487636e+003,7.531603e-002
6.491493e+003,7.943510e-002
6.495350e+003,8.306148e-002
6.499207e+003,8.819036e-002
6.503064e+003,8.304884e-002
6.506921e+003,8.178889e-002
6.510778e+003,8.693571e-002
6.514636e+003,8.693441e-002
6.518493e+003,9.055217e-002
6.522350e+003,9.312792e-002
6.526207e+003,8.755500e-002
6.530064e+003,9.085068e-002
6.533921e+003,8.932129e-002
6.537778e+003,8.703290e-002
6.541635e+003,9.498881e-002
6.545492e+003,8.905328e-002
6.549350e+003,8.478849e-002
6.553207e+003,8.709545e-002
6.557063e+003,8.364286e-002
6.560921e+003,8.906385e-002
6.564778e+003,9.345577e-002
6.568635e+003,8.731847e-002
6.572492e+003,8.396856e-002
6.576349e+003,8.792338e-002
6.580206e+003,9.001757e-002
6.584063e+003,9.646616e-002
6.587920e+003,9.222455e-002
6.591777e+003,8.944149e-002
6.595635e+003,9.226433e-002
6.599492e+003,9.040020e-002
6.603349e+003,8.972881e-002
6.607206e+003,8.385823e-002
6.611063e+003,7.762671e-002
6.614920e+003,7.866739e-002
6.618777e+003,7.885090e-002
6.622634e+003,9.077656e-002
6.626491e+003,1.073908e-001
6.630349e+003,1.011419e-001
6.634206e+003,8.953176e-002
6.638063e+003,8.212110e-002
6.641920e+003,8.234785e-002
6.645777e+003,8.728164e-002
6.649634e+003,9.286954e-002
6.653491e+003,8.976539e-002
6.657348e+003,8.080180e-002
6.661205e+003,8.546951e-002
6.665063e+003,8.322600e-002
6.668919e+003,7.967407e-002
6.672776e+003,9.488499e-002
6.676634e+003,1.028246e-001
6.680491e+003,9.809136e-002
6.684348e+003,8.286375e-002
6.688205e+003,7.804707e-002
6.692062e+003,9.478569e-002
6.695919e+003,1.007886e-001
6.699776e+003,1.014513e-001
6.703633e+003,1.045101e-001
6.707490e+003,1.011865e-001
6.711348e+003,9.025902e-002
6.715205e+003,8.206882e-002
6.719062e+003,8.253345e-002
6.722919e+003,8.628439e-002
6.726776e+003,8.853067e-002
6.730633e+003,8.652505e-002
6.734490e+003,7.944437e-002
6.738347e+003,8.921369e-002
6.742204e+003,1.035401e-001
6.746062e+003,1.029507e-001
6.749918e+003,9.258177e-002
6.753775e+003,9.173671e-002
6.757633e+003,9.935617e-002
6.761490e+003,1.022453e-001
6.765347e+003,9.951340e-002
6.769204e+003,9.856980e-002
6.773061e+003,8.938140e-002
6.776918e+003,9.623133e-002
6.780775e+003,1.050541e-001
6.784632e+003,9.693416e-002
6.788489e+003,9.401544e-002
6.792347e+003,9.953927e-002
6.796204e+003,1.067858e-001
6.800061e+003,1.064036e-001
6.803918e+003,1.097284e-001
6.807775e+003,1.042813e-001
6.811632e+003,8.611516e-002
6.815489e+003,8.807067e-002
6.819346e+003,9.672326e-002
6.823203e+003,9.689283e-002
6.827061e+003,1.092028e-001
6.830917e+003,1.129287e-001
6.834774e+003,1.023864e-001
6.838632e+003,9.196781e-002
6.842489e+003,8.847559e-002
6.846346e+003,8.927347e-002
6.850203e+003,9.856294e-002
6.854060e+003,1.025494e-001
6.857917e+003,1.017520e-001
6.861774e+003,1.055259e-001
6.865631e+003,1.234002e-001
6.869488e+003,1.268816e-001
6.873346e+003,1.128780e-001
6.877203e+003,1.004535e-001
6.881060e+003,1.011843e-001
6.884917e+003,1.038713e-001
6.888774e+003,1.099563e-001
6.892631e+003,1.089324e-001
6.896488e+003,1.120007e-001
6.900345e+003,1.021107e-001
6.904202e+003,1.016809e-001
6.908060e+003,1.134595e-001
6.911917e+003,1.219764e-001
6.915773e+003,1.257905e-001
6.919631e+003,1.197793e-001
6.923488e+003,1.180197e-001
6.927345e+003,1.277030e-001
6.931202e+003,1.182709e-001
6.935059e+003,1.015637e-001
6.938916e+003,1.058076e-001
6.942773e+003,1.188762e-001
6.946630e+003,1.258314e-001
6.950487e+003,1.247571e-001
6.954345e+003,1.213592e-001
6.958202e+003,1.125309e-001
6.962059e+003,1.001804e-001
6.965916e+003,9.317411e-002
6.969773e+003,9.561916e-002
6.973630e+003,9.917898e-002
6.977487e+003,1.060330e-001
6.981344e+003,1.117692e-001
6.985201e+003,1.096198e-001
6.989059e+003,1.056870e-001
6.992916e+003,1.065626e-001
6.996772e+003,1.182944e-001
7.000630e+003,1.224615e-001
7.004487e+003,1.193429e-001
7.008344e+003,1.099029e-001
7.012201e+003,1.045050e-001
7.016058e+003,1.008994e-001
7.019915e+003,1.035199e-001
7.023772e+003,1.015166e-001
7.027629e+003,1.035471e-001
7.031486e+003,1.081652e-001
7.035344e+003,1.106391e-001
7.039201e+003,1.045562e-001
7.043058e+003,1.118323e-001
7.046915e+003,1.205091e-001
7.050772e+003,1.206039e-001
7.054629e+003,1.172551e-001
7.058486e+003,1.124739e-001
7.062343e+003,1.191918e-001
7.066200e+003,1.168405e-001
7.070058e+003,1.156785e-001
7.073915e+003,1.238521e-001
7.077771e+003,1.136825e-001
7.081629e+003,1.156269e-001
7.085486e+003,1.180495e-001
7.089343e+003,1.167767e-001
7.093200e+003,1.131473e-001
7.097057e+003,1.092642e-001
7.100914e+003,1.093576e-001
7.104771e+003,1.036044e-001
7.108628e+003,1.048473e-001
7.112485e+003,1.067637e-001
7.116343e+003,1.252210e-001
7.120200e+003,1.327534e-001
7.124057e+003,1.281019e-001
7.127914e+003,1.402622e-001
7.131771e+003,1.358048e-001
7.135628e+003,1.177403e-001
7.139485e+003,1.263915e-001
7.143342e+003,1.443643e-001
7.147199e+003,1.513252e-001
7.151057e+003,1.453432e-001
7.154914e+003,1.186814e-001
7.158771e+003,1.074493e-001
7.162628e+003,1.144893e-001
7.166485e+003,1.263821e-001
7.170342e+003,1.456455e-001
7.174199e+003,1.576900e-001
7.178056e+003,1.492486e-001
7.181913e+003,1.261793e-001
7.185771e+003,1.300768e-001
7.189627e+003,1.209948e-001
7.193484e+003,1.027796e-001
7.197342e+003,9.723978e-002
7.201199e+003,1.138022e-001
7.205056e+003,1.264934e-001
7.208913e+003,1.125006e-001
7.212770e+003,9.680164e-002
7.216627e+003,1.074172e-001
7.220484e+003,1.270643e-001
7.224341e+003,1.340230e-001
7.228198e+003,1.307772e-001
7.232056e+003,1.157504e-001
7.235913e+003,1.098419e-001
7.239770e+003,1.276469e-001
7.243627e+003,1.248557e-001
7.247484e+003,1.125596e-001
7.251341e+003,1.100726e-001
7.255198e+003,1.164717e-001
7.259055e+003,1.172553e-001
7.262912e+003,1.137398e-001
7.266770e+003,1.175986e-001
7.270626e+003,1.288390e-001
7.274483e+003,1.351594e-001
7.278341e+003,1.136316e-001
7.282198e+003,1.039995e-001
7.286055e+003,1.074865e-001
7.289912e+003,1.250791e-001
7.293769e+003,1.282192e-001
7.297626e+003,1.141195e-001
7.301483e+003,1.316641e-001
7.305340e+003,1.631528e-001
7.309197e+003,1.478192e-001
7.313055e+003,1.337994e-001
7.316912e+003,1.257556e-001
7.320769e+003,1.243908e-001
7.324626e+003,1.146753e-001
7.328483e+003,1.084010e-001
7.332340e+003,1.183960e-001
7.336197e+003,1.287865e-001
7.340054e+003,1.258998e-001
7.343911e+003,1.159405e-001
7.347769e+003,1.163923e-001
7.351625e+003,1.371058e-001
7.355482e+003,1.426145e-001
7.359340e+003,1.282306e-001
7.363197e+003,1.243127e-001
7.367054e+003,1.366237e-001
7.370911e+003,1.229260e-001
7.374768e+003,1.356162e-001
7.378625e+003,1.459988e-001
7.382482e+003,1.425900e-001
7.386339e+003,1.438574e-001
7.390196e+003,1.579771e-001
7.394054e+003,1.336976e-001
7.397911e+003,1.067867e-001
7.401768e+003,1.240501e-001
7.405625e+003,1.474096e-001
7.409482e+003,1.536567e-001
7.413339e+003,1.356808e-001
7.417196e+003,1.324358e-001
7.421053e+003,1.313232e-001
7.424910e+003,1.175663e-001
7.428768e+003,9.779746e-002
7.432625e+003,8.281387e-002
7.436481e+003,1.056499e-001
7.440339e+003,1.285205e-001
7.444196e+003,1.197278e-001
7.448053e+003,1.340289e-001
7.451910e+003,1.398263e-001
7.455767e+003,1.347545e-001
7.459624e+003,1.160446e-001
7.463481e+003,9.583747e-002
7.467338e+003,1.100693e-001
7.471195e+003,1.186577e-001
7.475053e+003,1.062634e-001
7.478910e+003,1.090166e-001
7.482767e+003,1.217195e-001
7.486624e+003,1.051432e-001
7.490481e+003,1.144054e-001
7.494338e+003,1.251075e-001
7.498195e+003,1.256617e-001
7.502052e+003,1.173077e-001
7.505909e+003,1.354392e-001
7.509767e+003,1.481555e-001
7.513624e+003,1.399987e-001
7.517480e+003,1.355470e-001
7.521338e+003,1.519850e-001
7.525195e+003,1.365521e-001
7.529052e+003,1.092328e-001
7.532909e+003,1.131633e-001
7.536766e+003,1.500714e-001
7.540623e+003,1.432191e-001
7.544480e+003,1.176503e-001
7.548337e+003,1.122976e-001
7.552194e+003,1.318289e-001
7.556052e+003,1.154115e-001
7.559909e+003,9.837651e-002
7.563766e+003,1.125643e-001
7.567623e+003,9.856431e-002
7.571480e+003,1.113713e-001
7.575337e+003,1.261652e-001
7.579194e+003,1.490422e-001
7.583051e+003,1.434304e-001
7.586908e+003,1.320227e-001
7.590766e+003,1.311830e-001
7.594623e+003,1.285909e-001
7.598479e+003,1.516468e-001
7.602337e+003,1.591644e-001
7.606194e+003,1.426679e-001
7.610051e+003,1.472712e-001
7.613908e+003,1.693788e-001
7.617765e+003,1.678916e-001
7.621622e+003,1.401213e-001
7.625479e+003,1.324145e-001
7.629336e+003,1.282536e-001
7.633193e+003,1.494115e-001
7.637051e+003,1.581363e-001
7.640908e+003,1.627506e-001
7.644765e+003,1.348257e-001
7.648622e+003,1.256382e-001
7.652479e+003,1.741809e-001
7.656336e+003,1.932485e-001
7.660193e+003,1.729880e-001
7.664050e+003,1.587833e-001
7.667907e+003,1.486662e-001
7.671765e+003,1.347496e-001
7.675622e+003,1.080332e-001
7.679479e+003,1.114739e-001
7.683336e+003,1.426701e-001
7.687193e+003,1.423547e-001
7.691050e+003,1.039326e-001
7.694907e+003,1.131006e-001
7.698764e+003,1.628445e-001
7.702621e+003,1.607358e-001
7.706479e+003,1.314936e-001
7.710335e+003,1.297826e-001
7.714192e+003,1.210430e-001
7.718050e+003,8.891972e-002
7.721907e+003,1.022881e-001
7.725764e+003,1.427255e-001
7.729621e+003,1.683313e-001
7.733478e+003,1.448664e-001
7.737335e+003,1.159380e-001
7.741192e+003,1.694488e-001
7.745049e+003,2.000583e-001
7.748906e+003,1.696864e-001
7.752764e+003,1.333405e-001
7.756621e+003,1.540918e-001
7.760478e+003,2.058893e-001
7.764335e+003,1.838792e-001
7.768192e+003,1.520889e-001
7.772049e+003,2.107149e-001
7.775906e+003,2.338410e-001
7.779763e+003,1.804803e-001
7.783620e+003,1.237811e-001
7.787478e+003,8.908257e-002
7.791334e+003,1.446993e-001
7.795191e+003,2.291936e-001
7.799049e+003,2.169887e-001
7.802906e+003,1.651601e-001
7.806763e+003,1.348644e-001
7.810620e+003,1.255798e-001
7.814477e+003,1.279184e-001
7.818334e+003,1.205828e-001
7.822191e+003,1.016691e-001
7.826048e+003,1.121677e-001
7.829905e+003,9.271921e-002
7.833763e+003,1.273507e-001
7.837620e+003,1.673541e-001
7.841477e+003,1.281343e-001
7.845334e+003,1.053929e-001
7.849191e+003,1.301374e-001
7.853048e+003,1.929602e-001
7.856905e+003,1.657695e-001
7.860762e+003,1.178754e-001
7.864619e+003,1.624987e-001
7.868477e+003,1.348424e-001
7.872333e+003,1.043775e-001
7.876190e+003,1.413559e-001
7.880048e+003,1.728955e-001
7.883905e+003,1.549018e-001
7.887762e+003,1.303931e-001
7.891619e+003,1.653291e-001
7.895476e+003,1.721436e-001
7.899333e+003,1.578639e-001
7.903190e+003,1.500930e-001
7.907047e+003,1.489942e-001
7.910904e+003,1.387680e-001
7.914762e+003,1.665578e-001
7.918619e+003,1.955819e-001
7.922476e+003,2.050183e-001
7.926333e+003,2.206571e-001
7.930190e+003,1.548507e-001
7.934047e+003,6.832130e-002
7.937904e+003,7.447395e-002
7.941761e+003,1.299437e-001
7.945618e+003,1.740715e-001
7.949476e+003,1.378641e-001
7.953333e+003,1.061615e-001
7.957189e+003,1.439951e-001
7.961047e+003,1.442088e-001
7.964904e+003,1.526274e-001
7.968761e+003,1.818279e-001
7.972618e+003,1.777650e-001
7.976475e+003,1.906053e-001
7.980332e+003,2.061943e-001
7.984189e+003,1.320834e-001
7.988046e+003,1.182131e-001
7.991903e+003,1.612498e-001
7.995761e+003,1.191606e-001
7.999618e+003,8.011287e-002
