4.011380e+002,-3.401902e-002
4.049951e+002,5.236411e-001
4.088522e+002,6.000000e+000
4.127093e+002,8.359672e-001
4.165664e+002,-7.117910e-001
4.204235e+002,4.301019e-001
4.242806e+002,9.013348e-001
4.281377e+002,6.000000e+000
4.319948e+002,-1.056713e+000
4.358519e+002,6.000000e+000
4.397090e+002,6.000000e+000
4.435661e+002,6.000000e+000
4.474232e+002,5.806409e-002
4.512803e+002,6.000000e+000
4.551374e+002,6.000000e+000
4.589945e+002,-1.029721e-001
4.628516e+002,-4.684264e-001
4.667087e+002,-1.506998e+000
4.705658e+002,6.000000e+000
4.744229e+002,6.000000e+000
4.782800e+002,6.000000e+000
4.821371e+002,1.931331e+000
4.859941e+002,-1.441336e+000
4.898513e+002,-5.363764e-001
4.937083e+002,6.000000e+000
4.975654e+002,6.000000e+000
5.014225e+002,6.000000e+000
5.052796e+002,6.000000e+000
5.091367e+002,6.000000e+000
5.129938e+002,5.439762e-001
5.168509e+002,-2.179551e-001
5.207080e+002,-5.678285e-002
5.245651e+002,5.041171e-001
5.284222e+002,4.853976e-001
5.322793e+002,5.208876e-001
5.361364e+002,6.148784e-001
5.399935e+002,8.896662e-001
5.438506e+002,6.000000e+000
5.477077e+002,6.000000e+000
5.515648e+002,6.000000e+000
5.554219e+002,6.000000e+000
5.592790e+002,1.240708e+000
5.631361e+002,1.989403e-001
5.669932e+002,-2.975887e-001
5.708503e+002,-5.895861e-001
5.747074e+002,6.000000e+000
5.785645e+002,6.000000e+000
5.824216e+002,-5.577105e-001
5.862787e+002,-1.535768e-001
5.901357e+002,6.000000e+000
5.939929e+002,6.000000e+000
5.978499e+002,1.157253e-001
6.017070e+002,6.000000e+000
6.055641e+002,6.000000e+000
6.094212e+002,-5.677314e-001
6.132783e+002,6.000000e+000
6.171354e+002,6.000000e+000
6.209925e+002,6.000000e+000
6.248496e+002,-1.120634e+000
6.287067e+002,3.114684e-001
6.325638e+002,-8.717389e-002
6.364209e+002,1.032668e+000
6.402780e+002,6.000000e+000
6.441351e+002,6.000000e+000
6.479922e+002,-1.347666e+000
6.518493e+002,7.982618e-001
6.557064e+002,4.646470e-001
6.595635e+002,6.000000e+000
6.634205e+002,7.711526e-001
6.672777e+002,-2.549566e-001
6.711348e+002,-1.244239e+000
6.749918e+002,6.201036e-001
6.788490e+002,3.091582e-003
6.827061e+002,1.945485e+000
6.865631e+002,-1.048350e+000
6.904203e+002,6.000000e+000
6.942773e+002,-1.234381e+000
6.981344e+002,6.000000e+000
7.019916e+002,6.000000e+000
7.058486e+002,6.000000e+000
7.097057e+002,-1.705076e+000
7.135629e+002,6.000000e+000
7.174199e+002,6.000000e+000
7.212770e+002,-7.250339e-001
7.251342e+002,-8.472079e-001
7.289912e+002,-6.219168e-001
7.328483e+002,-8.982769e-001
7.367054e+002,6.000000e+000
7.405625e+002,6.000000e+000
7.444196e+002,6.000000e+000
7.482767e+002,6.000000e+000
7.521338e+002,-7.365762e-001
7.559908e+002,6.000000e+000
7.598480e+002,-5.272028e-001
7.637051e+002,-1.345944e-001
7.675621e+002,6.000000e+000
7.714193e+002,6.000000e+000
7.752764e+002,6.000000e+000
7.791334e+002,6.000000e+000
7.829905e+002,-2.061258e-001
7.868477e+002,1.134801e-002
7.907047e+002,-2.037431e-001
7.945618e+002,-2.434469e-001
7.984189e+002,6.000000e+000
8.022760e+002,6.000000e+000
8.061331e+002,6.000000e+000
8.099902e+002,6.000000e+000
8.138473e+002,6.000000e+000
8.177044e+002,6.000000e+000
8.215615e+002,7.231467e-001
8.254186e+002,1.008501e+000
8.292757e+002,2.703161e+000
8.331328e+002,5.615290e-001
8.369899e+002,7.971679e-001
8.408470e+002,1.105924e+000
8.447041e+002,1.580187e+000
8.485612e+002,1.503727e+000
8.524183e+002,7.427548e-001
8.562754e+002,9.188020e-001
8.601324e+002,6.000000e+000
8.639896e+002,6.000000e+000
8.678467e+002,6.000000e+000
8.717037e+002,6.000000e+000
8.755609e+002,6.000000e+000
8.794180e+002,1.274590e+000
8.832750e+002,1.395657e+000
8.871321e+002,6.000000e+000
8.909893e+002,6.000000e+000
8.948463e+002,1.590246e+000
8.987034e+002,1.992131e+000
9.025605e+002,2.033856e+000
9.064176e+002,1.613086e+000
9.102747e+002,6.000000e+000
9.141318e+002,2.564501e+000
9.179889e+002,1.480572e+000
9.218461e+002,1.334550e+000
9.257031e+002,1.366044e+000
9.295602e+002,1.399331e+000
9.334174e+002,1.630987e+000
9.372744e+002,6.000000e+000
9.411315e+002,6.000000e+000
9.449886e+002,6.000000e+000
9.488457e+002,1.718325e+000
9.527028e+002,1.579429e+000
9.565599e+002,1.664101e+000
9.604170e+002,2.295843e+000
9.642740e+002,2.790082e+000
9.681312e+002,6.000000e+000
9.719883e+002,6.000000e+000
9.758453e+002,2.641587e+000
9.797025e+002,2.044514e+000
9.835596e+002,2.539373e+000
9.874166e+002,2.650732e+000
9.912738e+002,2.717202e+000
9.951309e+002,3.140562e+000
9.989879e+002,3.115267e+000
1.002845e+003,6.000000e+000
1.006702e+003,6.000000e+000
1.010559e+003,2.803105e+000
1.014416e+003,2.771441e+000
1.018273e+003,2.965760e+000
1.022130e+003,2.367992e+000
1.025988e+003,2.009179e+000
1.029845e+003,1.927241e+000
1.033702e+003,1.975320e+000
1.037559e+003,1.904602e+000
1.041416e+003,2.001235e+000
1.045273e+003,2.327736e+000
1.049130e+003,1.789435e+000
1.052987e+003,1.539570e+000
1.056844e+003,1.580319e+000
1.060702e+003,1.599932e+000
1.064559e+003,1.644039e+000
1.068416e+003,1.718435e+000
1.072273e+003,1.861679e+000
1.076130e+003,1.969219e+000
1.079987e+003,1.904637e+000
1.083844e+003,1.861415e+000
1.087701e+003,1.781273e+000
1.091558e+003,1.680665e+000
1.095415e+003,1.716634e+000
1.099272e+003,1.750661e+000
1.103130e+003,1.793241e+000
1.106987e+003,1.712903e+000
1.110844e+003,1.708326e+000
1.114701e+003,1.727902e+000
1.118558e+003,1.657772e+000
1.122415e+003,1.675616e+000
1.126272e+003,1.649233e+000
1.130129e+003,1.539091e+000
1.133986e+003,1.553323e+000
1.137843e+003,1.550378e+000
1.141701e+003,1.552139e+000
1.145558e+003,1.588100e+000
1.149415e+003,1.591153e+000
1.153272e+003,1.567940e+000
1.157129e+003,1.519249e+000
1.160986e+003,1.520903e+000
1.164843e+003,1.585209e+000
1.168700e+003,1.575916e+000
1.172557e+003,1.530269e+000
1.176414e+003,1.510377e+000
1.180271e+003,1.481727e+000
1.184129e+003,1.454795e+000
1.187986e+003,1.467803e+000
1.191843e+003,1.537393e+000
1.195700e+003,1.526771e+000
1.199557e+003,1.520689e+000
1.203414e+003,1.517569e+000
1.207271e+003,1.479089e+000
1.211128e+003,1.497150e+000
1.214985e+003,1.498618e+000
1.218842e+003,1.416051e+000
1.222699e+003,1.335901e+000
1.226557e+003,1.252284e+000
1.230414e+003,1.162391e+000
1.234271e+003,1.097626e+000
1.238128e+003,1.040591e+000
1.241985e+003,9.877111e-001
1.245842e+003,9.387659e-001
1.249699e+003,8.856416e-001
1.253556e+003,8.400140e-001
1.257413e+003,8.059686e-001
1.261271e+003,7.669017e-001
1.265128e+003,7.287184e-001
1.268985e+003,7.082843e-001
1.272842e+003,6.925312e-001
1.276699e+003,6.715110e-001
1.280556e+003,6.530236e-001
1.284413e+003,6.329508e-001
1.288270e+003,6.124059e-001
1.292127e+003,5.984527e-001
1.295984e+003,5.882457e-001
1.299841e+003,5.788229e-001
1.303698e+003,5.614892e-001
1.307556e+003,5.489205e-001
1.311413e+003,5.447952e-001
1.315270e+003,5.392038e-001
1.319127e+003,5.261016e-001
1.322984e+003,5.180041e-001
1.326841e+003,5.137911e-001
1.330698e+003,5.093945e-001
1.334555e+003,5.064428e-001
1.338412e+003,5.029117e-001
1.342270e+003,5.023438e-001
1.346127e+003,5.039482e-001
1.349984e+003,5.026566e-001
1.353841e+003,5.014316e-001
1.357698e+003,4.954483e-001
1.361555e+003,4.944676e-001
1.365412e+003,5.014011e-001
1.369269e+003,5.070263e-001
1.373126e+003,5.170330e-001
1.376983e+003,5.260426e-001
1.380840e+003,5.358282e-001
1.384698e+003,5.457441e-001
1.388555e+003,5.562335e-001
1.392412e+003,5.670476e-001
1.396269e+003,5.777041e-001
1.400126e+003,5.881066e-001
1.403983e+003,5.986769e-001
1.407840e+003,6.150422e-001
1.411697e+003,6.266381e-001
1.415554e+003,6.347466e-001
1.419411e+003,6.475201e-001
1.423269e+003,6.549702e-001
1.427126e+003,6.629440e-001
1.430983e+003,6.664778e-001
1.434840e+003,6.584333e-001
1.438697e+003,6.505046e-001
1.442554e+003,6.510141e-001
1.446411e+003,6.428747e-001
1.450268e+003,6.298559e-001
1.454125e+003,6.209419e-001
1.457982e+003,6.068902e-001
1.461839e+003,5.980893e-001
1.465697e+003,5.979931e-001
1.469554e+003,5.943079e-001
1.473411e+003,5.928196e-001
1.477268e+003,5.950336e-001
1.481125e+003,5.995728e-001
1.484982e+003,6.108332e-001
1.488839e+003,6.187257e-001
1.492696e+003,6.198697e-001
1.496553e+003,6.282073e-001
1.500411e+003,6.393480e-001
1.504268e+003,6.478674e-001
1.508125e+003,6.558169e-001
1.511982e+003,6.612659e-001
1.515839e+003,6.539716e-001
1.519696e+003,6.436240e-001
1.523553e+003,6.357757e-001
1.527410e+003,6.233687e-001
1.531267e+003,6.136460e-001
1.535124e+003,6.051061e-001
1.538981e+003,5.927466e-001
1.542839e+003,5.823117e-001
1.546696e+003,5.716525e-001
1.550553e+003,5.616491e-001
1.554410e+003,5.461813e-001
1.558267e+003,5.318356e-001
1.562124e+003,5.228611e-001
1.565981e+003,5.173628e-001
1.569838e+003,5.095567e-001
1.573695e+003,5.018488e-001
1.577552e+003,5.005333e-001
1.581410e+003,5.025182e-001
1.585267e+003,5.035220e-001
1.589124e+003,5.090171e-001
1.592981e+003,5.131010e-001
1.596838e+003,5.173582e-001
1.600695e+003,5.282212e-001
1.604552e+003,5.425003e-001
1.608409e+003,5.626037e-001
1.612266e+003,5.863332e-001
1.616123e+003,6.080107e-001
1.619980e+003,6.234134e-001
1.623838e+003,6.426960e-001
1.627695e+003,6.671161e-001
1.631552e+003,6.819581e-001
1.635409e+003,6.862393e-001
1.639266e+003,6.850395e-001
1.643123e+003,6.762295e-001
1.646980e+003,6.708918e-001
1.650837e+003,6.593071e-001
1.654694e+003,6.383936e-001
1.658551e+003,6.161470e-001
1.662409e+003,5.921050e-001
1.666266e+003,5.724962e-001
1.670123e+003,5.552179e-001
1.673980e+003,5.347217e-001
1.677837e+003,5.142981e-001
1.681694e+003,4.933133e-001
1.685551e+003,4.728560e-001
1.689408e+003,4.576248e-001
1.693265e+003,4.452662e-001
1.697122e+003,4.329543e-001
1.700979e+003,4.246711e-001
1.704837e+003,4.187187e-001
1.708694e+003,4.144432e-001
1.712551e+003,4.123095e-001
1.716408e+003,4.107969e-001
1.720265e+003,4.056518e-001
1.724122e+003,4.001876e-001
1.727979e+003,3.951145e-001
1.731836e+003,3.886389e-001
1.735693e+003,3.832422e-001
1.739550e+003,3.788308e-001
1.743408e+003,3.778284e-001
1.747265e+003,3.755006e-001
1.751122e+003,3.739088e-001
1.754979e+003,3.715064e-001
1.758836e+003,3.689743e-001
1.762693e+003,3.698512e-001
1.766550e+003,3.731964e-001
1.770407e+003,3.737499e-001
1.774264e+003,3.711435e-001
1.778121e+003,3.699012e-001
1.781979e+003,3.668116e-001
1.785836e+003,3.627895e-001
1.789693e+003,3.598300e-001
1.793550e+003,3.590542e-001
1.797407e+003,3.581140e-001
1.801264e+003,3.555071e-001
1.805121e+003,3.530924e-001
1.808978e+003,3.504775e-001
1.812835e+003,3.468239e-001
1.816692e+003,3.430653e-001
1.820549e+003,3.407223e-001
1.824407e+003,3.408068e-001
1.828264e+003,3.423139e-001
1.832121e+003,3.421445e-001
1.835978e+003,3.381834e-001
1.839835e+003,3.382915e-001
1.843692e+003,3.396719e-001
1.847549e+003,3.358667e-001
1.851406e+003,3.330994e-001
1.855263e+003,3.321561e-001
1.859120e+003,3.313742e-001
1.862978e+003,3.304837e-001
1.866835e+003,3.284511e-001
1.870692e+003,3.241571e-001
1.874549e+003,3.236668e-001
1.878406e+003,3.226014e-001
1.882263e+003,3.198420e-001
1.886120e+003,3.186617e-001
1.889977e+003,3.166968e-001
1.893834e+003,3.168257e-001
1.897691e+003,3.168752e-001
1.901548e+003,3.157832e-001
1.905406e+003,3.160967e-001
1.909263e+003,3.153312e-001
1.913120e+003,3.130633e-001
1.916977e+003,3.103468e-001
1.920834e+003,3.092934e-001
1.924691e+003,3.094622e-001
1.928548e+003,3.065411e-001
1.932405e+003,3.034050e-001
1.936262e+003,3.000453e-001
1.940119e+003,2.980208e-001
1.943977e+003,2.972519e-001
1.947834e+003,2.950485e-001
1.951691e+003,2.950697e-001
1.955548e+003,2.931987e-001
1.959405e+003,2.917944e-001
1.963262e+003,2.905311e-001
1.967119e+003,2.891580e-001
1.970976e+003,2.882793e-001
1.974833e+003,2.895906e-001
1.978690e+003,2.913460e-001
1.982547e+003,2.900377e-001
1.986405e+003,2.861567e-001
1.990262e+003,2.851672e-001
1.994119e+003,2.856549e-001
1.997976e+003,2.851777e-001
2.001833e+003,2.848298e-001
2.005690e+003,2.841546e-001
2.009547e+003,2.822663e-001
2.013404e+003,2.811782e-001
2.017261e+003,2.825545e-001
2.021118e+003,2.836299e-001
2.024976e+003,2.837740e-001
2.028833e+003,2.836373e-001
2.032690e+003,2.826858e-001
2.036547e+003,2.821534e-001
2.040404e+003,2.801356e-001
2.044261e+003,2.801731e-001
2.048118e+003,2.794464e-001
2.051975e+003,2.780897e-001
2.055832e+003,2.758029e-001
2.059689e+003,2.718718e-001
2.063546e+003,2.720214e-001
2.067404e+003,2.751899e-001
2.071261e+003,2.757491e-001
2.075118e+003,2.755393e-001
2.078975e+003,2.755221e-001
2.082832e+003,2.754731e-001
2.086689e+003,2.743028e-001
2.090546e+003,2.762431e-001
2.094403e+003,2.753012e-001
2.098260e+003,2.750905e-001
2.102117e+003,2.748991e-001
2.105975e+003,2.723065e-001
2.109832e+003,2.716323e-001
2.113689e+003,2.737459e-001
2.117546e+003,2.741707e-001
2.121403e+003,2.721035e-001
2.125260e+003,2.713250e-001
2.129117e+003,2.741063e-001
2.132974e+003,2.763055e-001
2.136831e+003,2.764030e-001
2.140688e+003,2.757517e-001
2.144545e+003,2.764700e-001
2.148403e+003,2.753621e-001
2.152260e+003,2.765834e-001
2.156117e+003,2.786762e-001
2.159974e+003,2.793985e-001
2.163831e+003,2.785229e-001
2.167688e+003,2.771254e-001
2.171545e+003,2.773161e-001
2.175402e+003,2.789054e-001
2.179259e+003,2.803350e-001
2.183116e+003,2.810614e-001
2.186974e+003,2.825487e-001
2.190831e+003,2.826596e-001
2.194688e+003,2.825866e-001
2.198545e+003,2.843148e-001
2.202402e+003,2.854530e-001
2.206259e+003,2.860384e-001
2.210116e+003,2.854136e-001
2.213973e+003,2.867070e-001
2.217830e+003,2.891856e-001
2.221688e+003,2.922297e-001
2.225544e+003,2.922983e-001
2.229402e+003,2.920537e-001
2.233259e+003,2.910868e-001
2.237116e+003,2.891577e-001
2.240973e+003,2.909875e-001
2.244830e+003,2.970566e-001
2.248687e+003,2.989862e-001
2.252544e+003,2.977175e-001
2.256401e+003,2.973302e-001
2.260258e+003,2.969294e-001
2.264115e+003,2.975281e-001
2.267973e+003,3.015514e-001
2.271830e+003,3.052495e-001
2.275687e+003,3.050686e-001
2.279544e+003,3.047183e-001
2.283401e+003,3.064863e-001
2.287258e+003,3.079540e-001
2.291115e+003,3.101223e-001
2.294972e+003,3.091349e-001
2.298829e+003,3.083092e-001
2.302687e+003,3.075550e-001
2.306543e+003,3.073758e-001
2.310401e+003,3.078438e-001
2.314258e+003,3.079284e-001
2.318115e+003,3.111101e-001
2.321972e+003,3.130785e-001
2.325829e+003,3.128870e-001
2.329686e+003,3.150352e-001
2.333543e+003,3.180556e-001
2.337400e+003,3.194927e-001
2.341257e+003,3.218490e-001
2.345115e+003,3.220564e-001
2.348972e+003,3.179137e-001
2.352829e+003,3.151381e-001
2.356686e+003,3.170512e-001
2.360543e+003,3.168705e-001
2.364400e+003,3.160691e-001
2.368257e+003,3.158882e-001
2.372114e+003,3.139170e-001
2.375971e+003,3.119448e-001
2.379828e+003,3.089111e-001
2.383686e+003,3.083791e-001
2.387542e+003,3.089321e-001
2.391400e+003,3.072948e-001
2.395257e+003,3.080249e-001
2.399114e+003,3.087631e-001
2.402971e+003,3.070378e-001
2.406828e+003,3.054531e-001
2.410685e+003,3.061790e-001
2.414542e+003,3.056171e-001
2.418399e+003,3.024515e-001
2.422256e+003,3.021528e-001
2.426114e+003,3.029717e-001
2.429971e+003,3.005898e-001
2.433828e+003,2.986103e-001
2.437685e+003,2.978531e-001
2.441542e+003,2.952768e-001
2.445399e+003,2.930069e-001
2.449256e+003,2.949418e-001
2.453113e+003,2.951435e-001
2.456970e+003,2.930889e-001
2.460827e+003,2.936123e-001
2.464684e+003,2.937027e-001
2.468542e+003,2.919317e-001
2.472399e+003,2.908688e-001
2.476256e+003,2.901407e-001
2.480113e+003,2.893667e-001
2.483970e+003,2.895382e-001
2.487827e+003,2.876328e-001
2.491684e+003,2.854588e-001
2.495541e+003,2.853841e-001
2.499398e+003,2.855375e-001
2.503255e+003,2.848101e-001
2.507113e+003,2.829809e-001
2.510969e+003,2.823907e-001
2.514827e+003,2.834440e-001
2.518684e+003,2.871790e-001
2.522541e+003,2.882062e-001
2.526398e+003,2.853501e-001
2.530255e+003,2.842829e-001
2.534112e+003,2.853018e-001
2.537969e+003,2.861959e-001
2.541826e+003,2.881751e-001
2.545683e+003,2.886946e-001
2.549541e+003,2.881038e-001
2.553398e+003,2.890276e-001
2.557255e+003,2.899145e-001
2.561112e+003,2.879122e-001
2.564969e+003,2.873051e-001
2.568826e+003,2.883333e-001
2.572683e+003,2.885836e-001
2.576540e+003,2.893370e-001
2.580397e+003,2.907431e-001
2.584254e+003,2.931167e-001
2.588112e+003,2.950234e-001
2.591969e+003,2.981690e-001
2.595826e+003,3.000802e-001
2.599683e+003,3.010721e-001
2.603540e+003,3.025098e-001
2.607397e+003,3.040471e-001
2.611254e+003,3.077569e-001
2.615111e+003,3.087483e-001
2.618968e+003,3.086039e-001
2.622825e+003,3.112449e-001
2.626682e+003,3.137005e-001
2.630540e+003,3.147672e-001
2.634397e+003,3.168238e-001
2.638254e+003,3.184208e-001
2.642111e+003,3.215379e-001
2.645968e+003,3.246444e-001
2.649825e+003,3.275259e-001
2.653682e+003,3.285403e-001
2.657539e+003,3.324973e-001
2.661396e+003,3.369760e-001
2.665253e+003,3.389340e-001
2.669111e+003,3.402574e-001
2.672968e+003,3.404259e-001
2.676825e+003,3.414569e-001
2.680682e+003,3.439720e-001
2.684539e+003,3.491285e-001
2.688396e+003,3.529664e-001
2.692253e+003,3.551117e-001
2.696110e+003,3.576539e-001
2.699967e+003,3.621592e-001
2.703824e+003,3.672228e-001
2.707681e+003,3.710939e-001
2.711539e+003,3.728309e-001
2.715396e+003,3.760003e-001
2.719253e+003,3.813964e-001
2.723110e+003,3.847592e-001
2.726967e+003,3.876002e-001
2.730824e+003,3.889382e-001
2.734681e+003,3.940228e-001
2.738538e+003,3.989949e-001
2.742395e+003,4.022691e-001
2.746252e+003,4.041494e-001
2.750110e+003,4.066085e-001
2.753967e+003,4.126211e-001
2.757824e+003,4.189249e-001
2.761681e+003,4.215335e-001
2.765538e+003,4.255538e-001
2.769395e+003,4.299873e-001
2.773252e+003,4.288951e-001
2.777109e+003,4.330767e-001
2.780966e+003,4.395798e-001
2.784823e+003,4.428537e-001
2.788680e+003,4.471369e-001
2.792538e+003,4.514138e-001
2.796395e+003,4.562072e-001
2.800252e+003,4.636447e-001
2.804109e+003,4.697529e-001
2.807966e+003,4.725406e-001
2.811823e+003,4.754129e-001
2.815680e+003,4.780931e-001
2.819537e+003,4.821143e-001
2.823394e+003,4.870406e-001
2.827251e+003,4.917490e-001
2.831109e+003,4.978827e-001
2.834966e+003,5.028297e-001
2.838823e+003,5.043719e-001
2.842680e+003,5.135164e-001
2.846537e+003,5.246344e-001
2.850394e+003,5.287175e-001
2.854251e+003,5.302127e-001
2.858108e+003,5.382592e-001
2.861965e+003,5.466607e-001
2.865823e+003,5.487707e-001
2.869679e+003,5.494285e-001
2.873537e+003,5.524241e-001
2.877394e+003,5.592290e-001
2.881251e+003,5.633289e-001
2.885108e+003,5.688098e-001
2.888965e+003,5.780922e-001
2.892822e+003,5.829807e-001
2.896679e+003,5.877531e-001
2.900536e+003,5.989812e-001
2.904393e+003,6.068048e-001
2.908250e+003,6.114030e-001
2.912108e+003,6.184816e-001
2.915965e+003,6.265231e-001
2.919822e+003,6.316553e-001
2.923679e+003,6.342607e-001
2.927536e+003,6.373051e-001
2.931393e+003,6.392822e-001
2.935250e+003,6.429808e-001
2.939107e+003,6.501545e-001
2.942964e+003,6.596194e-001
2.946822e+003,6.635711e-001
2.950678e+003,6.680567e-001
2.954536e+003,6.690703e-001
2.958393e+003,6.702629e-001
2.962250e+003,6.814219e-001
2.966107e+003,6.930316e-001
2.969964e+003,6.986970e-001
2.973821e+003,7.030104e-001
2.977678e+003,7.049951e-001
2.981535e+003,7.059170e-001
2.985392e+003,7.150654e-001
2.989250e+003,7.303008e-001
2.993107e+003,7.384298e-001
2.996964e+003,7.407252e-001
3.000821e+003,7.391079e-001
3.004678e+003,7.445374e-001
3.008535e+003,7.580584e-001
3.012392e+003,7.653629e-001
3.016249e+003,7.653309e-001
3.020106e+003,7.742616e-001
3.023963e+003,7.872862e-001
3.027821e+003,7.919941e-001
3.031677e+003,7.902300e-001
3.035535e+003,7.945880e-001
3.039392e+003,8.009604e-001
3.043249e+003,8.128762e-001
3.047106e+003,8.285593e-001
3.050963e+003,8.382429e-001
3.054820e+003,8.426321e-001
3.058677e+003,8.426884e-001
3.062534e+003,8.475520e-001
3.066391e+003,8.582417e-001
3.070249e+003,8.610789e-001
3.074106e+003,8.607970e-001
3.077963e+003,8.661327e-001
3.081820e+003,8.748593e-001
3.085677e+003,8.848926e-001
3.089534e+003,8.963138e-001
3.093391e+003,9.080549e-001
3.097248e+003,9.202455e-001
3.101105e+003,9.227234e-001
3.104962e+003,9.200938e-001
3.108820e+003,9.197334e-001
3.112677e+003,9.346259e-001
3.116534e+003,9.475495e-001
3.120391e+003,9.610205e-001
3.124248e+003,9.718249e-001
3.128105e+003,9.726817e-001
3.131962e+003,9.660340e-001
3.135819e+003,9.593151e-001
3.139676e+003,9.715803e-001
3.143533e+003,9.923386e-001
3.147390e+003,9.924446e-001
3.151248e+003,9.987947e-001
3.155105e+003,1.020720e+000
3.158962e+003,1.031206e+000
3.162819e+003,1.035773e+000
3.166676e+003,1.034538e+000
3.170533e+003,1.038615e+000
3.174390e+003,1.049004e+000
3.178247e+003,1.073937e+000
3.182104e+003,1.086018e+000
3.185961e+003,1.083008e+000
3.189819e+003,1.076836e+000
3.193676e+003,1.080964e+000
3.197533e+003,1.092144e+000
3.201390e+003,1.098500e+000
3.205247e+003,1.104377e+000
3.209104e+003,1.106463e+000
3.212961e+003,1.104540e+000
3.216818e+003,1.107145e+000
3.220675e+003,1.122407e+000
3.224532e+003,1.123752e+000
3.228389e+003,1.122788e+000
3.232247e+003,1.144838e+000
3.236104e+003,1.165884e+000
3.239961e+003,1.164746e+000
3.243818e+003,1.158331e+000
3.247675e+003,1.165113e+000
3.251532e+003,1.180449e+000
3.255389e+003,1.187355e+000
3.259246e+003,1.184261e+000
3.263103e+003,1.179356e+000
3.266960e+003,1.176451e+000
3.270818e+003,1.184297e+000
3.274675e+003,1.223786e+000
3.278532e+003,1.236578e+000
3.282389e+003,1.232126e+000
3.286246e+003,1.227809e+000
3.290103e+003,1.223812e+000
3.293960e+003,1.223569e+000
3.297817e+003,1.239425e+000
3.301674e+003,1.240236e+000
3.305531e+003,1.238181e+000
3.309388e+003,1.248013e+000
3.313246e+003,1.242791e+000
3.317103e+003,1.256066e+000
3.320960e+003,1.248957e+000
3.324817e+003,1.255322e+000
3.328674e+003,1.260951e+000
3.332531e+003,1.270287e+000
3.336388e+003,1.287805e+000
3.340245e+003,1.284759e+000
3.344102e+003,1.288732e+000
3.347959e+003,1.280262e+000
3.351817e+003,1.288719e+000
3.355674e+003,1.306545e+000
3.359531e+003,1.296760e+000
3.363388e+003,1.295938e+000
3.367245e+003,1.305886e+000
3.371102e+003,1.301552e+000
3.374959e+003,1.311869e+000
3.378816e+003,1.349473e+000
3.382673e+003,1.370648e+000
3.386530e+003,1.354616e+000
3.390387e+003,1.352384e+000
3.394245e+003,1.380837e+000
3.398102e+003,1.380826e+000
3.401959e+003,1.362650e+000
3.405816e+003,1.373210e+000
3.409673e+003,1.391414e+000
3.413530e+003,1.382330e+000
3.417387e+003,1.363044e+000
3.421244e+003,1.352265e+000
3.425101e+003,1.345248e+000
3.428958e+003,1.362115e+000
3.432815e+003,1.384762e+000
3.436673e+003,1.398662e+000
3.440530e+003,1.417664e+000
3.444387e+003,1.415858e+000
3.448244e+003,1.396107e+000
3.452101e+003,1.371654e+000
3.455958e+003,1.374550e+000
3.459815e+003,1.395960e+000
3.463672e+003,1.421740e+000
3.467529e+003,1.449421e+000
3.471386e+003,1.421817e+000
3.475244e+003,1.443880e+000
3.479101e+003,1.432664e+000
3.482958e+003,1.385348e+000
3.486815e+003,1.405598e+000
3.490672e+003,1.405517e+000
3.494529e+003,1.404725e+000
3.498386e+003,1.417386e+000
3.502243e+003,1.425712e+000
3.506100e+003,1.436392e+000
3.509958e+003,1.439865e+000
3.513814e+003,1.461083e+000
3.517672e+003,1.457782e+000
3.521529e+003,1.424866e+000
3.525386e+003,1.423368e+000
3.529243e+003,1.426474e+000
3.533100e+003,1.409998e+000
3.536957e+003,1.422698e+000
3.540814e+003,1.429597e+000
3.544671e+003,1.446576e+000
3.548528e+003,1.466748e+000
3.552385e+003,1.462782e+000
3.556243e+003,1.456498e+000
3.560100e+003,1.415078e+000
3.563957e+003,1.393268e+000
3.567814e+003,1.377130e+000
3.571671e+003,1.335543e+000
3.575528e+003,1.313352e+000
3.579385e+003,1.319997e+000
3.583242e+003,1.335813e+000
3.587099e+003,1.320485e+000
3.590957e+003,1.293270e+000
3.594813e+003,1.257534e+000
3.598671e+003,1.227582e+000
3.602528e+003,1.190454e+000
3.606385e+003,1.151347e+000
3.610242e+003,1.110093e+000
3.614099e+003,1.066203e+000
3.617956e+003,1.019084e+000
3.621813e+003,9.653180e-001
3.625670e+003,9.182415e-001
3.629527e+003,8.687069e-001
3.633385e+003,8.119866e-001
3.637242e+003,7.583277e-001
3.641099e+003,7.049489e-001
3.644956e+003,6.530704e-001
3.648813e+003,6.013595e-001
3.652670e+003,5.466580e-001
3.656527e+003,4.984497e-001
3.660384e+003,4.564124e-001
3.664241e+003,4.178891e-001
3.668098e+003,3.858591e-001
3.671956e+003,3.567326e-001
3.675813e+003,3.283496e-001
3.679670e+003,3.066479e-001
3.683527e+003,2.872358e-001
3.687384e+003,2.677976e-001
3.691241e+003,2.522801e-001
3.695098e+003,2.378559e-001
3.698955e+003,2.241991e-001
3.702812e+003,2.133484e-001
3.706669e+003,2.044122e-001
3.710526e+003,1.959129e-001
3.714384e+003,1.908377e-001
3.718241e+003,1.869202e-001
3.722098e+003,1.832421e-001
3.725955e+003,1.796637e-001
3.729812e+003,1.749891e-001
3.733669e+003,1.720150e-001
3.737526e+003,1.697126e-001
3.741383e+003,1.680926e-001
3.745240e+003,1.661727e-001
3.749097e+003,1.624750e-001
3.752955e+003,1.600341e-001
3.756812e+003,1.590669e-001
3.760669e+003,1.607312e-001
3.764526e+003,1.617403e-001
3.768383e+003,1.599939e-001
3.772240e+003,1.589248e-001
3.776097e+003,1.574813e-001
3.779954e+003,1.558469e-001
3.783811e+003,1.570156e-001
3.787668e+003,1.577239e-001
3.791525e+003,1.577099e-001
3.795383e+003,1.586385e-001
3.799240e+003,1.571656e-001
3.803097e+003,1.582208e-001
3.806954e+003,1.580266e-001
3.810811e+003,1.576929e-001
3.814668e+003,1.589294e-001
3.818525e+003,1.567364e-001
3.822382e+003,1.539292e-001
3.826239e+003,1.529485e-001
3.830096e+003,1.523703e-001
3.833954e+003,1.535748e-001
3.837811e+003,1.554968e-001
3.841668e+003,1.570854e-001
3.845525e+003,1.563651e-001
3.849382e+003,1.571546e-001
3.853239e+003,1.580473e-001
3.857096e+003,1.578893e-001
3.860953e+003,1.591863e-001
3.864810e+003,1.574625e-001
3.868667e+003,1.566244e-001
3.872524e+003,1.586266e-001
3.876382e+003,1.606250e-001
3.880239e+003,1.597853e-001
3.884096e+003,1.582129e-001
3.887953e+003,1.583254e-001
3.891810e+003,1.597673e-001
3.895667e+003,1.607954e-001
3.899524e+003,1.593610e-001
3.903381e+003,1.585515e-001
3.907238e+003,1.577866e-001
3.911095e+003,1.583585e-001
3.914953e+003,1.607627e-001
3.918810e+003,1.620745e-001
3.922667e+003,1.630780e-001
3.926524e+003,1.640312e-001
3.930381e+003,1.652728e-001
3.934238e+003,1.654083e-001
3.938095e+003,1.644544e-001
3.941952e+003,1.631790e-001
3.945809e+003,1.629122e-001
3.949667e+003,1.638628e-001
3.953523e+003,1.639076e-001
3.957381e+003,1.607198e-001
3.961238e+003,1.619789e-001
3.965095e+003,1.658430e-001
3.968952e+003,1.648992e-001
3.972809e+003,1.645273e-001
3.976666e+003,1.684819e-001
3.980523e+003,1.682919e-001
3.984380e+003,1.653890e-001
3.988237e+003,1.667939e-001
3.992094e+003,1.688517e-001
3.995952e+003,1.697212e-001
3.999809e+003,1.713410e-001
4.003666e+003,1.690698e-001
4.007523e+003,1.686589e-001
4.011380e+003,1.682585e-001
4.015237e+003,1.660726e-001
4.019094e+003,1.674631e-001
4.022951e+003,1.692895e-001
4.026808e+003,1.674520e-001
4.030666e+003,1.666702e-001
4.034522e+003,1.657590e-001
4.038380e+003,1.649525e-001
4.042237e+003,1.664125e-001
4.046094e+003,1.705652e-001
4.049951e+003,1.747221e-001
4.053808e+003,1.727995e-001
4.057665e+003,1.721771e-001
4.061522e+003,1.703992e-001
4.065379e+003,1.655551e-001
4.069236e+003,1.665039e-001
4.073094e+003,1.689236e-001
4.076951e+003,1.704713e-001
4.080808e+003,1.711075e-001
4.084665e+003,1.676873e-001
4.088522e+003,1.654261e-001
4.092379e+003,1.651517e-001
4.096236e+003,1.640528e-001
4.100093e+003,1.655460e-001
4.103950e+003,1.675319e-001
4.107808e+003,1.675181e-001
4.111665e+003,1.682857e-001
4.115521e+003,1.690110e-001
4.119379e+003,1.690200e-001
4.123236e+003,1.663803e-001
4.127093e+003,1.639947e-001
4.130950e+003,1.626762e-001
4.134807e+003,1.616209e-001
4.138664e+003,1.652736e-001
4.142521e+003,1.670793e-001
4.146378e+003,1.649871e-001
4.150235e+003,1.644691e-001
4.154093e+003,1.646690e-001
4.157950e+003,1.624760e-001
4.161807e+003,1.646317e-001
4.165664e+003,1.633618e-001
4.169521e+003,1.611745e-001
4.173378e+003,1.609646e-001
4.177235e+003,1.625160e-001
4.181092e+003,1.647618e-001
4.184949e+003,1.668428e-001
4.188807e+003,1.660127e-001
4.192664e+003,1.639715e-001
4.196521e+003,1.605805e-001
4.200378e+003,1.582131e-001
4.204235e+003,1.614052e-001
4.208092e+003,1.619233e-001
4.211949e+003,1.620027e-001
4.215806e+003,1.595733e-001
4.219663e+003,1.594077e-001
4.223521e+003,1.597052e-001
4.227377e+003,1.607515e-001
4.231234e+003,1.611219e-001
4.235092e+003,1.589110e-001
4.238949e+003,1.584142e-001
4.242806e+003,1.596446e-001
4.246663e+003,1.589838e-001
4.250520e+003,1.560615e-001
4.254377e+003,1.549052e-001
4.258234e+003,1.540720e-001
4.262091e+003,1.567912e-001
4.265948e+003,1.582529e-001
4.269806e+003,1.583130e-001
4.273663e+003,1.576955e-001
4.277520e+003,1.589516e-001
4.281377e+003,1.607984e-001
4.285234e+003,1.608389e-001
4.289091e+003,1.585637e-001
4.292948e+003,1.583228e-001
4.296805e+003,1.579465e-001
4.300662e+003,1.558917e-001
4.304520e+003,1.575298e-001
4.308376e+003,1.561145e-001
4.312233e+003,1.528096e-001
4.316091e+003,1.523440e-001
4.319948e+003,1.501098e-001
4.323805e+003,1.515011e-001
4.327662e+003,1.562729e-001
4.331519e+003,1.601227e-001
4.335376e+003,1.561423e-001
4.339233e+003,1.520325e-001
4.343090e+003,1.540035e-001
4.346947e+003,1.581492e-001
4.350805e+003,1.565466e-001
4.354662e+003,1.561344e-001
4.358519e+003,1.559965e-001
4.362376e+003,1.536062e-001
4.366233e+003,1.519033e-001
4.370090e+003,1.520702e-001
4.373947e+003,1.526840e-001
4.377804e+003,1.527031e-001
4.381661e+003,1.488948e-001
4.385519e+003,1.495147e-001
4.389375e+003,1.550709e-001
4.393232e+003,1.559110e-001
4.397090e+003,1.582080e-001
4.400947e+003,1.591777e-001
4.404804e+003,1.548074e-001
4.408661e+003,1.505603e-001
4.412518e+003,1.520250e-001
4.416375e+003,1.521965e-001
4.420232e+003,1.497604e-001
4.424089e+003,1.469767e-001
4.427946e+003,1.488118e-001
4.431804e+003,1.545891e-001
4.435661e+003,1.576429e-001
4.439518e+003,1.588166e-001
4.443375e+003,1.551404e-001
4.447232e+003,1.488138e-001
4.451089e+003,1.451560e-001
4.454946e+003,1.457822e-001
4.458803e+003,1.539342e-001
4.462660e+003,1.573566e-001
4.466518e+003,1.554585e-001
4.470375e+003,1.564707e-001
4.474231e+003,1.571177e-001
4.478089e+003,1.539168e-001
4.481946e+003,1.548990e-001
4.485803e+003,1.587250e-001
4.489660e+003,1.608417e-001
4.493517e+003,1.587336e-001
4.497375e+003,1.545935e-001
4.501231e+003,1.547013e-001
4.505088e+003,1.555164e-001
4.508946e+003,1.534063e-001
4.512803e+003,1.537077e-001
4.516660e+003,1.540957e-001
4.520517e+003,1.556711e-001
4.524374e+003,1.550044e-001
4.528231e+003,1.498925e-001
4.532088e+003,1.477144e-001
4.535945e+003,1.475521e-001
4.539802e+003,1.481358e-001
4.543660e+003,1.456917e-001
4.547517e+003,1.457509e-001
4.551374e+003,1.466786e-001
4.555231e+003,1.496624e-001
4.559088e+003,1.493538e-001
4.562945e+003,1.465496e-001
4.566802e+003,1.489639e-001
4.570659e+003,1.533748e-001
4.574516e+003,1.555640e-001
4.578374e+003,1.498887e-001
4.582230e+003,1.452580e-001
4.586087e+003,1.429525e-001
4.589945e+003,1.424445e-001
4.593802e+003,1.471287e-001
4.597659e+003,1.490108e-001
4.601516e+003,1.460378e-001
4.605373e+003,1.473826e-001
4.609230e+003,1.499504e-001
4.613087e+003,1.492219e-001
4.616944e+003,1.460270e-001
4.620801e+003,1.496242e-001
4.624659e+003,1.503043e-001
4.628516e+003,1.470117e-001
4.632373e+003,1.463030e-001
4.636230e+003,1.509896e-001
4.640087e+003,1.507212e-001
4.643944e+003,1.475785e-001
4.647801e+003,1.519117e-001
4.651658e+003,1.532012e-001
4.655515e+003,1.491540e-001
4.659373e+003,1.503047e-001
4.663229e+003,1.516410e-001
4.667086e+003,1.504180e-001
4.670944e+003,1.484279e-001
4.674801e+003,1.465523e-001
4.678658e+003,1.462715e-001
4.682515e+003,1.456504e-001
4.686372e+003,1.430752e-001
4.690229e+003,1.482021e-001
4.694086e+003,1.538614e-001
4.697943e+003,1.560375e-001
4.701800e+003,1.588515e-001
4.705658e+003,1.605117e-001
4.709515e+003,1.595759e-001
4.713372e+003,1.558108e-001
4.717229e+003,1.530132e-001
4.721086e+003,1.536790e-001
4.724943e+003,1.506644e-001
4.728800e+003,1.524319e-001
4.732657e+003,1.515139e-001
4.736514e+003,1.489728e-001
4.740372e+003,1.514302e-001
4.744229e+003,1.549905e-001
4.748085e+003,1.589953e-001
4.751943e+003,1.611027e-001
4.755800e+003,1.625693e-001
4.759657e+003,1.650989e-001
4.763514e+003,1.656344e-001
4.767371e+003,1.646267e-001
4.771228e+003,1.659898e-001
4.775085e+003,1.671443e-001
4.778942e+003,1.669691e-001
4.782799e+003,1.664483e-001
4.786657e+003,1.681448e-001
4.790514e+003,1.679370e-001
4.794371e+003,1.613739e-001
4.798228e+003,1.603784e-001
4.802085e+003,1.647353e-001
4.805942e+003,1.660559e-001
4.809799e+003,1.641028e-001
4.813656e+003,1.668250e-001
4.817513e+003,1.652189e-001
4.821371e+003,1.667728e-001
4.825228e+003,1.692340e-001
4.829084e+003,1.669637e-001
4.832942e+003,1.669086e-001
4.836799e+003,1.710279e-001
4.840656e+003,1.686114e-001
4.844513e+003,1.626774e-001
4.848370e+003,1.624619e-001
4.852227e+003,1.689075e-001
4.856084e+003,1.741243e-001
4.859941e+003,1.735227e-001
4.863798e+003,1.732773e-001
4.867656e+003,1.733309e-001
4.871513e+003,1.702699e-001
4.875370e+003,1.718028e-001
4.879227e+003,1.702875e-001
4.883084e+003,1.676612e-001
4.886941e+003,1.711354e-001
4.890798e+003,1.732358e-001
4.894655e+003,1.703945e-001
4.898512e+003,1.741776e-001
4.902370e+003,1.765706e-001
4.906227e+003,1.756759e-001
4.910083e+003,1.765893e-001
4.913941e+003,1.782155e-001
4.917798e+003,1.750471e-001
4.921655e+003,1.771465e-001
4.925512e+003,1.783016e-001
4.929369e+003,1.763773e-001
4.933226e+003,1.745376e-001
4.937083e+003,1.739595e-001
4.940940e+003,1.725792e-001
4.944797e+003,1.721704e-001
4.948655e+003,1.726704e-001
4.952512e+003,1.753026e-001
4.956369e+003,1.833088e-001
4.960226e+003,1.831503e-001
4.964083e+003,1.815475e-001
4.967940e+003,1.765516e-001
4.971797e+003,1.743703e-001
4.975654e+003,1.795413e-001
4.979511e+003,1.877273e-001
4.983369e+003,1.849234e-001
4.987226e+003,1.845921e-001
4.991083e+003,1.782942e-001
4.994940e+003,1.743310e-001
4.998797e+003,1.757949e-001
5.002654e+003,1.789185e-001
5.006511e+003,1.758869e-001
5.010368e+003,1.771960e-001
5.014225e+003,1.815302e-001
5.018083e+003,1.832752e-001
5.021939e+003,1.801160e-001
5.025796e+003,1.827078e-001
5.029654e+003,1.834971e-001
5.033511e+003,1.786352e-001
5.037368e+003,1.806844e-001
5.041225e+003,1.854675e-001
5.045082e+003,1.876507e-001
5.048939e+003,1.852191e-001
5.052796e+003,1.799088e-001
5.056653e+003,1.791388e-001
5.060510e+003,1.809677e-001
5.064368e+003,1.754146e-001
5.068225e+003,1.787038e-001
5.072082e+003,1.853081e-001
5.075939e+003,1.828012e-001
5.079796e+003,1.795921e-001
5.083653e+003,1.802584e-001
5.087510e+003,1.829539e-001
5.091367e+003,1.829187e-001
5.095224e+003,1.832089e-001
5.099082e+003,1.873981e-001
5.102938e+003,1.870755e-001
5.106795e+003,1.849153e-001
5.110653e+003,1.824521e-001
5.114510e+003,1.876589e-001
5.118367e+003,1.878932e-001
5.122224e+003,1.842027e-001
5.126081e+003,1.860971e-001
5.129938e+003,1.899721e-001
5.133795e+003,1.850980e-001
5.137652e+003,1.774615e-001
5.141509e+003,1.835589e-001
5.145367e+003,1.870141e-001
5.149224e+003,1.828128e-001
5.153081e+003,1.852075e-001
5.156938e+003,1.861014e-001
5.160795e+003,1.856729e-001
5.164652e+003,1.951700e-001
5.168509e+003,1.958753e-001
5.172366e+003,1.880306e-001
5.176223e+003,1.815166e-001
5.180081e+003,1.850754e-001
5.183938e+003,1.923909e-001
5.187794e+003,1.909319e-001
5.191652e+003,1.886814e-001
5.195509e+003,1.886023e-001
5.199366e+003,1.861741e-001
5.203223e+003,1.846666e-001
5.207080e+003,1.829911e-001
5.210937e+003,1.794694e-001
5.214794e+003,1.838422e-001
5.218651e+003,1.847136e-001
5.222508e+003,1.825624e-001
5.226366e+003,1.853217e-001
5.230223e+003,1.891101e-001
5.234080e+003,1.878584e-001
5.237937e+003,1.880644e-001
5.241794e+003,1.843099e-001
5.245651e+003,1.825620e-001
5.249508e+003,1.837103e-001
5.253365e+003,1.813844e-001
5.257222e+003,1.842884e-001
5.261080e+003,1.859801e-001
5.264937e+003,1.850152e-001
5.268793e+003,1.792520e-001
5.272651e+003,1.769744e-001
5.276508e+003,1.752109e-001
5.280365e+003,1.712259e-001
5.284222e+003,1.693689e-001
5.288079e+003,1.694585e-001
5.291936e+003,1.718504e-001
5.295793e+003,1.759127e-001
5.299650e+003,1.826681e-001
5.303507e+003,1.784262e-001
5.307365e+003,1.743792e-001
5.311222e+003,1.734492e-001
5.315079e+003,1.758994e-001
5.318936e+003,1.723121e-001
5.322793e+003,1.723524e-001
5.326650e+003,1.770268e-001
5.330507e+003,1.747870e-001
5.334364e+003,1.726192e-001
5.338221e+003,1.698443e-001
5.342079e+003,1.679067e-001
5.345936e+003,1.738966e-001
5.349792e+003,1.757425e-001
5.353650e+003,1.716809e-001
5.357507e+003,1.675559e-001
5.361364e+003,1.681907e-001
5.365221e+003,1.713022e-001
5.369078e+003,1.713111e-001
5.372935e+003,1.701957e-001
5.376792e+003,1.701979e-001
5.380649e+003,1.672214e-001
5.384506e+003,1.661591e-001
5.388364e+003,1.714924e-001
5.392221e+003,1.737887e-001
5.396078e+003,1.682217e-001
5.399935e+003,1.647186e-001
5.403792e+003,1.743032e-001
5.407649e+003,1.756349e-001
5.411506e+003,1.745790e-001
5.415363e+003,1.768646e-001
5.419220e+003,1.772608e-001
5.423078e+003,1.774578e-001
5.426935e+003,1.741866e-001
5.430792e+003,1.743206e-001
5.434649e+003,1.727404e-001
5.438506e+003,1.660658e-001
5.442363e+003,1.663619e-001
5.446220e+003,1.712236e-001
5.450077e+003,1.690666e-001
5.453934e+003,1.629184e-001
5.457792e+003,1.681714e-001
5.461648e+003,1.756335e-001
5.465505e+003,1.727146e-001
5.469363e+003,1.684395e-001
5.473220e+003,1.695303e-001
5.477077e+003,1.736005e-001
5.480934e+003,1.733532e-001
5.484791e+003,1.695240e-001
5.488648e+003,1.684769e-001
5.492505e+003,1.735874e-001
5.496362e+003,1.750122e-001
5.500219e+003,1.736222e-001
5.504077e+003,1.725757e-001
5.507934e+003,1.777302e-001
5.511791e+003,1.790112e-001
5.515648e+003,1.744036e-001
5.519505e+003,1.740545e-001
5.523362e+003,1.797978e-001
5.527219e+003,1.777784e-001
5.531076e+003,1.715854e-001
5.534933e+003,1.694946e-001
5.538791e+003,1.714129e-001
5.542647e+003,1.727566e-001
5.546504e+003,1.717593e-001
5.550362e+003,1.760964e-001
5.554219e+003,1.787766e-001
5.558076e+003,1.781152e-001
5.561933e+003,1.752962e-001
5.565790e+003,1.718426e-001
5.569647e+003,1.725647e-001
5.573504e+003,1.697621e-001
5.577361e+003,1.671719e-001
5.581218e+003,1.688213e-001
5.585076e+003,1.667981e-001
5.588933e+003,1.662506e-001
5.592790e+003,1.729387e-001
5.596647e+003,1.763611e-001
5.600504e+003,1.744035e-001
5.604361e+003,1.748887e-001
5.608218e+003,1.773798e-001
5.612075e+003,1.807337e-001
5.615932e+003,1.827458e-001
5.619790e+003,1.794747e-001
5.623646e+003,1.783391e-001
5.627503e+003,1.816466e-001
5.631361e+003,1.798152e-001
5.635218e+003,1.688529e-001
5.639075e+003,1.689169e-001
5.642932e+003,1.759556e-001
5.646789e+003,1.739736e-001
5.650646e+003,1.734354e-001
5.654503e+003,1.753811e-001
5.658360e+003,1.754849e-001
5.662217e+003,1.745368e-001
5.666075e+003,1.794861e-001
5.669932e+003,1.780558e-001
5.673789e+003,1.785517e-001
5.677646e+003,1.807335e-001
5.681503e+003,1.813215e-001
5.685360e+003,1.779455e-001
5.689217e+003,1.770076e-001
5.693074e+003,1.826249e-001
5.696931e+003,1.890236e-001
5.700789e+003,1.892629e-001
5.704646e+003,1.819694e-001
5.708502e+003,1.833186e-001
5.712360e+003,1.864519e-001
5.716217e+003,1.790213e-001
5.720074e+003,1.769006e-001
5.723931e+003,1.827220e-001
5.727788e+003,1.855849e-001
5.731645e+003,1.862161e-001
5.735502e+003,1.818819e-001
5.739359e+003,1.816666e-001
5.743216e+003,1.824680e-001
5.747074e+003,1.790809e-001
5.750931e+003,1.821789e-001
5.754788e+003,1.852356e-001
5.758645e+003,1.813512e-001
5.762502e+003,1.807503e-001
5.766359e+003,1.806585e-001
5.770216e+003,1.769166e-001
5.774073e+003,1.828631e-001
5.777930e+003,1.877905e-001
5.781788e+003,1.820310e-001
5.785645e+003,1.858971e-001
5.789501e+003,1.917892e-001
5.793359e+003,1.871321e-001
5.797216e+003,1.780747e-001
5.801073e+003,1.777861e-001
5.804930e+003,1.756553e-001
5.808787e+003,1.732905e-001
5.812644e+003,1.827798e-001
5.816501e+003,1.908096e-001
5.820358e+003,1.852772e-001
5.824215e+003,1.792208e-001
5.828073e+003,1.758902e-001
5.831930e+003,1.707278e-001
5.835787e+003,1.741466e-001
5.839644e+003,1.885552e-001
5.843501e+003,1.885878e-001
5.847358e+003,1.826753e-001
5.851215e+003,1.885749e-001
5.855072e+003,1.897682e-001
5.858929e+003,1.793381e-001
5.862787e+003,1.762868e-001
5.866644e+003,1.845234e-001
5.870500e+003,1.854562e-001
5.874358e+003,1.838896e-001
5.878215e+003,1.885769e-001
5.882072e+003,1.945652e-001
5.885929e+003,1.894353e-001
5.889786e+003,1.813375e-001
5.893643e+003,1.832213e-001
5.897500e+003,1.822787e-001
5.901357e+003,1.833151e-001
5.905214e+003,1.813660e-001
5.909072e+003,1.798987e-001
5.912929e+003,1.824681e-001
5.916786e+003,1.814302e-001
5.920643e+003,1.814951e-001
5.924500e+003,1.831743e-001
5.928357e+003,1.838720e-001
5.932214e+003,1.848613e-001
5.936071e+003,1.804249e-001
5.939928e+003,1.736399e-001
5.943786e+003,1.771087e-001
5.947643e+003,1.839274e-001
5.951500e+003,1.900129e-001
5.955357e+003,1.908163e-001
5.959214e+003,1.818664e-001
5.963071e+003,1.799869e-001
5.966928e+003,1.812572e-001
5.970785e+003,1.789246e-001
5.974642e+003,1.807983e-001
5.978500e+003,1.826816e-001
5.982356e+003,1.820615e-001
5.986213e+003,1.787385e-001
5.990071e+003,1.799756e-001
5.993928e+003,1.767431e-001
5.997785e+003,1.767048e-001
6.001642e+003,1.764455e-001
6.005499e+003,1.838765e-001
6.009356e+003,1.832664e-001
6.013213e+003,1.800399e-001
6.017070e+003,1.807720e-001
6.020927e+003,1.794871e-001
6.024785e+003,1.763237e-001
6.028642e+003,1.786165e-001
6.032499e+003,1.818363e-001
6.036356e+003,1.814186e-001
6.040213e+003,1.810965e-001
6.044070e+003,1.857719e-001
6.047927e+003,1.894701e-001
6.051784e+003,1.829482e-001
6.055641e+003,1.817590e-001
6.059499e+003,1.851529e-001
6.063355e+003,1.871290e-001
6.067212e+003,1.883081e-001
6.071070e+003,1.880989e-001
6.074927e+003,1.810356e-001
6.078784e+003,1.805856e-001
6.082641e+003,1.822347e-001
6.086498e+003,1.803449e-001
6.090355e+003,1.766909e-001
6.094212e+003,1.746663e-001
6.098069e+003,1.716297e-001
6.101926e+003,1.732166e-001
6.105784e+003,1.867252e-001
6.109641e+003,1.858588e-001
6.113498e+003,1.810440e-001
6.117355e+003,1.821129e-001
6.121212e+003,1.838768e-001
6.125069e+003,1.792351e-001
6.128926e+003,1.709618e-001
6.132783e+003,1.767026e-001
6.136640e+003,1.813140e-001
6.140498e+003,1.788604e-001
6.144354e+003,1.726251e-001
6.148211e+003,1.724528e-001
6.152069e+003,1.785762e-001
6.155926e+003,1.774685e-001
6.159783e+003,1.777355e-001
6.163640e+003,1.765788e-001
6.167497e+003,1.804523e-001
6.171354e+003,1.910266e-001
6.175211e+003,1.886247e-001
6.179068e+003,1.744554e-001
6.182925e+003,1.683622e-001
6.186783e+003,1.665469e-001
6.190640e+003,1.673992e-001
6.194497e+003,1.691376e-001
6.198354e+003,1.665294e-001
6.202211e+003,1.735404e-001
6.206068e+003,1.737916e-001
6.209925e+003,1.775582e-001
6.213782e+003,1.704311e-001
6.217639e+003,1.582929e-001
6.221497e+003,1.653798e-001
6.225354e+003,1.707795e-001
6.229210e+003,1.594317e-001
6.233068e+003,1.603731e-001
6.236925e+003,1.823011e-001
6.240782e+003,1.870835e-001
6.244639e+003,1.695980e-001
6.248496e+003,1.626793e-001
6.252353e+003,1.606383e-001
6.256210e+003,1.570222e-001
6.260067e+003,1.715541e-001
6.263924e+003,1.729311e-001
6.267782e+003,1.644385e-001
6.271639e+003,1.626705e-001
6.275496e+003,1.694651e-001
6.279353e+003,1.747968e-001
6.283210e+003,1.687852e-001
6.287067e+003,1.649545e-001
6.290924e+003,1.671267e-001
6.294781e+003,1.686814e-001
6.298638e+003,1.686489e-001
6.302496e+003,1.691281e-001
6.306353e+003,1.714886e-001
6.310209e+003,1.840081e-001
6.314067e+003,1.831234e-001
6.317924e+003,1.772818e-001
6.321781e+003,1.754544e-001
6.325638e+003,1.751556e-001
6.329495e+003,1.766802e-001
6.333352e+003,1.765846e-001
6.337209e+003,1.729364e-001
6.341066e+003,1.733672e-001
6.344923e+003,1.712313e-001
6.348780e+003,1.701716e-001
6.352638e+003,1.788132e-001
6.356495e+003,1.716732e-001
6.360352e+003,1.533100e-001
6.364209e+003,1.621943e-001
6.368066e+003,1.679705e-001
6.371923e+003,1.631281e-001
6.375780e+003,1.636861e-001
6.379637e+003,1.619429e-001
6.383494e+003,1.617377e-001
6.387352e+003,1.767550e-001
6.391208e+003,1.839636e-001
6.395065e+003,1.801878e-001
6.398923e+003,1.682988e-001
6.402780e+003,1.682251e-001
6.406637e+003,1.773689e-001
6.410494e+003,1.743120e-001
6.414351e+003,1.813952e-001
6.418208e+003,1.843960e-001
6.422065e+003,1.687902e-001
6.425922e+003,1.708708e-001
6.429779e+003,1.742461e-001
6.433637e+003,1.638303e-001
6.437494e+003,1.616928e-001
6.441351e+003,1.751616e-001
6.445208e+003,1.788685e-001
6.449065e+003,1.835441e-001
6.452922e+003,1.838639e-001
6.456779e+003,1.774202e-001
6.460636e+003,1.800777e-001
6.464493e+003,1.809257e-001
6.468351e+003,1.829029e-001
6.472208e+003,1.765612e-001
6.476064e+003,1.716614e-001
6.479922e+003,1.785282e-001
6.483779e+003,1.961038e-001
6.487636e+003,1.877737e-001
6.491493e+003,1.713165e-001
6.495350e+003,1.744913e-001
6.499207e+003,1.843702e-001
6.503064e+003,1.977246e-001
6.506921e+003,1.951344e-001
6.510778e+003,1.786290e-001
6.514636e+003,1.658480e-001
6.518493e+003,1.672031e-001
6.522350e+003,1.729639e-001
6.526207e+003,1.651755e-001
6.530064e+003,1.629404e-001
6.533921e+003,1.802507e-001
6.537778e+003,1.820586e-001
6.541635e+003,1.809546e-001
6.545492e+003,1.722974e-001
6.549350e+003,1.785632e-001
6.553207e+003,1.766405e-001
6.557063e+003,1.699210e-001
6.560921e+003,1.802120e-001
6.564778e+003,1.920087e-001
6.568635e+003,1.918999e-001
6.572492e+003,1.979584e-001
6.576349e+003,2.036633e-001
6.580206e+003,1.965055e-001
6.584063e+003,1.974664e-001
6.587920e+003,1.940193e-001
6.591777e+003,1.819912e-001
6.595635e+003,1.886121e-001
6.599492e+003,2.012980e-001
6.603349e+003,1.864539e-001
6.607206e+003,1.839642e-001
6.611063e+003,1.859110e-001
6.614920e+003,1.871053e-001
6.618777e+003,1.836796e-001
6.622634e+003,1.656181e-001
6.626491e+003,1.602551e-001
6.630349e+003,1.786869e-001
6.634206e+003,1.851753e-001
6.638063e+003,1.830376e-001
6.641920e+003,1.857543e-001
6.645777e+003,1.847864e-001
6.649634e+003,1.862644e-001
6.653491e+003,1.749953e-001
6.657348e+003,1.766375e-001
6.661205e+003,1.845111e-001
6.665063e+003,1.845810e-001
6.668919e+003,1.820497e-001
6.672776e+003,1.830405e-001
6.676634e+003,1.825604e-001
6.680491e+003,1.783553e-001
6.684348e+003,1.871101e-001
6.688205e+003,1.829553e-001
6.692062e+003,1.742286e-001
6.695919e+003,1.597417e-001
6.699776e+003,1.688982e-001
6.703633e+003,1.898056e-001
6.707490e+003,2.084823e-001
6.711348e+003,2.089131e-001
6.715205e+003,1.969365e-001
6.719062e+003,2.001337e-001
6.722919e+003,2.029967e-001
6.726776e+003,1.910287e-001
6.730633e+003,1.865527e-001
6.734490e+003,1.928211e-001
6.738347e+003,1.998306e-001
6.742204e+003,2.020978e-001
6.746062e+003,1.939745e-001
6.749918e+003,1.829743e-001
6.753775e+003,1.841186e-001
6.757633e+003,1.950162e-001
6.761490e+003,1.957652e-001
6.765347e+003,2.026022e-001
6.769204e+003,2.010642e-001
6.773061e+003,1.887162e-001
6.776918e+003,1.872995e-001
6.780775e+003,2.028124e-001
6.784632e+003,2.008252e-001
6.788489e+003,1.935363e-001
6.792347e+003,1.962053e-001
6.796204e+003,1.969841e-001
6.800061e+003,2.011920e-001
6.803918e+003,1.939345e-001
6.807775e+003,1.920298e-001
6.811632e+003,1.980495e-001
6.815489e+003,1.896928e-001
6.819346e+003,1.883541e-001
6.823203e+003,1.897866e-001
6.827061e+003,1.832057e-001
6.830917e+003,1.949085e-001
6.834774e+003,2.087613e-001
6.838632e+003,2.142297e-001
6.842489e+003,2.218742e-001
6.846346e+003,2.205511e-001
6.850203e+003,2.079507e-001
6.854060e+003,2.018629e-001
6.857917e+003,1.933100e-001
6.861774e+003,2.024877e-001
6.865631e+003,1.859901e-001
6.869488e+003,1.528198e-001
6.873346e+003,1.634377e-001
6.877203e+003,1.930664e-001
6.881060e+003,2.154067e-001
6.884917e+003,2.124459e-001
6.888774e+003,2.091072e-001
6.892631e+003,2.103486e-001
6.896488e+003,1.733253e-001
6.900345e+003,1.558047e-001
6.904202e+003,1.728837e-001
6.908060e+003,2.072290e-001
6.911917e+003,2.066363e-001
6.915773e+003,2.076358e-001
6.919631e+003,2.058269e-001
6.923488e+003,1.956819e-001
6.927345e+003,1.889160e-001
6.931202e+003,2.040121e-001
6.935059e+003,2.094127e-001
6.938916e+003,1.869677e-001
6.942773e+003,1.795529e-001
6.946630e+003,1.725715e-001
6.950487e+003,1.671641e-001
6.954345e+003,1.928806e-001
6.958202e+003,1.908837e-001
6.962059e+003,1.836281e-001
6.965916e+003,1.803177e-001
6.969773e+003,1.837724e-001
6.973630e+003,1.837655e-001
6.977487e+003,1.726205e-001
6.981344e+003,1.845476e-001
6.985201e+003,1.903921e-001
6.989059e+003,1.851476e-001
6.992916e+003,1.977357e-001
6.996772e+003,2.049604e-001
7.000630e+003,2.005249e-001
7.004487e+003,2.085884e-001
7.008344e+003,2.120474e-001
7.012201e+003,2.088431e-001
7.016058e+003,2.029363e-001
7.019915e+003,1.823737e-001
7.023772e+003,1.793453e-001
7.027629e+003,1.793726e-001
7.031486e+003,1.961948e-001
7.035344e+003,2.064432e-001
7.039201e+003,1.990388e-001
7.043058e+003,1.985676e-001
7.046915e+003,1.859550e-001
7.050772e+003,1.756009e-001
7.054629e+003,1.847311e-001
7.058486e+003,2.052120e-001
7.062343e+003,2.250868e-001
7.066200e+003,2.308103e-001
7.070058e+003,2.171163e-001
7.073915e+003,2.132607e-001
7.077771e+003,2.145799e-001
7.081629e+003,2.168125e-001
7.085486e+003,2.144038e-001
7.089343e+003,2.109346e-001
7.093200e+003,1.922513e-001
7.097057e+003,1.816667e-001
7.100914e+003,1.895695e-001
7.104771e+003,2.167404e-001
7.108628e+003,2.195053e-001
7.112485e+003,2.198769e-001
7.116343e+003,2.121727e-001
7.120200e+003,1.921193e-001
7.124057e+003,1.759269e-001
7.127914e+003,1.768537e-001
7.131771e+003,1.778525e-001
7.135628e+003,1.970298e-001
7.139485e+003,2.130049e-001
7.143342e+003,2.024260e-001
7.147199e+003,1.946893e-001
7.151057e+003,2.109159e-001
7.154914e+003,2.035685e-001
7.158771e+003,2.110891e-001
7.162628e+003,2.286184e-001
7.166485e+003,2.042915e-001
7.170342e+003,1.844070e-001
7.174199e+003,2.017088e-001
7.178056e+003,2.140011e-001
7.181913e+003,2.159311e-001
7.185771e+003,2.032523e-001
7.189627e+003,1.830431e-001
7.193484e+003,1.742108e-001
7.197342e+003,1.773041e-001
7.201199e+003,1.836727e-001
7.205056e+003,1.822099e-001
7.208913e+003,1.775109e-001
7.212770e+003,1.927325e-001
7.216627e+003,1.917245e-001
7.220484e+003,1.805113e-001
7.224341e+003,1.992762e-001
7.228198e+003,2.093518e-001
7.232056e+003,2.240794e-001
7.235913e+003,2.234940e-001
7.239770e+003,1.934078e-001
7.243627e+003,1.835828e-001
7.247484e+003,2.010302e-001
7.251341e+003,2.034928e-001
7.255198e+003,1.996850e-001
7.259055e+003,1.860276e-001
7.262912e+003,1.982807e-001
7.266770e+003,2.245016e-001
7.270626e+003,2.123067e-001
7.274483e+003,1.944763e-001
7.278341e+003,1.828659e-001
7.282198e+003,1.739604e-001
7.286055e+003,1.734589e-001
7.289912e+003,1.859444e-001
7.293769e+003,1.879805e-001
7.297626e+003,1.910752e-001
7.301483e+003,1.981022e-001
7.305340e+003,2.125238e-001
7.309197e+003,2.219405e-001
7.313055e+003,1.840411e-001
7.316912e+003,1.684927e-001
7.320769e+003,1.707480e-001
7.324626e+003,1.781055e-001
7.328483e+003,2.046081e-001
7.332340e+003,2.122541e-001
7.336197e+003,2.144576e-001
7.340054e+003,2.417378e-001
7.343911e+003,2.481588e-001
7.347769e+003,2.159185e-001
7.351625e+003,2.045500e-001
7.355482e+003,1.674560e-001
7.359340e+003,1.717222e-001
7.363197e+003,2.269965e-001
7.367054e+003,2.773064e-001
7.370911e+003,2.743915e-001
7.374768e+003,2.404114e-001
7.378625e+003,1.968036e-001
7.382482e+003,1.924711e-001
7.386339e+003,1.951974e-001
7.390196e+003,1.852341e-001
7.394054e+003,1.832916e-001
7.397911e+003,2.277718e-001
7.401768e+003,2.525682e-001
7.405625e+003,2.219563e-001
7.409482e+003,2.003120e-001
7.413339e+003,2.051003e-001
7.417196e+003,2.015657e-001
7.421053e+003,1.932887e-001
7.424910e+003,2.076018e-001
7.428768e+003,1.798671e-001
7.432625e+003,1.718045e-001
7.436481e+003,2.111478e-001
7.440339e+003,2.202852e-001
7.444196e+003,1.901761e-001
7.448053e+003,2.005727e-001
7.451910e+003,2.265875e-001
7.455767e+003,2.356495e-001
7.459624e+003,2.356862e-001
7.463481e+003,2.239641e-001
7.467338e+003,2.224893e-001
7.471195e+003,1.986043e-001
7.475053e+003,2.025342e-001
7.478910e+003,2.403617e-001
7.482767e+003,2.262041e-001
7.486624e+003,2.228745e-001
7.490481e+003,2.544462e-001
7.494338e+003,2.676979e-001
7.498195e+003,2.464116e-001
7.502052e+003,2.385435e-001
7.505909e+003,2.319994e-001
7.509767e+003,2.416170e-001
7.513624e+003,2.693602e-001
7.517480e+003,2.639765e-001
7.521338e+003,2.520278e-001
7.525195e+003,2.402856e-001
7.529052e+003,2.132891e-001
7.532909e+003,2.272027e-001
7.536766e+003,2.360765e-001
7.540623e+003,2.183104e-001
7.544480e+003,2.291411e-001
7.548337e+003,2.105802e-001
7.552194e+003,2.376775e-001
7.556052e+003,2.702043e-001
7.559909e+003,2.223306e-001
7.563766e+003,1.903974e-001
7.567623e+003,1.941462e-001
7.571480e+003,2.112070e-001
7.575337e+003,2.222642e-001
7.579194e+003,2.562824e-001
7.583051e+003,2.795729e-001
7.586908e+003,2.463068e-001
7.590766e+003,2.382622e-001
7.594623e+003,2.358141e-001
7.598479e+003,1.947257e-001
7.602337e+003,1.542534e-001
7.606194e+003,1.981099e-001
7.610051e+003,2.433554e-001
7.613908e+003,2.443316e-001
7.617765e+003,1.881396e-001
7.621622e+003,1.800379e-001
7.625479e+003,1.841651e-001
7.629336e+003,1.927073e-001
7.633193e+003,2.354110e-001
7.637051e+003,2.420897e-001
7.640908e+003,2.330887e-001
7.644765e+003,1.688198e-001
7.648622e+003,1.396982e-001
7.652479e+003,1.670499e-001
7.656336e+003,2.195659e-001
7.660193e+003,2.481423e-001
7.664050e+003,2.397375e-001
7.667907e+003,2.484745e-001
7.671765e+003,2.674208e-001
7.675622e+003,2.306752e-001
7.679479e+003,1.607772e-001
7.683336e+003,1.827411e-001
7.687193e+003,2.212391e-001
7.691050e+003,2.535540e-001
7.694907e+003,2.111871e-001
7.698764e+003,2.004849e-001
7.702621e+003,2.166449e-001
7.706479e+003,2.627063e-001
7.710335e+003,2.379785e-001
7.714192e+003,2.040165e-001
7.718050e+003,2.084013e-001
7.721907e+003,2.047903e-001
7.725764e+003,2.204087e-001
7.729621e+003,2.336634e-001
7.733478e+003,2.685424e-001
7.737335e+003,2.323993e-001
7.741192e+003,1.983908e-001
7.745049e+003,1.742631e-001
7.748906e+003,1.645647e-001
7.752764e+003,1.829366e-001
7.756621e+003,1.751537e-001
7.760478e+003,1.717806e-001
7.764335e+003,1.931001e-001
7.768192e+003,1.871859e-001
7.772049e+003,2.407303e-001
7.775906e+003,2.519188e-001
7.779763e+003,2.121544e-001
7.783620e+003,2.079132e-001
7.787478e+003,2.021260e-001
7.791334e+003,1.849855e-001
7.795191e+003,2.107907e-001
7.799049e+003,2.194298e-001
7.802906e+003,1.840652e-001
7.806763e+003,2.136080e-001
7.810620e+003,2.757985e-001
7.814477e+003,2.676918e-001
7.818334e+003,2.160975e-001
7.822191e+003,1.898757e-001
7.826048e+003,2.164784e-001
7.829905e+003,1.696086e-001
7.833763e+003,1.741904e-001
7.837620e+003,2.534606e-001
7.841477e+003,2.827118e-001
7.845334e+003,3.097121e-001
7.849191e+003,2.456040e-001
7.853048e+003,1.995476e-001
7.856905e+003,2.059364e-001
7.860762e+003,2.666087e-001
7.864619e+003,3.025074e-001
7.868477e+003,2.895931e-001
7.872333e+003,2.975956e-001
7.876190e+003,2.397026e-001
7.880048e+003,1.786847e-001
7.883905e+003,1.287166e-001
7.887762e+003,1.283909e-001
7.891619e+003,1.832134e-001
7.895476e+003,2.201587e-001
7.899333e+003,2.290106e-001
7.903190e+003,2.143082e-001
7.907047e+003,1.542658e-001
7.910904e+003,1.359142e-001
7.914762e+003,7.415362e-002
7.918619e+003,4.824890e-002
7.922476e+003,1.416127e-001
7.926333e+003,2.276120e-001
7.930190e+003,2.426346e-001
7.934047e+003,2.251886e-001
7.937904e+003,2.255042e-001
7.941761e+003,2.697898e-001
7.945618e+003,3.057181e-001
7.949476e+003,3.463480e-001
7.953333e+003,2.705251e-001
7.957189e+003,2.527633e-001
7.961047e+003,2.358315e-001
7.964904e+003,2.342643e-001
7.968761e+003,2.568459e-001
7.972618e+003,2.856481e-001
7.976475e+003,1.868261e-001
7.980332e+003,1.198619e-001
7.984189e+003,2.252193e-001
7.988046e+003,2.475055e-001
7.991903e+003,2.334588e-001
7.995761e+003,2.613451e-001
7.999618e+003,2.108143e-001
