4.011380e+002,6.666819e-001
4.049951e+002,1.303191e-001
4.088522e+002,6.000000e+000
4.127093e+002,-5.064333e-001
4.165664e+002,6.897779e-001
4.204235e+002,1.480182e+000
4.242806e+002,6.000000e+000
4.281377e+002,6.000000e+000
4.319948e+002,6.000000e+000
4.358519e+002,6.000000e+000
4.397090e+002,6.000000e+000
4.435661e+002,-5.564590e-001
4.474232e+002,6.000000e+000
4.512803e+002,6.000000e+000
4.551374e+002,6.000000e+000
4.589945e+002,6.000000e+000
4.628516e+002,-1.515780e+000
4.667087e+002,6.000000e+000
4.705658e+002,-3.177569e-001
4.744229e+002,-4.417054e-001
4.782800e+002,6.000000e+000
4.821371e+002,6.262586e-001
4.859941e+002,6.000000e+000
4.898513e+002,6.000000e+000
4.937083e+002,1.276300e+000
4.975654e+002,6.000000e+000
5.014225e+002,6.206236e-001
5.052796e+002,6.303912e-001
5.091367e+002,6.000000e+000
5.129938e+002,1.087800e+000
5.168509e+002,-2.729223e-001
5.207080e+002,-4.512617e-001
5.245651e+002,7.636075e-002
5.284222e+002,-1.830422e-001
5.322793e+002,6.000000e+000
5.361364e+002,6.000000e+000
5.399935e+002,1.481117e-005
5.438506e+002,6.000000e+000
5.477077e+002,6.000000e+000
5.515648e+002,6.000000e+000
5.554219e+002,6.000000e+000
5.592790e+002,3.992028e-001
5.631361e+002,6.464369e-002
5.669932e+002,-5.989846e-002
5.708503e+002,5.366085e-001
5.747074e+002,6.000000e+000
5.785645e+002,6.000000e+000
5.824216e+002,-3.769415e-001
5.862787e+002,6.000000e+000
5.901357e+002,6.000000e+000
5.939929e+002,6.000000e+000
5.978499e+002,6.000000e+000
6.017070e+002,-3.848794e-001
6.055641e+002,6.000000e+000
6.094212e+002,3.396958e-001
6.132783e+002,-2.569480e-002
6.171354e+002,6.000000e+000
6.209925e+002,1.578762e+000
6.248496e+002,5.030612e-001
6.287067e+002,6.000000e+000
6.325638e+002,6.000000e+000
6.364209e+002,6.000000e+000
6.402780e+002,6.000000e+000
6.441351e+002,9.796433e-001
6.479922e+002,1.067164e+000
6.518493e+002,6.000000e+000
6.557064e+002,-1.814791e-001
6.595635e+002,-1.042954e+000
6.634205e+002,1.643102e+000
6.672777e+002,3.831970e-001
6.711348e+002,-4.565811e-001
6.749918e+002,6.000000e+000
6.788490e+002,-1.251435e-001
6.827061e+002,-3.190055e-001
6.865631e+002,6.000000e+000
6.904203e+002,6.000000e+000
6.942773e+002,6.000000e+000
6.981344e+002,9.836183e-001
7.019916e+002,-7.546245e-002
7.058486e+002,6.000000e+000
7.097057e+002,6.000000e+000
7.135629e+002,6.000000e+000
7.174199e+002,8.069233e-001
7.212770e+002,-4.520364e-001
7.251342e+002,6.000000e+000
7.289912e+002,-8.204123e-001
7.328483e+002,-1.919255e-001
7.367054e+002,6.000000e+000
7.405625e+002,6.000000e+000
7.444196e+002,1.781163e-001
7.482767e+002,6.000000e+000
7.521338e+002,6.250263e-001
7.559908e+002,1.518575e-001
7.598480e+002,-1.004383e+000
7.637051e+002,6.000000e+000
7.675621e+002,6.000000e+000
7.714193e+002,6.000000e+000
7.752764e+002,6.000000e+000
7.791334e+002,6.000000e+000
7.829905e+002,-2.372708e-001
7.868477e+002,-5.790151e-002
7.907047e+002,-3.919331e-001
7.945618e+002,1.280514e-002
7.984189e+002,-7.524779e-002
8.022760e+002,-1.216628e+000
8.061331e+002,6.000000e+000
8.099902e+002,6.000000e+000
8.138473e+002,4.772889e-001
8.177044e+002,6.000000e+000
8.215615e+002,9.399063e-001
8.254186e+002,1.135102e+000
8.292757e+002,6.000000e+000
8.331328e+002,6.000000e+000
8.369899e+002,1.006985e+000
8.408470e+002,6.000000e+000
8.447041e+002,6.000000e+000
8.485612e+002,6.000000e+000
8.524183e+002,8.281559e-001
8.562754e+002,6.835958e-001
8.601324e+002,7.114532e-001
8.639896e+002,1.485333e+000
8.678467e+002,6.000000e+000
8.717037e+002,6.000000e+000
8.755609e+002,2.613887e+000
8.794180e+002,6.000000e+000
8.832750e+002,6.000000e+000
8.871321e+002,1.301746e+000
8.909893e+002,8.744025e-001
8.948463e+002,1.261711e+000
8.987034e+002,1.855376e+000
9.025605e+002,1.222473e+000
9.064176e+002,7.560063e-001
9.102747e+002,6.659034e-001
9.141318e+002,1.047910e+000
9.179889e+002,9.370432e-001
9.218461e+002,6.098406e-001
9.257031e+002,6.893370e-001
9.295602e+002,9.935271e-001
9.334174e+002,8.892182e-001
9.372744e+002,1.138427e+000
9.411315e+002,1.286429e+000
9.449886e+002,8.624337e-001
9.488457e+002,7.820510e-001
9.527028e+002,8.844650e-001
9.565599e+002,9.749767e-001
9.604170e+002,1.043193e+000
9.642740e+002,1.179900e+000
9.681312e+002,1.190485e+000
9.719883e+002,9.752162e-001
9.758453e+002,7.730466e-001
9.797025e+002,7.660459e-001
9.835596e+002,9.735859e-001
9.874166e+002,1.048183e+000
9.912738e+002,8.216619e-001
9.951309e+002,8.558764e-001
9.989879e+002,9.294534e-001
1.002845e+003,9.541202e-001
1.006702e+003,9.563422e-001
1.010559e+003,9.231804e-001
1.014416e+003,9.046761e-001
1.018273e+003,1.044475e+000
1.022130e+003,1.042033e+000
1.025988e+003,9.039195e-001
1.029845e+003,8.829947e-001
1.033702e+003,9.971543e-001
1.037559e+003,1.004900e+000
1.041416e+003,9.752609e-001
1.045273e+003,9.619863e-001
1.049130e+003,9.539578e-001
1.052987e+003,9.311966e-001
1.056844e+003,9.570457e-001
1.060702e+003,1.044855e+000
1.064559e+003,9.377444e-001
1.068416e+003,8.743098e-001
1.072273e+003,8.560894e-001
1.076130e+003,8.178573e-001
1.079987e+003,8.930294e-001
1.083844e+003,9.583195e-001
1.087701e+003,8.485569e-001
1.091558e+003,7.851767e-001
1.095415e+003,8.392987e-001
1.099272e+003,8.651835e-001
1.103130e+003,8.478265e-001
1.106987e+003,9.419014e-001
1.110844e+003,9.672126e-001
1.114701e+003,8.982569e-001
1.118558e+003,8.680770e-001
1.122415e+003,8.713863e-001
1.126272e+003,9.100131e-001
1.130129e+003,9.593247e-001
1.133986e+003,9.425448e-001
1.137843e+003,8.598641e-001
1.141701e+003,8.544886e-001
1.145558e+003,8.733467e-001
1.149415e+003,8.724944e-001
1.153272e+003,8.627116e-001
1.157129e+003,8.439416e-001
1.160986e+003,8.205657e-001
1.164843e+003,7.993131e-001
1.168700e+003,8.291659e-001
1.172557e+003,8.927974e-001
1.176414e+003,9.387949e-001
1.180271e+003,8.587711e-001
1.184129e+003,8.226166e-001
1.187986e+003,8.691013e-001
1.191843e+003,8.810524e-001
1.195700e+003,8.132383e-001
1.199557e+003,7.452677e-001
1.203414e+003,7.339413e-001
1.207271e+003,7.527732e-001
1.211128e+003,7.335504e-001
1.214985e+003,7.100474e-001
1.218842e+003,6.816915e-001
1.222699e+003,6.519832e-001
1.226557e+003,6.379976e-001
1.230414e+003,6.509424e-001
1.234271e+003,6.283699e-001
1.238128e+003,6.314927e-001
1.241985e+003,6.526724e-001
1.245842e+003,6.506031e-001
1.249699e+003,6.933107e-001
1.253556e+003,7.184963e-001
1.257413e+003,7.085651e-001
1.261271e+003,7.422156e-001
1.265128e+003,7.309643e-001
1.268985e+003,6.500094e-001
1.272842e+003,6.171902e-001
1.276699e+003,6.187291e-001
1.280556e+003,6.030537e-001
1.284413e+003,5.793497e-001
1.288270e+003,5.599676e-001
1.292127e+003,5.349611e-001
1.295984e+003,5.212683e-001
1.299841e+003,4.940504e-001
1.303698e+003,4.730271e-001
1.307556e+003,4.717175e-001
1.311413e+003,4.675100e-001
1.315270e+003,4.515224e-001
1.319127e+003,4.463587e-001
1.322984e+003,4.434317e-001
1.326841e+003,4.407710e-001
1.330698e+003,4.334679e-001
1.334555e+003,4.259193e-001
1.338412e+003,4.270057e-001
1.342270e+003,4.382689e-001
1.346127e+003,4.402832e-001
1.349984e+003,4.272791e-001
1.353841e+003,4.354397e-001
1.357698e+003,4.419806e-001
1.361555e+003,4.565067e-001
1.365412e+003,4.634654e-001
1.369269e+003,4.658221e-001
1.373126e+003,4.809999e-001
1.376983e+003,4.955660e-001
1.380840e+003,4.874766e-001
1.384698e+003,4.996067e-001
1.388555e+003,5.294884e-001
1.392412e+003,5.603803e-001
1.396269e+003,5.648557e-001
1.400126e+003,5.761641e-001
1.403983e+003,6.100537e-001
1.407840e+003,6.238329e-001
1.411697e+003,6.203138e-001
1.415554e+003,6.157442e-001
1.419411e+003,6.328623e-001
1.423269e+003,6.424673e-001
1.427126e+003,6.613559e-001
1.430983e+003,6.785951e-001
1.434840e+003,6.596965e-001
1.438697e+003,6.449513e-001
1.442554e+003,6.368120e-001
1.446411e+003,6.529965e-001
1.450268e+003,6.672559e-001
1.454125e+003,6.470168e-001
1.457982e+003,6.507317e-001
1.461839e+003,6.529792e-001
1.465697e+003,6.317651e-001
1.469554e+003,6.211593e-001
1.473411e+003,6.308907e-001
1.477268e+003,6.326313e-001
1.481125e+003,6.307231e-001
1.484982e+003,6.391872e-001
1.488839e+003,6.698411e-001
1.492696e+003,6.755507e-001
1.496553e+003,6.760656e-001
1.500411e+003,6.605899e-001
1.504268e+003,6.568049e-001
1.508125e+003,6.723553e-001
1.511982e+003,6.626164e-001
1.515839e+003,6.474537e-001
1.519696e+003,6.410276e-001
1.523553e+003,6.347861e-001
1.527410e+003,6.215766e-001
1.531267e+003,5.997928e-001
1.535124e+003,5.941510e-001
1.538981e+003,5.828013e-001
1.542839e+003,5.665516e-001
1.546696e+003,5.400305e-001
1.550553e+003,5.436152e-001
1.554410e+003,5.556324e-001
1.558267e+003,5.428714e-001
1.562124e+003,5.298709e-001
1.565981e+003,5.078129e-001
1.569838e+003,4.894895e-001
1.573695e+003,4.814681e-001
1.577552e+003,4.811887e-001
1.581410e+003,4.888674e-001
1.585267e+003,5.024923e-001
1.589124e+003,5.005336e-001
1.592981e+003,4.920860e-001
1.596838e+003,4.930402e-001
1.600695e+003,4.990300e-001
1.604552e+003,5.056859e-001
1.608409e+003,5.041710e-001
1.612266e+003,5.090671e-001
1.616123e+003,5.302047e-001
1.619980e+003,5.476083e-001
1.623838e+003,5.557472e-001
1.627695e+003,5.661981e-001
1.631552e+003,5.774685e-001
1.635409e+003,5.876330e-001
1.639266e+003,5.826760e-001
1.643123e+003,5.865261e-001
1.646980e+003,5.872465e-001
1.650837e+003,5.697307e-001
1.654694e+003,5.501735e-001
1.658551e+003,5.285534e-001
1.662409e+003,5.056204e-001
1.666266e+003,4.970922e-001
1.670123e+003,4.926730e-001
1.673980e+003,4.830772e-001
1.677837e+003,4.777485e-001
1.681694e+003,4.677821e-001
1.685551e+003,4.529400e-001
1.689408e+003,4.365771e-001
1.693265e+003,4.215822e-001
1.697122e+003,4.106807e-001
1.700979e+003,4.172330e-001
1.704837e+003,4.253756e-001
1.708694e+003,4.183095e-001
1.712551e+003,4.076563e-001
1.716408e+003,4.075051e-001
1.720265e+003,4.076156e-001
1.724122e+003,4.050553e-001
1.727979e+003,4.077176e-001
1.731836e+003,4.060242e-001
1.735693e+003,4.027724e-001
1.739550e+003,4.084258e-001
1.743408e+003,4.120339e-001
1.747265e+003,4.063117e-001
1.751122e+003,4.012095e-001
1.754979e+003,4.051240e-001
1.758836e+003,4.089491e-001
1.762693e+003,4.096032e-001
1.766550e+003,4.217754e-001
1.770407e+003,4.242136e-001
1.774264e+003,4.182258e-001
1.778121e+003,4.183394e-001
1.781979e+003,4.268773e-001
1.785836e+003,4.250185e-001
1.789693e+003,4.189310e-001
1.793550e+003,4.219744e-001
1.797407e+003,4.262471e-001
1.801264e+003,4.253854e-001
1.805121e+003,4.259022e-001
1.808978e+003,4.190631e-001
1.812835e+003,4.215953e-001
1.816692e+003,4.282666e-001
1.820549e+003,4.253744e-001
1.824407e+003,4.256761e-001
1.828264e+003,4.316027e-001
1.832121e+003,4.297381e-001
1.835978e+003,4.286751e-001
1.839835e+003,4.420902e-001
1.843692e+003,4.478347e-001
1.847549e+003,4.463977e-001
1.851406e+003,4.428773e-001
1.855263e+003,4.453845e-001
1.859120e+003,4.470970e-001
1.862978e+003,4.434671e-001
1.866835e+003,4.421249e-001
1.870692e+003,4.469878e-001
1.874549e+003,4.470359e-001
1.878406e+003,4.441025e-001
1.882263e+003,4.390087e-001
1.886120e+003,4.403709e-001
1.889977e+003,4.553903e-001
1.893834e+003,4.591919e-001
1.897691e+003,4.500186e-001
1.901548e+003,4.445359e-001
1.905406e+003,4.434990e-001
1.909263e+003,4.394691e-001
1.913120e+003,4.378323e-001
1.916977e+003,4.398101e-001
1.920834e+003,4.433028e-001
1.924691e+003,4.420094e-001
1.928548e+003,4.395190e-001
1.932405e+003,4.433697e-001
1.936262e+003,4.404430e-001
1.940119e+003,4.331415e-001
1.943977e+003,4.358344e-001
1.947834e+003,4.401235e-001
1.951691e+003,4.299374e-001
1.955548e+003,4.359595e-001
1.959405e+003,4.448557e-001
1.963262e+003,4.375563e-001
1.967119e+003,4.316689e-001
1.970976e+003,4.291265e-001
1.974833e+003,4.220764e-001
1.978690e+003,4.163224e-001
1.982547e+003,4.160406e-001
1.986405e+003,4.167588e-001
1.990262e+003,4.160066e-001
1.994119e+003,4.139906e-001
1.997976e+003,4.178884e-001
2.001833e+003,4.176540e-001
2.005690e+003,4.102577e-001
2.009547e+003,4.051266e-001
2.013404e+003,4.124584e-001
2.017261e+003,4.164466e-001
2.021118e+003,3.996847e-001
2.024976e+003,3.872408e-001
2.028833e+003,3.898436e-001
2.032690e+003,3.940495e-001
2.036547e+003,3.969172e-001
2.040404e+003,4.031444e-001
2.044261e+003,4.021308e-001
2.048118e+003,3.935527e-001
2.051975e+003,3.876462e-001
2.055832e+003,3.873429e-001
2.059689e+003,3.870362e-001
2.063546e+003,3.888477e-001
2.067404e+003,3.894001e-001
2.071261e+003,3.838277e-001
2.075118e+003,3.801227e-001
2.078975e+003,3.792711e-001
2.082832e+003,3.744123e-001
2.086689e+003,3.696796e-001
2.090546e+003,3.787936e-001
2.094403e+003,3.871243e-001
2.098260e+003,3.763114e-001
2.102117e+003,3.674381e-001
2.105975e+003,3.674729e-001
2.109832e+003,3.600401e-001
2.113689e+003,3.594907e-001
2.117546e+003,3.643815e-001
2.121403e+003,3.619670e-001
2.125260e+003,3.595936e-001
2.129117e+003,3.611250e-001
2.132974e+003,3.641607e-001
2.136831e+003,3.638307e-001
2.140688e+003,3.553378e-001
2.144545e+003,3.560409e-001
2.148403e+003,3.609613e-001
2.152260e+003,3.583586e-001
2.156117e+003,3.596019e-001
2.159974e+003,3.614316e-001
2.163831e+003,3.554271e-001
2.167688e+003,3.536605e-001
2.171545e+003,3.552395e-001
2.175402e+003,3.561900e-001
2.179259e+003,3.587103e-001
2.183116e+003,3.588458e-001
2.186974e+003,3.559432e-001
2.190831e+003,3.560217e-001
2.194688e+003,3.563025e-001
2.198545e+003,3.571690e-001
2.202402e+003,3.573151e-001
2.206259e+003,3.575937e-001
2.210116e+003,3.557162e-001
2.213973e+003,3.487469e-001
2.217830e+003,3.477665e-001
2.221688e+003,3.491616e-001
2.225544e+003,3.544694e-001
2.229402e+003,3.540698e-001
2.233259e+003,3.495821e-001
2.237116e+003,3.515599e-001
2.240973e+003,3.551218e-001
2.244830e+003,3.556243e-001
2.248687e+003,3.524652e-001
2.252544e+003,3.471180e-001
2.256401e+003,3.517717e-001
2.260258e+003,3.577719e-001
2.264115e+003,3.601494e-001
2.267973e+003,3.606645e-001
2.271830e+003,3.598389e-001
2.275687e+003,3.566001e-001
2.279544e+003,3.569093e-001
2.283401e+003,3.676187e-001
2.287258e+003,3.752600e-001
2.291115e+003,3.709849e-001
2.294972e+003,3.689987e-001
2.298829e+003,3.779103e-001
2.302687e+003,3.852360e-001
2.306543e+003,3.835340e-001
2.310401e+003,3.846068e-001
2.314258e+003,3.863682e-001
2.318115e+003,3.831058e-001
2.321972e+003,3.834392e-001
2.325829e+003,3.895051e-001
2.329686e+003,3.869378e-001
2.333543e+003,3.830673e-001
2.337400e+003,3.863496e-001
2.341257e+003,3.928297e-001
2.345115e+003,3.979690e-001
2.348972e+003,3.940907e-001
2.352829e+003,3.959431e-001
2.356686e+003,3.865047e-001
2.360543e+003,3.863556e-001
2.364400e+003,3.905036e-001
2.368257e+003,3.945816e-001
2.372114e+003,3.880068e-001
2.375971e+003,3.884380e-001
2.379828e+003,3.871463e-001
2.383686e+003,3.901334e-001
2.387542e+003,3.959948e-001
2.391400e+003,3.993022e-001
2.395257e+003,3.987176e-001
2.399114e+003,3.913627e-001
2.402971e+003,3.866468e-001
2.406828e+003,3.851692e-001
2.410685e+003,3.888307e-001
2.414542e+003,3.951708e-001
2.418399e+003,3.923143e-001
2.422256e+003,3.902256e-001
2.426114e+003,3.920390e-001
2.429971e+003,3.946133e-001
2.433828e+003,4.005686e-001
2.437685e+003,4.010487e-001
2.441542e+003,3.962779e-001
2.445399e+003,3.910774e-001
2.449256e+003,3.915951e-001
2.453113e+003,3.908165e-001
2.456970e+003,3.934784e-001
2.460827e+003,3.930290e-001
2.464684e+003,3.891053e-001
2.468542e+003,3.837612e-001
2.472399e+003,3.828833e-001
2.476256e+003,3.786364e-001
2.480113e+003,3.830732e-001
2.483970e+003,3.873230e-001
2.487827e+003,3.866967e-001
2.491684e+003,3.906291e-001
2.495541e+003,3.907430e-001
2.499398e+003,3.886795e-001
2.503255e+003,3.960468e-001
2.507113e+003,4.009598e-001
2.510969e+003,3.988107e-001
2.514827e+003,3.956259e-001
2.518684e+003,3.874581e-001
2.522541e+003,3.893591e-001
2.526398e+003,3.933695e-001
2.530255e+003,3.935348e-001
2.534112e+003,3.986232e-001
2.537969e+003,3.996657e-001
2.541826e+003,3.945135e-001
2.545683e+003,3.942245e-001
2.549541e+003,3.947064e-001
2.553398e+003,3.964749e-001
2.557255e+003,3.937616e-001
2.561112e+003,3.912890e-001
2.564969e+003,3.955594e-001
2.568826e+003,3.932846e-001
2.572683e+003,3.910739e-001
2.576540e+003,3.965764e-001
2.580397e+003,3.979522e-001
2.584254e+003,3.969110e-001
2.588112e+003,4.046284e-001
2.591969e+003,4.054835e-001
2.595826e+003,4.083867e-001
2.599683e+003,4.071073e-001
2.603540e+003,3.993550e-001
2.607397e+003,3.962331e-001
2.611254e+003,3.975553e-001
2.615111e+003,3.943908e-001
2.618968e+003,3.988254e-001
2.622825e+003,4.015152e-001
2.626682e+003,4.033141e-001
2.630540e+003,4.066054e-001
2.634397e+003,4.047724e-001
2.638254e+003,3.952583e-001
2.642111e+003,3.931648e-001
2.645968e+003,3.965319e-001
2.649825e+003,3.993269e-001
2.653682e+003,4.049431e-001
2.657539e+003,4.102771e-001
2.661396e+003,4.106238e-001
2.665253e+003,4.095550e-001
2.669111e+003,4.139456e-001
2.672968e+003,4.181651e-001
2.676825e+003,4.094771e-001
2.680682e+003,4.030116e-001
2.684539e+003,4.069524e-001
2.688396e+003,4.101970e-001
2.692253e+003,4.139841e-001
2.696110e+003,4.190487e-001
2.699967e+003,4.190843e-001
2.703824e+003,4.168705e-001
2.707681e+003,4.105504e-001
2.711539e+003,4.126866e-001
2.715396e+003,4.127657e-001
2.719253e+003,4.143850e-001
2.723110e+003,4.197982e-001
2.726967e+003,4.237798e-001
2.730824e+003,4.277677e-001
2.734681e+003,4.223096e-001
2.738538e+003,4.259270e-001
2.742395e+003,4.289311e-001
2.746252e+003,4.300396e-001
2.750110e+003,4.324363e-001
2.753967e+003,4.306922e-001
2.757824e+003,4.279580e-001
2.761681e+003,4.285257e-001
2.765538e+003,4.308766e-001
2.769395e+003,4.285382e-001
2.773252e+003,4.319440e-001
2.777109e+003,4.335062e-001
2.780966e+003,4.355401e-001
2.784823e+003,4.399811e-001
2.788680e+003,4.408357e-001
2.792538e+003,4.421129e-001
2.796395e+003,4.442215e-001
2.800252e+003,4.491396e-001
2.804109e+003,4.515357e-001
2.807966e+003,4.520577e-001
2.811823e+003,4.543223e-001
2.815680e+003,4.639504e-001
2.819537e+003,4.732991e-001
2.823394e+003,4.690966e-001
2.827251e+003,4.745949e-001
2.831109e+003,4.777983e-001
2.834966e+003,4.732742e-001
2.838823e+003,4.800026e-001
2.842680e+003,4.826473e-001
2.846537e+003,4.833148e-001
2.850394e+003,4.808809e-001
2.854251e+003,4.737944e-001
2.858108e+003,4.766022e-001
2.861965e+003,4.940830e-001
2.865823e+003,5.030971e-001
2.869679e+003,5.055350e-001
2.873537e+003,5.021570e-001
2.877394e+003,4.926351e-001
2.881251e+003,4.910303e-001
2.885108e+003,4.941180e-001
2.888965e+003,5.070186e-001
2.892822e+003,5.154912e-001
2.896679e+003,5.110357e-001
2.900536e+003,5.056806e-001
2.904393e+003,5.107416e-001
2.908250e+003,5.195757e-001
2.912108e+003,5.326968e-001
2.915965e+003,5.435666e-001
2.919822e+003,5.434281e-001
2.923679e+003,5.370901e-001
2.927536e+003,5.296088e-001
2.931393e+003,5.344039e-001
2.935250e+003,5.455413e-001
2.939107e+003,5.428746e-001
2.942964e+003,5.539489e-001
2.946822e+003,5.607851e-001
2.950678e+003,5.469611e-001
2.954536e+003,5.455636e-001
2.958393e+003,5.597191e-001
2.962250e+003,5.697929e-001
2.966107e+003,5.674769e-001
2.969964e+003,5.622132e-001
2.973821e+003,5.786038e-001
2.977678e+003,5.869358e-001
2.981535e+003,5.788241e-001
2.985392e+003,5.764996e-001
2.989250e+003,5.821586e-001
2.993107e+003,5.912364e-001
2.996964e+003,5.991747e-001
3.000821e+003,5.967790e-001
3.004678e+003,5.889950e-001
3.008535e+003,5.917307e-001
3.012392e+003,6.007208e-001
3.016249e+003,6.091632e-001
3.020106e+003,6.159204e-001
3.023963e+003,6.216447e-001
3.027821e+003,6.287800e-001
3.031677e+003,6.261498e-001
3.035535e+003,6.251578e-001
3.039392e+003,6.377434e-001
3.043249e+003,6.347073e-001
3.047106e+003,6.263475e-001
3.050963e+003,6.331261e-001
3.054820e+003,6.479357e-001
3.058677e+003,6.507341e-001
3.062534e+003,6.495045e-001
3.066391e+003,6.397165e-001
3.070249e+003,6.500584e-001
3.074106e+003,6.589149e-001
3.077963e+003,6.600382e-001
3.081820e+003,6.788005e-001
3.085677e+003,6.925756e-001
3.089534e+003,6.811380e-001
3.093391e+003,6.834227e-001
3.097248e+003,6.878733e-001
3.101105e+003,6.819190e-001
3.104962e+003,6.682520e-001
3.108820e+003,6.661142e-001
3.112677e+003,6.824491e-001
3.116534e+003,6.842268e-001
3.120391e+003,6.807213e-001
3.124248e+003,6.909457e-001
3.128105e+003,6.977911e-001
3.131962e+003,7.071940e-001
3.135819e+003,7.150659e-001
3.139676e+003,7.045083e-001
3.143533e+003,6.996734e-001
3.147390e+003,7.181994e-001
3.151248e+003,7.295594e-001
3.155105e+003,7.208493e-001
3.158962e+003,7.130225e-001
3.162819e+003,7.180500e-001
3.166676e+003,7.239572e-001
3.170533e+003,7.351367e-001
3.174390e+003,7.444636e-001
3.178247e+003,7.522396e-001
3.182104e+003,7.475173e-001
3.185961e+003,7.480613e-001
3.189819e+003,7.570826e-001
3.193676e+003,7.542664e-001
3.197533e+003,7.539277e-001
3.201390e+003,7.583504e-001
3.205247e+003,7.724038e-001
3.209104e+003,7.793765e-001
3.212961e+003,7.770498e-001
3.216818e+003,7.744293e-001
3.220675e+003,7.764315e-001
3.224532e+003,7.804558e-001
3.228389e+003,7.682615e-001
3.232247e+003,7.710354e-001
3.236104e+003,7.879055e-001
3.239961e+003,7.878019e-001
3.243818e+003,7.735612e-001
3.247675e+003,7.696225e-001
3.251532e+003,7.878960e-001
3.255389e+003,7.780764e-001
3.259246e+003,7.650502e-001
3.263103e+003,7.796837e-001
3.266960e+003,7.939056e-001
3.270818e+003,7.818797e-001
3.274675e+003,7.680159e-001
3.278532e+003,7.616489e-001
3.282389e+003,7.802535e-001
3.286246e+003,8.008267e-001
3.290103e+003,8.051859e-001
3.293960e+003,8.074722e-001
3.297817e+003,8.105040e-001
3.301674e+003,8.064975e-001
3.305531e+003,8.188031e-001
3.309388e+003,8.268312e-001
3.313246e+003,8.170972e-001
3.317103e+003,8.153527e-001
3.320960e+003,8.121446e-001
3.324817e+003,8.230987e-001
3.328674e+003,8.123516e-001
3.332531e+003,7.976847e-001
3.336388e+003,8.078547e-001
3.340245e+003,8.023775e-001
3.344102e+003,7.951162e-001
3.347959e+003,8.190303e-001
3.351817e+003,8.387567e-001
3.355674e+003,8.422450e-001
3.359531e+003,8.355815e-001
3.363388e+003,8.435877e-001
3.367245e+003,8.651156e-001
3.371102e+003,8.690852e-001
3.374959e+003,8.631811e-001
3.378816e+003,8.728009e-001
3.382673e+003,8.717328e-001
3.386530e+003,8.477185e-001
3.390387e+003,8.268700e-001
3.394245e+003,8.298498e-001
3.398102e+003,8.449394e-001
3.401959e+003,8.364805e-001
3.405816e+003,8.494300e-001
3.409673e+003,8.620766e-001
3.413530e+003,8.454818e-001
3.417387e+003,8.475860e-001
3.421244e+003,8.589364e-001
3.425101e+003,8.716905e-001
3.428958e+003,8.715419e-001
3.432815e+003,8.578737e-001
3.436673e+003,8.641909e-001
3.440530e+003,8.649176e-001
3.444387e+003,8.570023e-001
3.448244e+003,8.611069e-001
3.452101e+003,8.676666e-001
3.455958e+003,8.860105e-001
3.459815e+003,8.954911e-001
3.463672e+003,9.019493e-001
3.467529e+003,8.791342e-001
3.471386e+003,8.596800e-001
3.475244e+003,8.625243e-001
3.479101e+003,8.584785e-001
3.482958e+003,8.549433e-001
3.486815e+003,8.567728e-001
3.490672e+003,8.545367e-001
3.494529e+003,8.641893e-001
3.498386e+003,8.663378e-001
3.502243e+003,8.659055e-001
3.506100e+003,8.559623e-001
3.509958e+003,8.598791e-001
3.513814e+003,8.892210e-001
3.517672e+003,8.902685e-001
3.521529e+003,8.660356e-001
3.525386e+003,8.597544e-001
3.529243e+003,8.742608e-001
3.533100e+003,8.790517e-001
3.536957e+003,8.689498e-001
3.540814e+003,8.682077e-001
3.544671e+003,8.562531e-001
3.548528e+003,8.406211e-001
3.552385e+003,8.507068e-001
3.556243e+003,8.591415e-001
3.560100e+003,8.626900e-001
3.563957e+003,8.726068e-001
3.567814e+003,8.794272e-001
3.571671e+003,8.729004e-001
3.575528e+003,8.403746e-001
3.579385e+003,8.293511e-001
3.583242e+003,8.189866e-001
3.587099e+003,8.252544e-001
3.590957e+003,8.207488e-001
3.594813e+003,8.076466e-001
3.598671e+003,7.862279e-001
3.602528e+003,7.740962e-001
3.606385e+003,7.653125e-001
3.610242e+003,7.711434e-001
3.614099e+003,7.575048e-001
3.617956e+003,7.185518e-001
3.621813e+003,6.784055e-001
3.625670e+003,6.497850e-001
3.629527e+003,6.250416e-001
3.633385e+003,6.171769e-001
3.637242e+003,5.970195e-001
3.641099e+003,5.667935e-001
3.644956e+003,5.487892e-001
3.648813e+003,5.075843e-001
3.652670e+003,4.647493e-001
3.656527e+003,4.443751e-001
3.660384e+003,4.341336e-001
3.664241e+003,4.198841e-001
3.668098e+003,3.990249e-001
3.671956e+003,3.785690e-001
3.675813e+003,3.690116e-001
3.679670e+003,3.519121e-001
3.683527e+003,3.257751e-001
3.687384e+003,3.137858e-001
3.691241e+003,3.148559e-001
3.695098e+003,3.110711e-001
3.698955e+003,3.061683e-001
3.702812e+003,3.041181e-001
3.706669e+003,2.988316e-001
3.710526e+003,2.911646e-001
3.714384e+003,2.887885e-001
3.718241e+003,2.901312e-001
3.722098e+003,2.839628e-001
3.725955e+003,2.725799e-001
3.729812e+003,2.696600e-001
3.733669e+003,2.701637e-001
3.737526e+003,2.733579e-001
3.741383e+003,2.758187e-001
3.745240e+003,2.761013e-001
3.749097e+003,2.748789e-001
3.752955e+003,2.768553e-001
3.756812e+003,2.763508e-001
3.760669e+003,2.725514e-001
3.764526e+003,2.733975e-001
3.768383e+003,2.768194e-001
3.772240e+003,2.755527e-001
3.776097e+003,2.744175e-001
3.779954e+003,2.699181e-001
3.783811e+003,2.660341e-001
3.787668e+003,2.646858e-001
3.791525e+003,2.725747e-001
3.795383e+003,2.746971e-001
3.799240e+003,2.718368e-001
3.803097e+003,2.702308e-001
3.806954e+003,2.635759e-001
3.810811e+003,2.665904e-001
3.814668e+003,2.646662e-001
3.818525e+003,2.609082e-001
3.822382e+003,2.594671e-001
3.826239e+003,2.612001e-001
3.830096e+003,2.678782e-001
3.833954e+003,2.695966e-001
3.837811e+003,2.664123e-001
3.841668e+003,2.596626e-001
3.845525e+003,2.605300e-001
3.849382e+003,2.685156e-001
3.853239e+003,2.640384e-001
3.857096e+003,2.597561e-001
3.860953e+003,2.622201e-001
3.864810e+003,2.618800e-001
3.868667e+003,2.631162e-001
3.872524e+003,2.637660e-001
3.876382e+003,2.687344e-001
3.880239e+003,2.755417e-001
3.884096e+003,2.766541e-001
3.887953e+003,2.809862e-001
3.891810e+003,2.794446e-001
3.895667e+003,2.758624e-001
3.899524e+003,2.753666e-001
3.903381e+003,2.697628e-001
3.907238e+003,2.680922e-001
3.911095e+003,2.664005e-001
3.914953e+003,2.698225e-001
3.918810e+003,2.669134e-001
3.922667e+003,2.680880e-001
3.926524e+003,2.762755e-001
3.930381e+003,2.794662e-001
3.934238e+003,2.762798e-001
3.938095e+003,2.754817e-001
3.941952e+003,2.737018e-001
3.945809e+003,2.667023e-001
3.949667e+003,2.626674e-001
3.953523e+003,2.642494e-001
3.957381e+003,2.663853e-001
3.961238e+003,2.700033e-001
3.965095e+003,2.660403e-001
3.968952e+003,2.640215e-001
3.972809e+003,2.611793e-001
3.976666e+003,2.602452e-001
3.980523e+003,2.676179e-001
3.984380e+003,2.721098e-001
3.988237e+003,2.758330e-001
3.992094e+003,2.680587e-001
3.995952e+003,2.608916e-001
3.999809e+003,2.626058e-001
4.003666e+003,2.713641e-001
4.007523e+003,2.764056e-001
4.011380e+003,2.707354e-001
4.015237e+003,2.770829e-001
4.019094e+003,2.764337e-001
4.022951e+003,2.699946e-001
4.026808e+003,2.724067e-001
4.030666e+003,2.698623e-001
4.034522e+003,2.650194e-001
4.038380e+003,2.659397e-001
4.042237e+003,2.645442e-001
4.046094e+003,2.670362e-001
4.049951e+003,2.636696e-001
4.053808e+003,2.553964e-001
4.057665e+003,2.531936e-001
4.061522e+003,2.610840e-001
4.065379e+003,2.560385e-001
4.069236e+003,2.533567e-001
4.073094e+003,2.618336e-001
4.076951e+003,2.599836e-001
4.080808e+003,2.607177e-001
4.084665e+003,2.666243e-001
4.088522e+003,2.601226e-001
4.092379e+003,2.529225e-001
4.096236e+003,2.525100e-001
4.100093e+003,2.551555e-001
4.103950e+003,2.638666e-001
4.107808e+003,2.591549e-001
4.111665e+003,2.554807e-001
4.115521e+003,2.565494e-001
4.119379e+003,2.494764e-001
4.123236e+003,2.511082e-001
4.127093e+003,2.579614e-001
4.130950e+003,2.588732e-001
4.134807e+003,2.578844e-001
4.138664e+003,2.572457e-001
4.142521e+003,2.570563e-001
4.146378e+003,2.618465e-001
4.150235e+003,2.635323e-001
4.154093e+003,2.639948e-001
4.157950e+003,2.606203e-001
4.161807e+003,2.593919e-001
4.165664e+003,2.607789e-001
4.169521e+003,2.529352e-001
4.173378e+003,2.454307e-001
4.177235e+003,2.463291e-001
4.181092e+003,2.535663e-001
4.184949e+003,2.549309e-001
4.188807e+003,2.513577e-001
4.192664e+003,2.480554e-001
4.196521e+003,2.505067e-001
4.200378e+003,2.500536e-001
4.204235e+003,2.439973e-001
4.208092e+003,2.429551e-001
4.211949e+003,2.391114e-001
4.215806e+003,2.394349e-001
4.219663e+003,2.482811e-001
4.223521e+003,2.547245e-001
4.227377e+003,2.465529e-001
4.231234e+003,2.434532e-001
4.235092e+003,2.461322e-001
4.238949e+003,2.478732e-001
4.242806e+003,2.559645e-001
4.246663e+003,2.512014e-001
4.250520e+003,2.526456e-001
4.254377e+003,2.570067e-001
4.258234e+003,2.559933e-001
4.262091e+003,2.569505e-001
4.265948e+003,2.498610e-001
4.269806e+003,2.498078e-001
4.273663e+003,2.660257e-001
4.277520e+003,2.694146e-001
4.281377e+003,2.673264e-001
4.285234e+003,2.592402e-001
4.289091e+003,2.488233e-001
4.292948e+003,2.475793e-001
4.296805e+003,2.478648e-001
4.300662e+003,2.541035e-001
4.304520e+003,2.478302e-001
4.308376e+003,2.379754e-001
4.312233e+003,2.409166e-001
4.316091e+003,2.397444e-001
4.319948e+003,2.379022e-001
4.323805e+003,2.437496e-001
4.327662e+003,2.418518e-001
4.331519e+003,2.382768e-001
4.335376e+003,2.405652e-001
4.339233e+003,2.369892e-001
4.343090e+003,2.327150e-001
4.346947e+003,2.308846e-001
4.350805e+003,2.353815e-001
4.354662e+003,2.450859e-001
4.358519e+003,2.570693e-001
4.362376e+003,2.543084e-001
4.366233e+003,2.520340e-001
4.370090e+003,2.549033e-001
4.373947e+003,2.608638e-001
4.377804e+003,2.564349e-001
4.381661e+003,2.487436e-001
4.385519e+003,2.491318e-001
4.389375e+003,2.546062e-001
4.393232e+003,2.615908e-001
4.397090e+003,2.673370e-001
4.400947e+003,2.655456e-001
4.404804e+003,2.591631e-001
4.408661e+003,2.652525e-001
4.412518e+003,2.655915e-001
4.416375e+003,2.656474e-001
4.420232e+003,2.694060e-001
4.424089e+003,2.675679e-001
4.427946e+003,2.572045e-001
4.431804e+003,2.493000e-001
4.435661e+003,2.539895e-001
4.439518e+003,2.640201e-001
4.443375e+003,2.671071e-001
4.447232e+003,2.607708e-001
4.451089e+003,2.608985e-001
4.454946e+003,2.567942e-001
4.458803e+003,2.594334e-001
4.462660e+003,2.661216e-001
4.466518e+003,2.609864e-001
4.470375e+003,2.510302e-001
4.474231e+003,2.458634e-001
4.478089e+003,2.494479e-001
4.481946e+003,2.681533e-001
4.485803e+003,2.605991e-001
4.489660e+003,2.525583e-001
4.493517e+003,2.549861e-001
4.497375e+003,2.487822e-001
4.501231e+003,2.449900e-001
4.505088e+003,2.467712e-001
4.508946e+003,2.421273e-001
4.512803e+003,2.471253e-001
4.516660e+003,2.521037e-001
4.520517e+003,2.497790e-001
4.524374e+003,2.545291e-001
4.528231e+003,2.612625e-001
4.532088e+003,2.711570e-001
4.535945e+003,2.807280e-001
4.539802e+003,2.846566e-001
4.543660e+003,2.753463e-001
4.547517e+003,2.786238e-001
4.551374e+003,2.772505e-001
4.555231e+003,2.576009e-001
4.559088e+003,2.494143e-001
4.562945e+003,2.493396e-001
4.566802e+003,2.556815e-001
4.570659e+003,2.581829e-001
4.574516e+003,2.534031e-001
4.578374e+003,2.546181e-001
4.582230e+003,2.462361e-001
4.586087e+003,2.366595e-001
4.589945e+003,2.408133e-001
4.593802e+003,2.554273e-001
4.597659e+003,2.627377e-001
4.601516e+003,2.559800e-001
4.605373e+003,2.445868e-001
4.609230e+003,2.507340e-001
4.613087e+003,2.521639e-001
4.616944e+003,2.501373e-001
4.620801e+003,2.498685e-001
4.624659e+003,2.571224e-001
4.628516e+003,2.543459e-001
4.632373e+003,2.584081e-001
4.636230e+003,2.656572e-001
4.640087e+003,2.666524e-001
4.643944e+003,2.656139e-001
4.647801e+003,2.614924e-001
4.651658e+003,2.572517e-001
4.655515e+003,2.613845e-001
4.659373e+003,2.665601e-001
4.663229e+003,2.660726e-001
4.667086e+003,2.609827e-001
4.670944e+003,2.603188e-001
4.674801e+003,2.612149e-001
4.678658e+003,2.655157e-001
4.682515e+003,2.652523e-001
4.686372e+003,2.564677e-001
4.690229e+003,2.529888e-001
4.694086e+003,2.553205e-001
4.697943e+003,2.502336e-001
4.701800e+003,2.457307e-001
4.705658e+003,2.498987e-001
4.709515e+003,2.475258e-001
4.713372e+003,2.476988e-001
4.717229e+003,2.427510e-001
4.721086e+003,2.373380e-001
4.724943e+003,2.431627e-001
4.728800e+003,2.521115e-001
4.732657e+003,2.593276e-001
4.736514e+003,2.582534e-001
4.740372e+003,2.487798e-001
4.744229e+003,2.417387e-001
4.748085e+003,2.446161e-001
4.751943e+003,2.415830e-001
4.755800e+003,2.386504e-001
4.759657e+003,2.409718e-001
4.763514e+003,2.507776e-001
4.767371e+003,2.574795e-001
4.771228e+003,2.498017e-001
4.775085e+003,2.535620e-001
4.778942e+003,2.660388e-001
4.782799e+003,2.652880e-001
4.786657e+003,2.661466e-001
4.790514e+003,2.685446e-001
4.794371e+003,2.700094e-001
4.798228e+003,2.679880e-001
4.802085e+003,2.583914e-001
4.805942e+003,2.612399e-001
4.809799e+003,2.758251e-001
4.813656e+003,2.729295e-001
4.817513e+003,2.555422e-001
4.821371e+003,2.611783e-001
4.825228e+003,2.607441e-001
4.829084e+003,2.520561e-001
4.832942e+003,2.448774e-001
4.836799e+003,2.479875e-001
4.840656e+003,2.516312e-001
4.844513e+003,2.625552e-001
4.848370e+003,2.641042e-001
4.852227e+003,2.414845e-001
4.856084e+003,2.242404e-001
4.859941e+003,2.331609e-001
4.863798e+003,2.494911e-001
4.867656e+003,2.520159e-001
4.871513e+003,2.477221e-001
4.875370e+003,2.390340e-001
4.879227e+003,2.458040e-001
4.883084e+003,2.623305e-001
4.886941e+003,2.712340e-001
4.890798e+003,2.708274e-001
4.894655e+003,2.602254e-001
4.898512e+003,2.567960e-001
4.902370e+003,2.571614e-001
4.906227e+003,2.553805e-001
4.910083e+003,2.482671e-001
4.913941e+003,2.414427e-001
4.917798e+003,2.461434e-001
4.921655e+003,2.492145e-001
4.925512e+003,2.504410e-001
4.929369e+003,2.520598e-001
4.933226e+003,2.567171e-001
4.937083e+003,2.661828e-001
4.940940e+003,2.647538e-001
4.944797e+003,2.547331e-001
4.948655e+003,2.525226e-001
4.952512e+003,2.493809e-001
4.956369e+003,2.483115e-001
4.960226e+003,2.466488e-001
4.964083e+003,2.435862e-001
4.967940e+003,2.524228e-001
4.971797e+003,2.704867e-001
4.975654e+003,2.786514e-001
4.979511e+003,2.696751e-001
4.983369e+003,2.631873e-001
4.987226e+003,2.656034e-001
4.991083e+003,2.627134e-001
4.994940e+003,2.530492e-001
4.998797e+003,2.422449e-001
5.002654e+003,2.511766e-001
5.006511e+003,2.547677e-001
5.010368e+003,2.555957e-001
5.014225e+003,2.649235e-001
5.018083e+003,2.640438e-001
5.021939e+003,2.544122e-001
5.025796e+003,2.467958e-001
5.029654e+003,2.450614e-001
5.033511e+003,2.557680e-001
5.037368e+003,2.738225e-001
5.041225e+003,2.754379e-001
5.045082e+003,2.640841e-001
5.048939e+003,2.525958e-001
5.052796e+003,2.550803e-001
5.056653e+003,2.616792e-001
5.060510e+003,2.685533e-001
5.064368e+003,2.664505e-001
5.068225e+003,2.592105e-001
5.072082e+003,2.516977e-001
5.075939e+003,2.462943e-001
5.079796e+003,2.499510e-001
5.083653e+003,2.669412e-001
5.087510e+003,2.710430e-001
5.091367e+003,2.471977e-001
5.095224e+003,2.471466e-001
5.099082e+003,2.591343e-001
5.102938e+003,2.580774e-001
5.106795e+003,2.604549e-001
5.110653e+003,2.780093e-001
5.114510e+003,2.552946e-001
5.118367e+003,2.445486e-001
5.122224e+003,2.596609e-001
5.126081e+003,2.543204e-001
5.129938e+003,2.404741e-001
5.133795e+003,2.452834e-001
5.137652e+003,2.549856e-001
5.141509e+003,2.621790e-001
5.145367e+003,2.636800e-001
5.149224e+003,2.736815e-001
5.153081e+003,2.816056e-001
5.156938e+003,2.759635e-001
5.160795e+003,2.670779e-001
5.164652e+003,2.563450e-001
5.168509e+003,2.684671e-001
5.172366e+003,2.918615e-001
5.176223e+003,2.952497e-001
5.180081e+003,2.809733e-001
5.183938e+003,2.603469e-001
5.187794e+003,2.735431e-001
5.191652e+003,2.877887e-001
5.195509e+003,2.860762e-001
5.199366e+003,2.774104e-001
5.203223e+003,2.683052e-001
5.207080e+003,2.696123e-001
5.210937e+003,2.588367e-001
5.214794e+003,2.617783e-001
5.218651e+003,2.678049e-001
5.222508e+003,2.653736e-001
5.226366e+003,2.710223e-001
5.230223e+003,2.775748e-001
5.234080e+003,2.691162e-001
5.237937e+003,2.503884e-001
5.241794e+003,2.412976e-001
5.245651e+003,2.466824e-001
5.249508e+003,2.568939e-001
5.253365e+003,2.576001e-001
5.257222e+003,2.623372e-001
5.261080e+003,2.669872e-001
5.264937e+003,2.594320e-001
5.268793e+003,2.389911e-001
5.272651e+003,2.459495e-001
5.276508e+003,2.582990e-001
5.280365e+003,2.470648e-001
5.284222e+003,2.464405e-001
5.288079e+003,2.607330e-001
5.291936e+003,2.748315e-001
5.295793e+003,2.709829e-001
5.299650e+003,2.566313e-001
5.303507e+003,2.540412e-001
5.307365e+003,2.578725e-001
5.311222e+003,2.571837e-001
5.315079e+003,2.686490e-001
5.318936e+003,2.725405e-001
5.322793e+003,2.802530e-001
5.326650e+003,2.763126e-001
5.330507e+003,2.635411e-001
5.334364e+003,2.504231e-001
5.338221e+003,2.524271e-001
5.342079e+003,2.491584e-001
5.345936e+003,2.403033e-001
5.349792e+003,2.469124e-001
5.353650e+003,2.598586e-001
5.357507e+003,2.641012e-001
5.361364e+003,2.534916e-001
5.365221e+003,2.450294e-001
5.369078e+003,2.479211e-001
5.372935e+003,2.411479e-001
5.376792e+003,2.485803e-001
5.380649e+003,2.716159e-001
5.384506e+003,2.600864e-001
5.388364e+003,2.501062e-001
5.392221e+003,2.713118e-001
5.396078e+003,2.811214e-001
5.399935e+003,2.654619e-001
5.403792e+003,2.539350e-001
5.407649e+003,2.539990e-001
5.411506e+003,2.440249e-001
5.415363e+003,2.383536e-001
5.419220e+003,2.510045e-001
5.423078e+003,2.525781e-001
5.426935e+003,2.584792e-001
5.430792e+003,2.539361e-001
5.434649e+003,2.374161e-001
5.438506e+003,2.371365e-001
5.442363e+003,2.494052e-001
5.446220e+003,2.665339e-001
5.450077e+003,2.722693e-001
5.453934e+003,2.668229e-001
5.457792e+003,2.453652e-001
5.461648e+003,2.436888e-001
5.465505e+003,2.461967e-001
5.469363e+003,2.605413e-001
5.473220e+003,2.720761e-001
5.477077e+003,2.719020e-001
5.480934e+003,2.692789e-001
5.484791e+003,2.456833e-001
5.488648e+003,2.353060e-001
5.492505e+003,2.458949e-001
5.496362e+003,2.449078e-001
5.500219e+003,2.559659e-001
5.504077e+003,2.715894e-001
5.507934e+003,2.668621e-001
5.511791e+003,2.769695e-001
5.515648e+003,2.678016e-001
5.519505e+003,2.444071e-001
5.523362e+003,2.542991e-001
5.527219e+003,2.559508e-001
5.531076e+003,2.498591e-001
5.534933e+003,2.464126e-001
5.538791e+003,2.455153e-001
5.542647e+003,2.458278e-001
5.546504e+003,2.538126e-001
5.550362e+003,2.589909e-001
5.554219e+003,2.395518e-001
5.558076e+003,2.275405e-001
5.561933e+003,2.414182e-001
5.565790e+003,2.596365e-001
5.569647e+003,2.661620e-001
5.573504e+003,2.591478e-001
5.577361e+003,2.407455e-001
5.581218e+003,2.421777e-001
5.585076e+003,2.509710e-001
5.588933e+003,2.546598e-001
5.592790e+003,2.531925e-001
5.596647e+003,2.475751e-001
5.600504e+003,2.581616e-001
5.604361e+003,2.488312e-001
5.608218e+003,2.321450e-001
5.612075e+003,2.278079e-001
5.615932e+003,2.327095e-001
5.619790e+003,2.364479e-001
5.623646e+003,2.487548e-001
5.627503e+003,2.642844e-001
5.631361e+003,2.847448e-001
5.635218e+003,2.851382e-001
5.639075e+003,2.667722e-001
5.642932e+003,2.583114e-001
5.646789e+003,2.450531e-001
5.650646e+003,2.495290e-001
5.654503e+003,2.466403e-001
5.658360e+003,2.442720e-001
5.662217e+003,2.625988e-001
5.666075e+003,2.664310e-001
5.669932e+003,2.596728e-001
5.673789e+003,2.580549e-001
5.677646e+003,2.547219e-001
5.681503e+003,2.533010e-001
5.685360e+003,2.561909e-001
5.689217e+003,2.468974e-001
5.693074e+003,2.432389e-001
5.696931e+003,2.684887e-001
5.700789e+003,2.826179e-001
5.704646e+003,2.940383e-001
5.708502e+003,3.019661e-001
5.712360e+003,2.728474e-001
5.716217e+003,2.622155e-001
5.720074e+003,2.686926e-001
5.723931e+003,2.776541e-001
5.727788e+003,2.626121e-001
5.731645e+003,2.438139e-001
5.735502e+003,2.463078e-001
5.739359e+003,2.711879e-001
5.743216e+003,2.825252e-001
5.747074e+003,2.793666e-001
5.750931e+003,2.740980e-001
5.754788e+003,2.580442e-001
5.758645e+003,2.359392e-001
5.762502e+003,2.257595e-001
5.766359e+003,2.567782e-001
5.770216e+003,2.592825e-001
5.774073e+003,2.537460e-001
5.777930e+003,2.631391e-001
5.781788e+003,2.477771e-001
5.785645e+003,2.490579e-001
5.789501e+003,2.605723e-001
5.793359e+003,2.557516e-001
5.797216e+003,2.326288e-001
5.801073e+003,2.408291e-001
5.804930e+003,2.579764e-001
5.808787e+003,2.478231e-001
5.812644e+003,2.378639e-001
5.816501e+003,2.558589e-001
5.820358e+003,2.647975e-001
5.824215e+003,2.694255e-001
5.828073e+003,2.853611e-001
5.831930e+003,2.704798e-001
5.835787e+003,2.524117e-001
5.839644e+003,2.579292e-001
5.843501e+003,2.658518e-001
5.847358e+003,2.602262e-001
5.851215e+003,2.465438e-001
5.855072e+003,2.542640e-001
5.858929e+003,2.522807e-001
5.862787e+003,2.496592e-001
5.866644e+003,2.713345e-001
5.870500e+003,2.746602e-001
5.874358e+003,2.632167e-001
5.878215e+003,2.565005e-001
5.882072e+003,2.543584e-001
5.885929e+003,2.496073e-001
5.889786e+003,2.462250e-001
5.893643e+003,2.399101e-001
5.897500e+003,2.395377e-001
5.901357e+003,2.393885e-001
5.905214e+003,2.470569e-001
5.909072e+003,2.525052e-001
5.912929e+003,2.527712e-001
5.916786e+003,2.446091e-001
5.920643e+003,2.437838e-001
5.924500e+003,2.619375e-001
5.928357e+003,2.683196e-001
5.932214e+003,2.580333e-001
5.936071e+003,2.740133e-001
5.939928e+003,2.711468e-001
5.943786e+003,2.533372e-001
5.947643e+003,2.659846e-001
5.951500e+003,2.874739e-001
5.955357e+003,2.966480e-001
5.959214e+003,2.663069e-001
5.963071e+003,2.493032e-001
5.966928e+003,2.404599e-001
5.970785e+003,2.435774e-001
5.974642e+003,2.776575e-001
5.978500e+003,2.883210e-001
5.982356e+003,2.709066e-001
5.986213e+003,2.561963e-001
5.990071e+003,2.483807e-001
5.993928e+003,2.469344e-001
5.997785e+003,2.604930e-001
6.001642e+003,2.884389e-001
6.005499e+003,2.927553e-001
6.009356e+003,2.628900e-001
6.013213e+003,2.532411e-001
6.017070e+003,2.457168e-001
6.020927e+003,2.481528e-001
6.024785e+003,2.610227e-001
6.028642e+003,2.530012e-001
6.032499e+003,2.535488e-001
6.036356e+003,2.641357e-001
6.040213e+003,2.632297e-001
6.044070e+003,2.703095e-001
6.047927e+003,2.740046e-001
6.051784e+003,2.832716e-001
6.055641e+003,2.731547e-001
6.059499e+003,2.511694e-001
6.063355e+003,2.643244e-001
6.067212e+003,2.604472e-001
6.071070e+003,2.475282e-001
6.074927e+003,2.630861e-001
6.078784e+003,2.718730e-001
6.082641e+003,2.534495e-001
6.086498e+003,2.380445e-001
6.090355e+003,2.365057e-001
6.094212e+003,2.629182e-001
6.098069e+003,2.780446e-001
6.101926e+003,2.726462e-001
6.105784e+003,2.677516e-001
6.109641e+003,2.658566e-001
6.113498e+003,2.582084e-001
6.117355e+003,2.629465e-001
6.121212e+003,2.829257e-001
6.125069e+003,2.866183e-001
6.128926e+003,2.732473e-001
6.132783e+003,2.634286e-001
6.136640e+003,2.533979e-001
6.140498e+003,2.452818e-001
6.144354e+003,2.467620e-001
6.148211e+003,2.346193e-001
6.152069e+003,2.171732e-001
6.155926e+003,2.227840e-001
6.159783e+003,2.524059e-001
6.163640e+003,2.586780e-001
6.167497e+003,2.574659e-001
6.171354e+003,2.647892e-001
6.175211e+003,2.426391e-001
6.179068e+003,2.291794e-001
6.182925e+003,2.503741e-001
6.186783e+003,2.426257e-001
6.190640e+003,2.337999e-001
6.194497e+003,2.330794e-001
6.198354e+003,2.358753e-001
6.202211e+003,2.473715e-001
6.206068e+003,2.568125e-001
6.209925e+003,2.727736e-001
6.213782e+003,2.655446e-001
6.217639e+003,2.412872e-001
6.221497e+003,2.478883e-001
6.225354e+003,2.573273e-001
6.229210e+003,2.539583e-001
6.233068e+003,2.472730e-001
6.236925e+003,2.500131e-001
6.240782e+003,2.764687e-001
6.244639e+003,2.702367e-001
6.248496e+003,2.561027e-001
6.252353e+003,2.451800e-001
6.256210e+003,2.516057e-001
6.260067e+003,2.722276e-001
6.263924e+003,2.881666e-001
6.267782e+003,2.806357e-001
6.271639e+003,2.596729e-001
6.275496e+003,2.444043e-001
6.279353e+003,2.302478e-001
6.283210e+003,2.297542e-001
6.287067e+003,2.468226e-001
6.290924e+003,2.723635e-001
6.294781e+003,2.696840e-001
6.298638e+003,2.515198e-001
6.302496e+003,2.421037e-001
6.306353e+003,2.706343e-001
6.310209e+003,2.873666e-001
6.314067e+003,2.906893e-001
6.317924e+003,3.077821e-001
6.321781e+003,3.069626e-001
6.325638e+003,2.870075e-001
6.329495e+003,2.657198e-001
6.333352e+003,2.363076e-001
6.337209e+003,2.237214e-001
6.341066e+003,2.384478e-001
6.344923e+003,2.943488e-001
6.348780e+003,3.151148e-001
6.352638e+003,2.793201e-001
6.356495e+003,2.564673e-001
6.360352e+003,2.763019e-001
6.364209e+003,2.805571e-001
6.368066e+003,2.643628e-001
6.371923e+003,2.847172e-001
6.375780e+003,2.994374e-001
6.379637e+003,2.851202e-001
6.383494e+003,2.553505e-001
6.387352e+003,2.358144e-001
6.391208e+003,2.609550e-001
6.395065e+003,2.801719e-001
6.398923e+003,2.659255e-001
6.402780e+003,2.573609e-001
6.406637e+003,2.613448e-001
6.410494e+003,2.689709e-001
6.414351e+003,2.615673e-001
6.418208e+003,2.552984e-001
6.422065e+003,2.759137e-001
6.425922e+003,2.768594e-001
6.429779e+003,2.541422e-001
6.433637e+003,2.752793e-001
6.437494e+003,2.682573e-001
6.441351e+003,2.441113e-001
6.445208e+003,2.276204e-001
6.449065e+003,2.231143e-001
6.452922e+003,2.331249e-001
6.456779e+003,2.626255e-001
6.460636e+003,2.808679e-001
6.464493e+003,2.466538e-001
6.468351e+003,2.381809e-001
6.472208e+003,2.563694e-001
6.476064e+003,2.477785e-001
6.479922e+003,2.251855e-001
6.483779e+003,2.542004e-001
6.487636e+003,2.909872e-001
6.491493e+003,2.919065e-001
6.495350e+003,2.694259e-001
6.499207e+003,2.768982e-001
6.503064e+003,2.578362e-001
6.506921e+003,2.273810e-001
6.510778e+003,2.231040e-001
6.514636e+003,2.469691e-001
6.518493e+003,2.709982e-001
6.522350e+003,2.933994e-001
6.526207e+003,2.866043e-001
6.530064e+003,2.779859e-001
6.533921e+003,2.482793e-001
6.537778e+003,2.506882e-001
6.541635e+003,2.531486e-001
6.545492e+003,2.474943e-001
6.549350e+003,2.625349e-001
6.553207e+003,2.815134e-001
6.557063e+003,2.966083e-001
6.560921e+003,2.802411e-001
6.564778e+003,2.500943e-001
6.568635e+003,2.196736e-001
6.572492e+003,2.123360e-001
6.576349e+003,2.059885e-001
6.580206e+003,2.511199e-001
6.584063e+003,3.182505e-001
6.587920e+003,3.151911e-001
6.591777e+003,2.835098e-001
6.595635e+003,2.767262e-001
6.599492e+003,2.657577e-001
6.603349e+003,2.813386e-001
6.607206e+003,2.904830e-001
6.611063e+003,2.633421e-001
6.614920e+003,2.706057e-001
6.618777e+003,2.621469e-001
6.622634e+003,2.587309e-001
6.626491e+003,2.572528e-001
6.630349e+003,2.623625e-001
6.634206e+003,2.652878e-001
6.638063e+003,2.777755e-001
6.641920e+003,2.885056e-001
6.645777e+003,3.017714e-001
6.649634e+003,2.837187e-001
6.653491e+003,2.576446e-001
6.657348e+003,2.428047e-001
6.661205e+003,2.460949e-001
6.665063e+003,2.427005e-001
6.668919e+003,2.231172e-001
6.672776e+003,2.326666e-001
6.676634e+003,2.674223e-001
6.680491e+003,2.582261e-001
6.684348e+003,2.474699e-001
6.688205e+003,2.761963e-001
6.692062e+003,2.653749e-001
6.695919e+003,2.560284e-001
6.699776e+003,2.743699e-001
6.703633e+003,2.781450e-001
6.707490e+003,2.531090e-001
6.711348e+003,2.293024e-001
6.715205e+003,2.514599e-001
6.719062e+003,2.714334e-001
6.722919e+003,2.676516e-001
6.726776e+003,2.660277e-001
6.730633e+003,3.028351e-001
6.734490e+003,2.860083e-001
6.738347e+003,2.777687e-001
6.742204e+003,2.629547e-001
6.746062e+003,2.795831e-001
6.749918e+003,3.141034e-001
6.753775e+003,3.108760e-001
6.757633e+003,3.188987e-001
6.761490e+003,2.911909e-001
6.765347e+003,2.666019e-001
6.769204e+003,2.768939e-001
6.773061e+003,2.425751e-001
6.776918e+003,2.047565e-001
6.780775e+003,2.443812e-001
6.784632e+003,2.543229e-001
6.788489e+003,2.202487e-001
6.792347e+003,2.300492e-001
6.796204e+003,2.430815e-001
6.800061e+003,2.613094e-001
6.803918e+003,2.868359e-001
6.807775e+003,2.765177e-001
6.811632e+003,2.371105e-001
6.815489e+003,2.515106e-001
6.819346e+003,2.668763e-001
6.823203e+003,2.413349e-001
6.827061e+003,2.195487e-001
6.830917e+003,2.441850e-001
6.834774e+003,2.960135e-001
6.838632e+003,3.025396e-001
6.842489e+003,3.021717e-001
6.846346e+003,2.946669e-001
6.850203e+003,2.986010e-001
6.854060e+003,3.249316e-001
6.857917e+003,3.180480e-001
6.861774e+003,3.102957e-001
6.865631e+003,3.226677e-001
6.869488e+003,2.946977e-001
6.873346e+003,2.779450e-001
6.877203e+003,2.666213e-001
6.881060e+003,2.420073e-001
6.884917e+003,2.495717e-001
6.888774e+003,3.003956e-001
6.892631e+003,3.115628e-001
6.896488e+003,2.997379e-001
6.900345e+003,2.824701e-001
6.904202e+003,2.553941e-001
6.908060e+003,2.542994e-001
6.911917e+003,2.849613e-001
6.915773e+003,2.746430e-001
6.919631e+003,2.613102e-001
6.923488e+003,2.633030e-001
6.927345e+003,2.216348e-001
6.931202e+003,2.383973e-001
6.935059e+003,3.116072e-001
6.938916e+003,3.262980e-001
6.942773e+003,2.994758e-001
6.946630e+003,2.893949e-001
6.950487e+003,3.197797e-001
6.954345e+003,3.184516e-001
6.958202e+003,2.589108e-001
6.962059e+003,2.550714e-001
6.965916e+003,2.987301e-001
6.969773e+003,3.274397e-001
6.973630e+003,3.443547e-001
6.977487e+003,3.368974e-001
6.981344e+003,3.257989e-001
6.985201e+003,3.301021e-001
6.989059e+003,3.328555e-001
6.992916e+003,3.363496e-001
6.996772e+003,3.126247e-001
7.000630e+003,2.805413e-001
7.004487e+003,3.545614e-001
7.008344e+003,3.855375e-001
7.012201e+003,3.310983e-001
7.016058e+003,3.115590e-001
7.019915e+003,3.182145e-001
7.023772e+003,3.177411e-001
7.027629e+003,3.048926e-001
7.031486e+003,2.986791e-001
7.035344e+003,2.746310e-001
7.039201e+003,2.741781e-001
7.043058e+003,2.660712e-001
7.046915e+003,2.595719e-001
7.050772e+003,3.262295e-001
7.054629e+003,3.307957e-001
7.058486e+003,3.051735e-001
7.062343e+003,3.174547e-001
7.066200e+003,3.164569e-001
7.070058e+003,3.532216e-001
7.073915e+003,3.831086e-001
7.077771e+003,3.511657e-001
7.081629e+003,3.493358e-001
7.085486e+003,3.229645e-001
7.089343e+003,3.008392e-001
7.093200e+003,3.048081e-001
7.097057e+003,3.023170e-001
7.100914e+003,2.982749e-001
7.104771e+003,2.639500e-001
7.108628e+003,2.835237e-001
7.112485e+003,3.230501e-001
7.116343e+003,3.015370e-001
7.120200e+003,2.752009e-001
7.124057e+003,2.978351e-001
7.127914e+003,3.086648e-001
7.131771e+003,2.606271e-001
7.135628e+003,2.303480e-001
7.139485e+003,3.017463e-001
7.143342e+003,3.487012e-001
7.147199e+003,3.040144e-001
7.151057e+003,2.460244e-001
7.154914e+003,2.351812e-001
7.158771e+003,2.409007e-001
7.162628e+003,2.347978e-001
7.166485e+003,2.657980e-001
7.170342e+003,2.486468e-001
7.174199e+003,2.232240e-001
7.178056e+003,2.844780e-001
7.181913e+003,3.333849e-001
7.185771e+003,2.973183e-001
7.189627e+003,2.395175e-001
7.193484e+003,2.347204e-001
7.197342e+003,2.246266e-001
7.201199e+003,2.690070e-001
7.205056e+003,2.538951e-001
7.208913e+003,2.374720e-001
7.212770e+003,2.844517e-001
7.216627e+003,2.920274e-001
7.220484e+003,2.620846e-001
7.224341e+003,2.447620e-001
7.228198e+003,2.565455e-001
7.232056e+003,2.692233e-001
7.235913e+003,3.278224e-001
7.239770e+003,3.081450e-001
7.243627e+003,2.906454e-001
7.247484e+003,3.178491e-001
7.251341e+003,2.827173e-001
7.255198e+003,2.356587e-001
7.259055e+003,2.447173e-001
7.262912e+003,2.851260e-001
7.266770e+003,2.999364e-001
7.270626e+003,2.767724e-001
7.274483e+003,2.895410e-001
7.278341e+003,3.248456e-001
7.282198e+003,3.187295e-001
7.286055e+003,3.097978e-001
7.289912e+003,3.247669e-001
7.293769e+003,2.982941e-001
7.297626e+003,3.905786e-001
7.301483e+003,3.814254e-001
7.305340e+003,2.905146e-001
7.309197e+003,2.533460e-001
7.313055e+003,2.574000e-001
7.316912e+003,2.701166e-001
7.320769e+003,3.012814e-001
7.324626e+003,3.260220e-001
7.328483e+003,3.499233e-001
7.332340e+003,3.782739e-001
7.336197e+003,3.915037e-001
7.340054e+003,3.454108e-001
7.343911e+003,3.373269e-001
7.347769e+003,3.408304e-001
7.351625e+003,3.884176e-001
7.355482e+003,3.973988e-001
7.359340e+003,3.163899e-001
7.363197e+003,2.850372e-001
7.367054e+003,2.533188e-001
7.370911e+003,2.488016e-001
7.374768e+003,3.207712e-001
7.378625e+003,3.828011e-001
7.382482e+003,3.080518e-001
7.386339e+003,2.680116e-001
7.390196e+003,2.894894e-001
7.394054e+003,2.240046e-001
7.397911e+003,2.221137e-001
7.401768e+003,2.138094e-001
7.405625e+003,2.386757e-001
7.409482e+003,2.638793e-001
7.413339e+003,2.534439e-001
7.417196e+003,2.027989e-001
7.421053e+003,2.222743e-001
7.424910e+003,2.721722e-001
7.428768e+003,3.341962e-001
7.432625e+003,3.359354e-001
7.436481e+003,2.534419e-001
7.440339e+003,2.018913e-001
7.444196e+003,2.181023e-001
7.448053e+003,3.184268e-001
7.451910e+003,4.723211e-001
7.455767e+003,4.311585e-001
7.459624e+003,2.738864e-001
7.463481e+003,1.654884e-001
7.467338e+003,2.230831e-001
7.471195e+003,2.476867e-001
7.475053e+003,2.529304e-001
7.478910e+003,2.520719e-001
7.482767e+003,2.395529e-001
7.486624e+003,1.955969e-001
7.490481e+003,2.137813e-001
7.494338e+003,2.955176e-001
7.498195e+003,3.428037e-001
7.502052e+003,3.810305e-001
7.505909e+003,3.767323e-001
7.509767e+003,2.781500e-001
7.513624e+003,3.186597e-001
7.517480e+003,4.600452e-001
7.521338e+003,4.635311e-001
7.525195e+003,4.277622e-001
7.529052e+003,3.251701e-001
7.532909e+003,2.949215e-001
7.536766e+003,3.716969e-001
7.540623e+003,4.048092e-001
7.544480e+003,4.176618e-001
7.548337e+003,3.829140e-001
7.552194e+003,3.884950e-001
7.556052e+003,3.351901e-001
7.559909e+003,2.411198e-001
7.563766e+003,3.439236e-001
7.567623e+003,2.961903e-001
7.571480e+003,1.865068e-001
7.575337e+003,2.246826e-001
7.579194e+003,2.548642e-001
7.583051e+003,2.968002e-001
7.586908e+003,3.762070e-001
7.590766e+003,2.662556e-001
7.594623e+003,1.480269e-001
7.598479e+003,1.962013e-001
7.602337e+003,2.806204e-001
7.606194e+003,2.451969e-001
7.610051e+003,1.747945e-001
7.613908e+003,1.919133e-001
7.617765e+003,2.387800e-001
7.621622e+003,2.692297e-001
7.625479e+003,2.612926e-001
7.629336e+003,3.047387e-001
7.633193e+003,3.315493e-001
7.637051e+003,2.807599e-001
7.640908e+003,2.669912e-001
7.644765e+003,2.541866e-001
7.648622e+003,2.910283e-001
7.652479e+003,3.264295e-001
7.656336e+003,2.611913e-001
7.660193e+003,1.857449e-001
7.664050e+003,3.800620e-001
7.667907e+003,4.659208e-001
7.671765e+003,3.130286e-001
7.675622e+003,1.918973e-001
7.679479e+003,2.082243e-001
7.683336e+003,2.866908e-001
7.687193e+003,1.921041e-001
7.691050e+003,1.697339e-001
7.694907e+003,2.985017e-001
7.698764e+003,3.630216e-001
7.702621e+003,3.393223e-001
7.706479e+003,2.954516e-001
7.710335e+003,3.479123e-001
7.714192e+003,3.465222e-001
7.718050e+003,3.118736e-001
7.721907e+003,3.553644e-001
7.725764e+003,3.189684e-001
7.729621e+003,2.902911e-001
7.733478e+003,2.217966e-001
7.737335e+003,1.539989e-001
7.741192e+003,1.262975e-001
7.745049e+003,1.935127e-001
7.748906e+003,2.960358e-001
7.752764e+003,2.748205e-001
7.756621e+003,1.604465e-001
7.760478e+003,1.379725e-001
7.764335e+003,2.186499e-001
7.768192e+003,3.193216e-001
7.772049e+003,4.550552e-001
7.775906e+003,4.936213e-001
7.779763e+003,3.759747e-001
7.783620e+003,2.408704e-001
7.787478e+003,2.647644e-001
7.791334e+003,2.942312e-001
7.795191e+003,2.410175e-001
7.799049e+003,3.610038e-001
7.802906e+003,3.123914e-001
7.806763e+003,2.340502e-001
7.810620e+003,2.876496e-001
7.814477e+003,3.102943e-001
7.818334e+003,2.767442e-001
7.822191e+003,3.203784e-001
7.826048e+003,1.906219e-001
7.829905e+003,2.377259e-001
7.833763e+003,3.372745e-001
7.837620e+003,4.646905e-001
7.841477e+003,5.044511e-001
7.845334e+003,4.105684e-001
7.849191e+003,2.783262e-001
7.853048e+003,2.054232e-001
7.856905e+003,5.632725e-001
7.860762e+003,6.707543e-001
7.864619e+003,1.942035e-001
7.868477e+003,2.168776e-001
7.872333e+003,4.189574e-001
7.876190e+003,1.887522e-001
7.880048e+003,9.730644e-002
7.883905e+003,6.126323e-002
7.887762e+003,6.273080e-002
7.891619e+003,1.808344e-001
7.895476e+003,1.890963e-001
7.899333e+003,1.118335e-001
7.903190e+003,1.394746e-001
7.907047e+003,1.459251e-001
7.910904e+003,2.921590e-001
7.914762e+003,6.343219e-001
7.918619e+003,5.788870e-001
7.922476e+003,1.689112e-001
7.926333e+003,4.630595e-002
7.930190e+003,8.345847e-002
7.934047e+003,1.212982e-001
7.937904e+003,2.219083e-001
7.941761e+003,2.900872e-001
7.945618e+003,2.807060e-001
7.949476e+003,3.572575e-001
7.953333e+003,6.244075e-001
7.957189e+003,1.264248e+000
7.961047e+003,7.264087e-001
7.964904e+003,4.559316e-001
7.968761e+003,3.263541e-001
7.972618e+003,2.988859e-001
7.976475e+003,3.221083e-001
7.980332e+003,2.313351e-001
7.984189e+003,1.136041e-001
7.988046e+003,3.589204e-002
7.991903e+003,1.254624e-001
7.995761e+003,2.651362e-001
7.999618e+003,2.563483e-001
