4.011380e+002,6.000000e+000
4.049951e+002,6.000000e+000
4.088522e+002,6.000000e+000
4.127093e+002,-4.695374e-001
4.165664e+002,-1.632913e-001
4.204235e+002,-3.050649e+000
4.242806e+002,-2.010641e-001
4.281377e+002,3.576790e-002
4.319948e+002,1.211220e+000
4.358519e+002,2.435641e-001
4.397090e+002,6.000000e+000
4.435661e+002,-1.130588e+000
4.474232e+002,-1.574848e+000
4.512803e+002,6.034147e-001
4.551374e+002,5.269361e-001
4.589945e+002,6.000000e+000
4.628516e+002,-1.109717e-001
4.667087e+002,6.000000e+000
4.705658e+002,6.000000e+000
4.744229e+002,6.000000e+000
4.782800e+002,1.729207e-002
4.821371e+002,-5.063860e-002
4.859941e+002,-2.858104e-001
4.898513e+002,-4.471675e-001
4.937083e+002,9.644719e-001
4.975654e+002,-8.762515e-002
5.014225e+002,6.000000e+000
5.052796e+002,-5.620773e-001
5.091367e+002,6.000000e+000
5.129938e+002,3.712564e-001
5.168509e+002,6.000000e+000
5.207080e+002,6.000000e+000
5.245651e+002,6.000000e+000
5.284222e+002,5.280456e-001
5.322793e+002,6.000000e+000
5.361364e+002,6.000000e+000
5.399935e+002,6.000000e+000
5.438506e+002,-5.718390e-001
5.477077e+002,6.000000e+000
5.515648e+002,6.000000e+000
5.554219e+002,6.000000e+000
5.592790e+002,6.000000e+000
5.631361e+002,-6.431832e-001
5.669932e+002,5.217655e-001
5.708503e+002,6.000000e+000
5.747074e+002,2.379402e-001
5.785645e+002,6.000000e+000
5.824216e+002,6.000000e+000
5.862787e+002,6.000000e+000
5.901357e+002,-1.256216e-001
5.939929e+002,-1.607959e-001
5.978499e+002,1.158314e+000
6.017070e+002,6.000000e+000
6.055641e+002,6.000000e+000
6.094212e+002,6.000000e+000
6.132783e+002,6.000000e+000
6.171354e+002,6.000000e+000
6.209925e+002,3.191697e-001
6.248496e+002,-6.802721e-004
6.287067e+002,-4.291928e-001
6.325638e+002,6.000000e+000
6.364209e+002,6.000000e+000
6.402780e+002,-3.007536e-001
6.441351e+002,6.000000e+000
6.479922e+002,-5.318805e-001
6.518493e+002,5.108071e-002
6.557064e+002,1.154216e+000
6.595635e+002,6.000000e+000
6.634205e+002,-7.587027e-001
6.672777e+002,-2.614675e-002
6.711348e+002,7.710131e-001
6.749918e+002,6.112349e-002
6.788490e+002,1.003364e-001
6.827061e+002,-3.281262e-003
6.865631e+002,6.000000e+000
6.904203e+002,6.000000e+000
6.942773e+002,6.000000e+000
6.981344e+002,2.745508e-001
7.019916e+002,-5.109854e-001
7.058486e+002,-6.681916e-001
7.097057e+002,-3.507339e-001
7.135629e+002,6.000000e+000
7.174199e+002,1.681568e-001
7.212770e+002,-6.678151e-001
7.251342e+002,-1.046250e+000
7.289912e+002,-7.105507e-001
7.328483e+002,3.070784e-001
7.367054e+002,6.000000e+000
7.405625e+002,-1.528549e+000
7.444196e+002,2.045960e-001
7.482767e+002,6.000000e+000
7.521338e+002,6.000000e+000
7.559908e+002,6.000000e+000
7.598480e+002,1.993210e-001
7.637051e+002,-9.229393e-002
7.675621e+002,-1.369253e-001
7.714193e+002,6.000000e+000
7.752764e+002,9.936463e-001
7.791334e+002,6.000000e+000
7.829905e+002,8.218824e-001
7.868477e+002,-2.823886e-001
7.907047e+002,7.808347e-001
7.945618e+002,4.583843e-001
7.984189e+002,-3.419817e-001
8.022760e+002,6.000000e+000
8.061331e+002,6.000000e+000
8.099902e+002,6.000000e+000
8.138473e+002,6.000000e+000
8.177044e+002,6.000000e+000
8.215615e+002,4.469438e-001
8.254186e+002,-1.809895e-001
8.292757e+002,2.946399e-001
8.331328e+002,1.389636e+000
8.369899e+002,6.000000e+000
8.408470e+002,6.000000e+000
8.447041e+002,6.000000e+000
8.485612e+002,9.799224e-001
8.524183e+002,6.000000e+000
8.562754e+002,6.000000e+000
8.601324e+002,5.489026e-001
8.639896e+002,5.620223e-001
8.678467e+002,1.193082e+000
8.717037e+002,6.000000e+000
8.755609e+002,6.000000e+000
8.794180e+002,6.000000e+000
8.832750e+002,1.355698e+000
8.871321e+002,1.292631e+000
8.909893e+002,6.000000e+000
8.948463e+002,6.000000e+000
8.987034e+002,6.000000e+000
9.025605e+002,6.000000e+000
9.064176e+002,6.000000e+000
9.102747e+002,6.000000e+000
9.141318e+002,1.373421e+000
9.179889e+002,1.729199e+000
9.218461e+002,6.000000e+000
9.257031e+002,6.000000e+000
9.295602e+002,6.000000e+000
9.334174e+002,2.249027e+000
9.372744e+002,1.281615e+000
9.411315e+002,1.306465e+000
9.449886e+002,6.000000e+000
9.488457e+002,6.000000e+000
9.527028e+002,6.000000e+000
9.565599e+002,6.000000e+000
9.604170e+002,1.648597e+000
9.642740e+002,1.859236e+000
9.681312e+002,2.013894e+000
9.719883e+002,1.954503e+000
9.758453e+002,2.491985e+000
9.797025e+002,6.000000e+000
9.835596e+002,6.000000e+000
9.874166e+002,6.000000e+000
9.912738e+002,6.000000e+000
9.951309e+002,6.000000e+000
9.989879e+002,6.000000e+000
1.002845e+003,6.000000e+000
1.006702e+003,2.101604e+000
1.010559e+003,2.839496e+000
1.014416e+003,2.293845e+000
1.018273e+003,1.944598e+000
1.022130e+003,1.760118e+000
1.025988e+003,1.967230e+000
1.029845e+003,1.972718e+000
1.033702e+003,1.798286e+000
1.037559e+003,1.752854e+000
1.041416e+003,1.631562e+000
1.045273e+003,1.484503e+000
1.049130e+003,1.408386e+000
1.052987e+003,1.259102e+000
1.056844e+003,1.233940e+000
1.060702e+003,1.426029e+000
1.064559e+003,1.792023e+000
1.068416e+003,1.755676e+000
1.072273e+003,1.513337e+000
1.076130e+003,1.510321e+000
1.079987e+003,1.467598e+000
1.083844e+003,1.441340e+000
1.087701e+003,1.478120e+000
1.091558e+003,1.356318e+000
1.095415e+003,1.419050e+000
1.099272e+003,1.592020e+000
1.103130e+003,1.396823e+000
1.106987e+003,1.299512e+000
1.110844e+003,1.420692e+000
1.114701e+003,1.543968e+000
1.118558e+003,1.436312e+000
1.122415e+003,1.375988e+000
1.126272e+003,1.379657e+000
1.130129e+003,1.226838e+000
1.133986e+003,1.201425e+000
1.137843e+003,1.318633e+000
1.141701e+003,1.358054e+000
1.145558e+003,1.261575e+000
1.149415e+003,1.210687e+000
1.153272e+003,1.223182e+000
1.157129e+003,1.215446e+000
1.160986e+003,1.168513e+000
1.164843e+003,1.198690e+000
1.168700e+003,1.215342e+000
1.172557e+003,1.189843e+000
1.176414e+003,1.143185e+000
1.180271e+003,1.146273e+000
1.184129e+003,1.185044e+000
1.187986e+003,1.227495e+000
1.191843e+003,1.235100e+000
1.195700e+003,1.206175e+000
1.199557e+003,1.129881e+000
1.203414e+003,1.109619e+000
1.207271e+003,1.085865e+000
1.211128e+003,1.061623e+000
1.214985e+003,1.063638e+000
1.218842e+003,1.024031e+000
1.222699e+003,9.509258e-001
1.226557e+003,8.902996e-001
1.230414e+003,8.548248e-001
1.234271e+003,8.138650e-001
1.238128e+003,7.690506e-001
1.241985e+003,7.391388e-001
1.245842e+003,7.094585e-001
1.249699e+003,6.675350e-001
1.253556e+003,6.295721e-001
1.257413e+003,5.954724e-001
1.261271e+003,5.808461e-001
1.265128e+003,5.736895e-001
1.268985e+003,5.599444e-001
1.272842e+003,5.386232e-001
1.276699e+003,5.165687e-001
1.280556e+003,4.995708e-001
1.284413e+003,4.809071e-001
1.288270e+003,4.775793e-001
1.292127e+003,4.702169e-001
1.295984e+003,4.527063e-001
1.299841e+003,4.326801e-001
1.303698e+003,4.221387e-001
1.307556e+003,4.183313e-001
1.311413e+003,4.067150e-001
1.315270e+003,3.920693e-001
1.319127e+003,3.863382e-001
1.322984e+003,3.830392e-001
1.326841e+003,3.803729e-001
1.330698e+003,3.737976e-001
1.334555e+003,3.609436e-001
1.338412e+003,3.621211e-001
1.342270e+003,3.677421e-001
1.346127e+003,3.559785e-001
1.349984e+003,3.442244e-001
1.353841e+003,3.377195e-001
1.357698e+003,3.361011e-001
1.361555e+003,3.406517e-001
1.365412e+003,3.379034e-001
1.369269e+003,3.399568e-001
1.373126e+003,3.456312e-001
1.376983e+003,3.516414e-001
1.380840e+003,3.597631e-001
1.384698e+003,3.665600e-001
1.388555e+003,3.679593e-001
1.392412e+003,3.716325e-001
1.396269e+003,3.835317e-001
1.400126e+003,3.917414e-001
1.403983e+003,3.955974e-001
1.407840e+003,3.982489e-001
1.411697e+003,4.094813e-001
1.415554e+003,4.185261e-001
1.419411e+003,4.283379e-001
1.423269e+003,4.359876e-001
1.427126e+003,4.385432e-001
1.430983e+003,4.354523e-001
1.434840e+003,4.346735e-001
1.438697e+003,4.356241e-001
1.442554e+003,4.317929e-001
1.446411e+003,4.201111e-001
1.450268e+003,4.169164e-001
1.454125e+003,4.135035e-001
1.457982e+003,3.995581e-001
1.461839e+003,3.891762e-001
1.465697e+003,3.928152e-001
1.469554e+003,3.934246e-001
1.473411e+003,3.907151e-001
1.477268e+003,3.878586e-001
1.481125e+003,3.901677e-001
1.484982e+003,4.030291e-001
1.488839e+003,4.096074e-001
1.492696e+003,4.135301e-001
1.496553e+003,4.182526e-001
1.500411e+003,4.280794e-001
1.504268e+003,4.344512e-001
1.508125e+003,4.287919e-001
1.511982e+003,4.284240e-001
1.515839e+003,4.312076e-001
1.519696e+003,4.318444e-001
1.523553e+003,4.255329e-001
1.527410e+003,4.130302e-001
1.531267e+003,4.007081e-001
1.535124e+003,3.959162e-001
1.538981e+003,3.904478e-001
1.542839e+003,3.769119e-001
1.546696e+003,3.629875e-001
1.550553e+003,3.540214e-001
1.554410e+003,3.394352e-001
1.558267e+003,3.327526e-001
1.562124e+003,3.271192e-001
1.565981e+003,3.202619e-001
1.569838e+003,3.209236e-001
1.573695e+003,3.195051e-001
1.577552e+003,3.131013e-001
1.581410e+003,3.086428e-001
1.585267e+003,3.137881e-001
1.589124e+003,3.237915e-001
1.592981e+003,3.324542e-001
1.596838e+003,3.364179e-001
1.600695e+003,3.436989e-001
1.604552e+003,3.595857e-001
1.608409e+003,3.738978e-001
1.612266e+003,3.943254e-001
1.616123e+003,4.223643e-001
1.619980e+003,4.453734e-001
1.623838e+003,4.652448e-001
1.627695e+003,4.842117e-001
1.631552e+003,4.939918e-001
1.635409e+003,4.985710e-001
1.639266e+003,5.057226e-001
1.643123e+003,5.071781e-001
1.646980e+003,4.933656e-001
1.650837e+003,4.756501e-001
1.654694e+003,4.635287e-001
1.658551e+003,4.469116e-001
1.662409e+003,4.252314e-001
1.666266e+003,4.107825e-001
1.670123e+003,3.950130e-001
1.673980e+003,3.734363e-001
1.677837e+003,3.566590e-001
1.681694e+003,3.440759e-001
1.685551e+003,3.343515e-001
1.689408e+003,3.249362e-001
1.693265e+003,3.147043e-001
1.697122e+003,3.018734e-001
1.700979e+003,2.923920e-001
1.704837e+003,2.899930e-001
1.708694e+003,2.857929e-001
1.712551e+003,2.780622e-001
1.716408e+003,2.769028e-001
1.720265e+003,2.808883e-001
1.724122e+003,2.778618e-001
1.727979e+003,2.784990e-001
1.731836e+003,2.761831e-001
1.735693e+003,2.730663e-001
1.739550e+003,2.738357e-001
1.743408e+003,2.760820e-001
1.747265e+003,2.753915e-001
1.751122e+003,2.745347e-001
1.754979e+003,2.737647e-001
1.758836e+003,2.786529e-001
1.762693e+003,2.838460e-001
1.766550e+003,2.792818e-001
1.770407e+003,2.729557e-001
1.774264e+003,2.754098e-001
1.778121e+003,2.738682e-001
1.781979e+003,2.696162e-001
1.785836e+003,2.661156e-001
1.789693e+003,2.609326e-001
1.793550e+003,2.560435e-001
1.797407e+003,2.539605e-001
1.801264e+003,2.532701e-001
1.805121e+003,2.489199e-001
1.808978e+003,2.414435e-001
1.812835e+003,2.343015e-001
1.816692e+003,2.335948e-001
1.820549e+003,2.366439e-001
1.824407e+003,2.382647e-001
1.828264e+003,2.377035e-001
1.832121e+003,2.391943e-001
1.835978e+003,2.408532e-001
1.839835e+003,2.394305e-001
1.843692e+003,2.365934e-001
1.847549e+003,2.350952e-001
1.851406e+003,2.363087e-001
1.855263e+003,2.398915e-001
1.859120e+003,2.397641e-001
1.862978e+003,2.362203e-001
1.866835e+003,2.342764e-001
1.870692e+003,2.337968e-001
1.874549e+003,2.331672e-001
1.878406e+003,2.390307e-001
1.882263e+003,2.428995e-001
1.886120e+003,2.387729e-001
1.889977e+003,2.366573e-001
1.893834e+003,2.372569e-001
1.897691e+003,2.380368e-001
1.901548e+003,2.399087e-001
1.905406e+003,2.374752e-001
1.909263e+003,2.334210e-001
1.913120e+003,2.308008e-001
1.916977e+003,2.267264e-001
1.920834e+003,2.269828e-001
1.924691e+003,2.249677e-001
1.928548e+003,2.181704e-001
1.932405e+003,2.141374e-001
1.936262e+003,2.121775e-001
1.940119e+003,2.122438e-001
1.943977e+003,2.126589e-001
1.947834e+003,2.123234e-001
1.951691e+003,2.106395e-001
1.955548e+003,2.085481e-001
1.959405e+003,2.049619e-001
1.963262e+003,2.047963e-001
1.967119e+003,2.039183e-001
1.970976e+003,2.026711e-001
1.974833e+003,2.031517e-001
1.978690e+003,2.056042e-001
1.982547e+003,2.101795e-001
1.986405e+003,2.156055e-001
1.990262e+003,2.178222e-001
1.994119e+003,2.188659e-001
1.997976e+003,2.201584e-001
2.001833e+003,2.172538e-001
2.005690e+003,2.139900e-001
2.009547e+003,2.150195e-001
2.013404e+003,2.147429e-001
2.017261e+003,2.177029e-001
2.021118e+003,2.176032e-001
2.024976e+003,2.131509e-001
2.028833e+003,2.132368e-001
2.032690e+003,2.113360e-001
2.036547e+003,2.103112e-001
2.040404e+003,2.110227e-001
2.044261e+003,2.075524e-001
2.048118e+003,1.987504e-001
2.051975e+003,1.925353e-001
2.055832e+003,1.902033e-001
2.059689e+003,1.904378e-001
2.063546e+003,1.904722e-001
2.067404e+003,1.905533e-001
2.071261e+003,1.886919e-001
2.075118e+003,1.857614e-001
2.078975e+003,1.830564e-001
2.082832e+003,1.853395e-001
2.086689e+003,1.915192e-001
2.090546e+003,1.935477e-001
2.094403e+003,1.898252e-001
2.098260e+003,1.887655e-001
2.102117e+003,1.923032e-001
2.105975e+003,1.930975e-001
2.109832e+003,1.939187e-001
2.113689e+003,1.974133e-001
2.117546e+003,1.991417e-001
2.121403e+003,2.010887e-001
2.125260e+003,2.043011e-001
2.129117e+003,2.063979e-001
2.132974e+003,2.078397e-001
2.136831e+003,2.080753e-001
2.140688e+003,2.057754e-001
2.144545e+003,2.056006e-001
2.148403e+003,2.050356e-001
2.152260e+003,1.999121e-001
2.156117e+003,1.970156e-001
2.159974e+003,1.992963e-001
2.163831e+003,1.977981e-001
2.167688e+003,1.939222e-001
2.171545e+003,1.919033e-001
2.175402e+003,1.920814e-001
2.179259e+003,1.913935e-001
2.183116e+003,1.880583e-001
2.186974e+003,1.858866e-001
2.190831e+003,1.863064e-001
2.194688e+003,1.861449e-001
2.198545e+003,1.878488e-001
2.202402e+003,1.859239e-001
2.206259e+003,1.815307e-001
2.210116e+003,1.839285e-001
2.213973e+003,1.872505e-001
2.217830e+003,1.882811e-001
2.221688e+003,1.932592e-001
2.225544e+003,1.969189e-001
2.229402e+003,1.974968e-001
2.233259e+003,1.973248e-001
2.237116e+003,1.998317e-001
2.240973e+003,2.014574e-001
2.244830e+003,2.043217e-001
2.248687e+003,2.063694e-001
2.252544e+003,2.040830e-001
2.256401e+003,2.038513e-001
2.260258e+003,2.038944e-001
2.264115e+003,2.044186e-001
2.267973e+003,2.065821e-001
2.271830e+003,2.113807e-001
2.275687e+003,2.126522e-001
2.279544e+003,2.124265e-001
2.283401e+003,2.127268e-001
2.287258e+003,2.101831e-001
2.291115e+003,2.098202e-001
2.294972e+003,2.087122e-001
2.298829e+003,2.043498e-001
2.302687e+003,2.004630e-001
2.306543e+003,1.968530e-001
2.310401e+003,1.964701e-001
2.314258e+003,1.967615e-001
2.318115e+003,2.009344e-001
2.321972e+003,2.068409e-001
2.325829e+003,2.056285e-001
2.329686e+003,2.047719e-001
2.333543e+003,2.060592e-001
2.337400e+003,2.064261e-001
2.341257e+003,2.034630e-001
2.345115e+003,2.000894e-001
2.348972e+003,2.013384e-001
2.352829e+003,2.061224e-001
2.356686e+003,2.089172e-001
2.360543e+003,2.065351e-001
2.364400e+003,2.090213e-001
2.368257e+003,2.122310e-001
2.372114e+003,2.143800e-001
2.375971e+003,2.137883e-001
2.379828e+003,2.119978e-001
2.383686e+003,2.095524e-001
2.387542e+003,2.065738e-001
2.391400e+003,2.095458e-001
2.395257e+003,2.143825e-001
2.399114e+003,2.138392e-001
2.402971e+003,2.126547e-001
2.406828e+003,2.127444e-001
2.410685e+003,2.133973e-001
2.414542e+003,2.052970e-001
2.418399e+003,2.001103e-001
2.422256e+003,2.010749e-001
2.426114e+003,1.983768e-001
2.429971e+003,1.976459e-001
2.433828e+003,1.990295e-001
2.437685e+003,1.951156e-001
2.441542e+003,1.925843e-001
2.445399e+003,1.903198e-001
2.449256e+003,1.876051e-001
2.453113e+003,1.896872e-001
2.456970e+003,1.898193e-001
2.460827e+003,1.876494e-001
2.464684e+003,1.847866e-001
2.468542e+003,1.852132e-001
2.472399e+003,1.889203e-001
2.476256e+003,1.921795e-001
2.480113e+003,1.938534e-001
2.483970e+003,1.944557e-001
2.487827e+003,1.974758e-001
2.491684e+003,1.973660e-001
2.495541e+003,1.938799e-001
2.499398e+003,1.959552e-001
2.503255e+003,2.015252e-001
2.507113e+003,2.049217e-001
2.510969e+003,2.037609e-001
2.514827e+003,2.037459e-001
2.518684e+003,2.041576e-001
2.522541e+003,2.050242e-001
2.526398e+003,2.091205e-001
2.530255e+003,2.090421e-001
2.534112e+003,2.085111e-001
2.537969e+003,2.071172e-001
2.541826e+003,2.064718e-001
2.545683e+003,2.079771e-001
2.549541e+003,2.112390e-001
2.553398e+003,2.086315e-001
2.557255e+003,2.028109e-001
2.561112e+003,1.997333e-001
2.564969e+003,2.017256e-001
2.568826e+003,2.072318e-001
2.572683e+003,2.050169e-001
2.576540e+003,1.979428e-001
2.580397e+003,1.957050e-001
2.584254e+003,1.975397e-001
2.588112e+003,1.987871e-001
2.591969e+003,1.991471e-001
2.595826e+003,2.010670e-001
2.599683e+003,2.067714e-001
2.603540e+003,2.096071e-001
2.607397e+003,2.067174e-001
2.611254e+003,2.079830e-001
2.615111e+003,2.120803e-001
2.618968e+003,2.156535e-001
2.622825e+003,2.204708e-001
2.626682e+003,2.247476e-001
2.630540e+003,2.248092e-001
2.634397e+003,2.273936e-001
2.638254e+003,2.330050e-001
2.642111e+003,2.373081e-001
2.645968e+003,2.382162e-001
2.649825e+003,2.388697e-001
2.653682e+003,2.383734e-001
2.657539e+003,2.379270e-001
2.661396e+003,2.383995e-001
2.665253e+003,2.399663e-001
2.669111e+003,2.424461e-001
2.672968e+003,2.414344e-001
2.676825e+003,2.408892e-001
2.680682e+003,2.388331e-001
2.684539e+003,2.354145e-001
2.688396e+003,2.367580e-001
2.692253e+003,2.411576e-001
2.696110e+003,2.413567e-001
2.699967e+003,2.403264e-001
2.703824e+003,2.415477e-001
2.707681e+003,2.451914e-001
2.711539e+003,2.476395e-001
2.715396e+003,2.486948e-001
2.719253e+003,2.501380e-001
2.723110e+003,2.502927e-001
2.726967e+003,2.552988e-001
2.730824e+003,2.548977e-001
2.734681e+003,2.595452e-001
2.738538e+003,2.640571e-001
2.742395e+003,2.642216e-001
2.746252e+003,2.660089e-001
2.750110e+003,2.712044e-001
2.753967e+003,2.765803e-001
2.757824e+003,2.782862e-001
2.761681e+003,2.794227e-001
2.765538e+003,2.825560e-001
2.769395e+003,2.894191e-001
2.773252e+003,2.951943e-001
2.777109e+003,2.959161e-001
2.780966e+003,2.994054e-001
2.784823e+003,2.995726e-001
2.788680e+003,3.004061e-001
2.792538e+003,3.028151e-001
2.796395e+003,3.068416e-001
2.800252e+003,3.060671e-001
2.804109e+003,3.040218e-001
2.807966e+003,3.085703e-001
2.811823e+003,3.108145e-001
2.815680e+003,3.096673e-001
2.819537e+003,3.085348e-001
2.823394e+003,3.116112e-001
2.827251e+003,3.136444e-001
2.831109e+003,3.114074e-001
2.834966e+003,3.115169e-001
2.838823e+003,3.168550e-001
2.842680e+003,3.243090e-001
2.846537e+003,3.251810e-001
2.850394e+003,3.284991e-001
2.854251e+003,3.329879e-001
2.858108e+003,3.314513e-001
2.861965e+003,3.373362e-001
2.865823e+003,3.427188e-001
2.869679e+003,3.478662e-001
2.873537e+003,3.494999e-001
2.877394e+003,3.455698e-001
2.881251e+003,3.513309e-001
2.885108e+003,3.623887e-001
2.888965e+003,3.667341e-001
2.892822e+003,3.727517e-001
2.896679e+003,3.754623e-001
2.900536e+003,3.682877e-001
2.904393e+003,3.710898e-001
2.908250e+003,3.815602e-001
2.912108e+003,3.893240e-001
2.915965e+003,3.936477e-001
2.919822e+003,3.877709e-001
2.923679e+003,3.886771e-001
2.927536e+003,3.944038e-001
2.931393e+003,3.987013e-001
2.935250e+003,4.022466e-001
2.939107e+003,3.997116e-001
2.942964e+003,3.979172e-001
2.946822e+003,4.044999e-001
2.950678e+003,4.085036e-001
2.954536e+003,4.120040e-001
2.958393e+003,4.156925e-001
2.962250e+003,4.189275e-001
2.966107e+003,4.231934e-001
2.969964e+003,4.259750e-001
2.973821e+003,4.290542e-001
2.977678e+003,4.306786e-001
2.981535e+003,4.314718e-001
2.985392e+003,4.328879e-001
2.989250e+003,4.363934e-001
2.993107e+003,4.377145e-001
2.996964e+003,4.454144e-001
3.000821e+003,4.540955e-001
3.004678e+003,4.550826e-001
3.008535e+003,4.564013e-001
3.012392e+003,4.629144e-001
3.016249e+003,4.688784e-001
3.020106e+003,4.748107e-001
3.023963e+003,4.814789e-001
3.027821e+003,4.850309e-001
3.031677e+003,4.884690e-001
3.035535e+003,4.939108e-001
3.039392e+003,5.008785e-001
3.043249e+003,4.978452e-001
3.047106e+003,5.008228e-001
3.050963e+003,5.060479e-001
3.054820e+003,5.063413e-001
3.058677e+003,5.094053e-001
3.062534e+003,5.126541e-001
3.066391e+003,5.112462e-001
3.070249e+003,5.077801e-001
3.074106e+003,5.158305e-001
3.077963e+003,5.316343e-001
3.081820e+003,5.398448e-001
3.085677e+003,5.381615e-001
3.089534e+003,5.375637e-001
3.093391e+003,5.374014e-001
3.097248e+003,5.359069e-001
3.101105e+003,5.403275e-001
3.104962e+003,5.488564e-001
3.108820e+003,5.603318e-001
3.112677e+003,5.597998e-001
3.116534e+003,5.613598e-001
3.120391e+003,5.672215e-001
3.124248e+003,5.834161e-001
3.128105e+003,5.914204e-001
3.131962e+003,5.884246e-001
3.135819e+003,5.899773e-001
3.139676e+003,6.014733e-001
3.143533e+003,6.061533e-001
3.147390e+003,6.106162e-001
3.151248e+003,6.172357e-001
3.155105e+003,6.225566e-001
3.158962e+003,6.258206e-001
3.162819e+003,6.273077e-001
3.166676e+003,6.367565e-001
3.170533e+003,6.463209e-001
3.174390e+003,6.476370e-001
3.178247e+003,6.387376e-001
3.182104e+003,6.384217e-001
3.185961e+003,6.405135e-001
3.189819e+003,6.441891e-001
3.193676e+003,6.558446e-001
3.197533e+003,6.616411e-001
3.201390e+003,6.582533e-001
3.205247e+003,6.680892e-001
3.209104e+003,6.750833e-001
3.212961e+003,6.707230e-001
3.216818e+003,6.637348e-001
3.220675e+003,6.620247e-001
3.224532e+003,6.713418e-001
3.228389e+003,6.794862e-001
3.232247e+003,6.763285e-001
3.236104e+003,6.813030e-001
3.239961e+003,6.914918e-001
3.243818e+003,7.034764e-001
3.247675e+003,7.144154e-001
3.251532e+003,7.114595e-001
3.255389e+003,6.997641e-001
3.259246e+003,6.959370e-001
3.263103e+003,7.008197e-001
3.266960e+003,7.087895e-001
3.270818e+003,7.271129e-001
3.274675e+003,7.346252e-001
3.278532e+003,7.342100e-001
3.282389e+003,7.435247e-001
3.286246e+003,7.480901e-001
3.290103e+003,7.449009e-001
3.293960e+003,7.348367e-001
3.297817e+003,7.359567e-001
3.301674e+003,7.523410e-001
3.305531e+003,7.502679e-001
3.309388e+003,7.503923e-001
3.313246e+003,7.577327e-001
3.317103e+003,7.649081e-001
3.320960e+003,7.658769e-001
3.324817e+003,7.774101e-001
3.328674e+003,7.800847e-001
3.332531e+003,7.640232e-001
3.336388e+003,7.669231e-001
3.340245e+003,7.822558e-001
3.344102e+003,7.753929e-001
3.347959e+003,7.670723e-001
3.351817e+003,7.742579e-001
3.355674e+003,7.722189e-001
3.359531e+003,7.791120e-001
3.363388e+003,7.919834e-001
3.367245e+003,7.999064e-001
3.371102e+003,8.016464e-001
3.374959e+003,7.967098e-001
3.378816e+003,7.993827e-001
3.382673e+003,8.256950e-001
3.386530e+003,8.386943e-001
3.390387e+003,8.253045e-001
3.394245e+003,8.212060e-001
3.398102e+003,8.207238e-001
3.401959e+003,8.264948e-001
3.405816e+003,8.320235e-001
3.409673e+003,8.256111e-001
3.413530e+003,8.389975e-001
3.417387e+003,8.547443e-001
3.421244e+003,8.438315e-001
3.425101e+003,8.489404e-001
3.428958e+003,8.660896e-001
3.432815e+003,8.729365e-001
3.436673e+003,8.635903e-001
3.440530e+003,8.533571e-001
3.444387e+003,8.585683e-001
3.448244e+003,8.551307e-001
3.452101e+003,8.569822e-001
3.455958e+003,8.751250e-001
3.459815e+003,8.664432e-001
3.463672e+003,8.516461e-001
3.467529e+003,8.603900e-001
3.471386e+003,8.693988e-001
3.475244e+003,8.637718e-001
3.479101e+003,8.583634e-001
3.482958e+003,8.502115e-001
3.486815e+003,8.622442e-001
3.490672e+003,8.798596e-001
3.494529e+003,8.538468e-001
3.498386e+003,8.318883e-001
3.502243e+003,8.365712e-001
3.506100e+003,8.289739e-001
3.509958e+003,8.175933e-001
3.513814e+003,8.291797e-001
3.517672e+003,8.446647e-001
3.521529e+003,8.492233e-001
3.525386e+003,8.441259e-001
3.529243e+003,8.492507e-001
3.533100e+003,8.587640e-001
3.536957e+003,8.585079e-001
3.540814e+003,8.626024e-001
3.544671e+003,8.708979e-001
3.548528e+003,8.771902e-001
3.552385e+003,8.572603e-001
3.556243e+003,8.465971e-001
3.560100e+003,8.604089e-001
3.563957e+003,8.617938e-001
3.567814e+003,8.491108e-001
3.571671e+003,8.274980e-001
3.575528e+003,8.247498e-001
3.579385e+003,8.247835e-001
3.583242e+003,7.968859e-001
3.587099e+003,7.917710e-001
3.590957e+003,8.027355e-001
3.594813e+003,7.803189e-001
3.598671e+003,7.542769e-001
3.602528e+003,7.379251e-001
3.606385e+003,7.211825e-001
3.610242e+003,7.028210e-001
3.614099e+003,6.797263e-001
3.617956e+003,6.485453e-001
3.621813e+003,6.152927e-001
3.625670e+003,5.909749e-001
3.629527e+003,5.684462e-001
3.633385e+003,5.376894e-001
3.637242e+003,5.089136e-001
3.641099e+003,4.857804e-001
3.644956e+003,4.575919e-001
3.648813e+003,4.291630e-001
3.652670e+003,3.988670e-001
3.656527e+003,3.703735e-001
3.660384e+003,3.469252e-001
3.664241e+003,3.305495e-001
3.668098e+003,3.150210e-001
3.671956e+003,2.983624e-001
3.675813e+003,2.799165e-001
3.679670e+003,2.690010e-001
3.683527e+003,2.605096e-001
3.687384e+003,2.476593e-001
3.691241e+003,2.349948e-001
3.695098e+003,2.254947e-001
3.698955e+003,2.138711e-001
3.702812e+003,2.089024e-001
3.706669e+003,2.065176e-001
3.710526e+003,2.003368e-001
3.714384e+003,1.922707e-001
3.718241e+003,1.844836e-001
3.722098e+003,1.773847e-001
3.725955e+003,1.732389e-001
3.729812e+003,1.697142e-001
3.733669e+003,1.658421e-001
3.737526e+003,1.647233e-001
3.741383e+003,1.663730e-001
3.745240e+003,1.628486e-001
3.749097e+003,1.610858e-001
3.752955e+003,1.630802e-001
3.756812e+003,1.647743e-001
3.760669e+003,1.668789e-001
3.764526e+003,1.692294e-001
3.768383e+003,1.686136e-001
3.772240e+003,1.716616e-001
3.776097e+003,1.785973e-001
3.779954e+003,1.810607e-001
3.783811e+003,1.774554e-001
3.787668e+003,1.745828e-001
3.791525e+003,1.751835e-001
3.795383e+003,1.788499e-001
3.799240e+003,1.795117e-001
3.803097e+003,1.770167e-001
3.806954e+003,1.753116e-001
3.810811e+003,1.764458e-001
3.814668e+003,1.760641e-001
3.818525e+003,1.755030e-001
3.822382e+003,1.738522e-001
3.826239e+003,1.706304e-001
3.830096e+003,1.647710e-001
3.833954e+003,1.656001e-001
3.837811e+003,1.667598e-001
3.841668e+003,1.608119e-001
3.845525e+003,1.542290e-001
3.849382e+003,1.544751e-001
3.853239e+003,1.587887e-001
3.857096e+003,1.568651e-001
3.860953e+003,1.536874e-001
3.864810e+003,1.570007e-001
3.868667e+003,1.573411e-001
3.872524e+003,1.545657e-001
3.876382e+003,1.550593e-001
3.880239e+003,1.574009e-001
3.884096e+003,1.559683e-001
3.887953e+003,1.555921e-001
3.891810e+003,1.644595e-001
3.895667e+003,1.668952e-001
3.899524e+003,1.660889e-001
3.903381e+003,1.692013e-001
3.907238e+003,1.688029e-001
3.911095e+003,1.704293e-001
3.914953e+003,1.736010e-001
3.918810e+003,1.768627e-001
3.922667e+003,1.790650e-001
3.926524e+003,1.797493e-001
3.930381e+003,1.809711e-001
3.934238e+003,1.790829e-001
3.938095e+003,1.759283e-001
3.941952e+003,1.712990e-001
3.945809e+003,1.683000e-001
3.949667e+003,1.674327e-001
3.953523e+003,1.641016e-001
3.957381e+003,1.637222e-001
3.961238e+003,1.613951e-001
3.965095e+003,1.584964e-001
3.968952e+003,1.567178e-001
3.972809e+003,1.538440e-001
3.976666e+003,1.515036e-001
3.980523e+003,1.526780e-001
3.984380e+003,1.503544e-001
3.988237e+003,1.478534e-001
3.992094e+003,1.510143e-001
3.995952e+003,1.550534e-001
3.999809e+003,1.561959e-001
4.003666e+003,1.535774e-001
4.007523e+003,1.534549e-001
4.011380e+003,1.552974e-001
4.015237e+003,1.648742e-001
4.019094e+003,1.677109e-001
4.022951e+003,1.590349e-001
4.026808e+003,1.599908e-001
4.030666e+003,1.616117e-001
4.034522e+003,1.675842e-001
4.038380e+003,1.722874e-001
4.042237e+003,1.725949e-001
4.046094e+003,1.710951e-001
4.049951e+003,1.710875e-001
4.053808e+003,1.719500e-001
4.057665e+003,1.705981e-001
4.061522e+003,1.684879e-001
4.065379e+003,1.694293e-001
4.069236e+003,1.676686e-001
4.073094e+003,1.695871e-001
4.076951e+003,1.713044e-001
4.080808e+003,1.635639e-001
4.084665e+003,1.628124e-001
4.088522e+003,1.611994e-001
4.092379e+003,1.579595e-001
4.096236e+003,1.565817e-001
4.100093e+003,1.567528e-001
4.103950e+003,1.518568e-001
4.107808e+003,1.500658e-001
4.111665e+003,1.550978e-001
4.115521e+003,1.557326e-001
4.119379e+003,1.502989e-001
4.123236e+003,1.494228e-001
4.127093e+003,1.506939e-001
4.130950e+003,1.459484e-001
4.134807e+003,1.435235e-001
4.138664e+003,1.450054e-001
4.142521e+003,1.478756e-001
4.146378e+003,1.532204e-001
4.150235e+003,1.523385e-001
4.154093e+003,1.531187e-001
4.157950e+003,1.524198e-001
4.161807e+003,1.573106e-001
4.165664e+003,1.608468e-001
4.169521e+003,1.611918e-001
4.173378e+003,1.638486e-001
4.177235e+003,1.633485e-001
4.181092e+003,1.666684e-001
4.184949e+003,1.730272e-001
4.188807e+003,1.719524e-001
4.192664e+003,1.692688e-001
4.196521e+003,1.735425e-001
4.200378e+003,1.723887e-001
4.204235e+003,1.684698e-001
4.208092e+003,1.657777e-001
4.211949e+003,1.596044e-001
4.215806e+003,1.612810e-001
4.219663e+003,1.620493e-001
4.223521e+003,1.608956e-001
4.227377e+003,1.605122e-001
4.231234e+003,1.580291e-001
4.235092e+003,1.551094e-001
4.238949e+003,1.533716e-001
4.242806e+003,1.499612e-001
4.246663e+003,1.523061e-001
4.250520e+003,1.535217e-001
4.254377e+003,1.480461e-001
4.258234e+003,1.485001e-001
4.262091e+003,1.505558e-001
4.265948e+003,1.460800e-001
4.269806e+003,1.420138e-001
4.273663e+003,1.457933e-001
4.277520e+003,1.532546e-001
4.281377e+003,1.488848e-001
4.285234e+003,1.420374e-001
4.289091e+003,1.463026e-001
4.292948e+003,1.528513e-001
4.296805e+003,1.606726e-001
4.300662e+003,1.667703e-001
4.304520e+003,1.761805e-001
4.308376e+003,1.793682e-001
4.312233e+003,1.719510e-001
4.316091e+003,1.678585e-001
4.319948e+003,1.679686e-001
4.323805e+003,1.653745e-001
4.327662e+003,1.607493e-001
4.331519e+003,1.695182e-001
4.335376e+003,1.711302e-001
4.339233e+003,1.628305e-001
4.343090e+003,1.591766e-001
4.346947e+003,1.642693e-001
4.350805e+003,1.685546e-001
4.354662e+003,1.670609e-001
4.358519e+003,1.613282e-001
4.362376e+003,1.596364e-001
4.366233e+003,1.625112e-001
4.370090e+003,1.595543e-001
4.373947e+003,1.564726e-001
4.377804e+003,1.498575e-001
4.381661e+003,1.498625e-001
4.385519e+003,1.525996e-001
4.389375e+003,1.510047e-001
4.393232e+003,1.495190e-001
4.397090e+003,1.496544e-001
4.400947e+003,1.499356e-001
4.404804e+003,1.597391e-001
4.408661e+003,1.568238e-001
4.412518e+003,1.514182e-001
4.416375e+003,1.481928e-001
4.420232e+003,1.540750e-001
4.424089e+003,1.607166e-001
4.427946e+003,1.608928e-001
4.431804e+003,1.588152e-001
4.435661e+003,1.610978e-001
4.439518e+003,1.674367e-001
4.443375e+003,1.742297e-001
4.447232e+003,1.728337e-001
4.451089e+003,1.713271e-001
4.454946e+003,1.688834e-001
4.458803e+003,1.694963e-001
4.462660e+003,1.718266e-001
4.466518e+003,1.737128e-001
4.470375e+003,1.752272e-001
4.474231e+003,1.738276e-001
4.478089e+003,1.755305e-001
4.481946e+003,1.695093e-001
4.485803e+003,1.655588e-001
4.489660e+003,1.656986e-001
4.493517e+003,1.647974e-001
4.497375e+003,1.645578e-001
4.501231e+003,1.664277e-001
4.505088e+003,1.671774e-001
4.508946e+003,1.607508e-001
4.512803e+003,1.573052e-001
4.516660e+003,1.577257e-001
4.520517e+003,1.553184e-001
4.524374e+003,1.574820e-001
4.528231e+003,1.525318e-001
4.532088e+003,1.478523e-001
4.535945e+003,1.521617e-001
4.539802e+003,1.584372e-001
4.543660e+003,1.619789e-001
4.547517e+003,1.664187e-001
4.551374e+003,1.590461e-001
4.555231e+003,1.477524e-001
4.559088e+003,1.453287e-001
4.562945e+003,1.497597e-001
4.566802e+003,1.601968e-001
4.570659e+003,1.678413e-001
4.574516e+003,1.708632e-001
4.578374e+003,1.688144e-001
4.582230e+003,1.669793e-001
4.586087e+003,1.690157e-001
4.589945e+003,1.696054e-001
4.593802e+003,1.683713e-001
4.597659e+003,1.671825e-001
4.601516e+003,1.657124e-001
4.605373e+003,1.730996e-001
4.609230e+003,1.791186e-001
4.613087e+003,1.695878e-001
4.616944e+003,1.645286e-001
4.620801e+003,1.630782e-001
4.624659e+003,1.648222e-001
4.628516e+003,1.581151e-001
4.632373e+003,1.496652e-001
4.636230e+003,1.533317e-001
4.640087e+003,1.576642e-001
4.643944e+003,1.579080e-001
4.647801e+003,1.576543e-001
4.651658e+003,1.604688e-001
4.655515e+003,1.583025e-001
4.659373e+003,1.502999e-001
4.663229e+003,1.466300e-001
4.667086e+003,1.466337e-001
4.670944e+003,1.457524e-001
4.674801e+003,1.476474e-001
4.678658e+003,1.518518e-001
4.682515e+003,1.505727e-001
4.686372e+003,1.508970e-001
4.690229e+003,1.512944e-001
4.694086e+003,1.430248e-001
4.697943e+003,1.478352e-001
4.701800e+003,1.548263e-001
4.705658e+003,1.562412e-001
4.709515e+003,1.607272e-001
4.713372e+003,1.630235e-001
4.717229e+003,1.618625e-001
4.721086e+003,1.593312e-001
4.724943e+003,1.602667e-001
4.728800e+003,1.669647e-001
4.732657e+003,1.671682e-001
4.736514e+003,1.689088e-001
4.740372e+003,1.779765e-001
4.744229e+003,1.740042e-001
4.748085e+003,1.722741e-001
4.751943e+003,1.760670e-001
4.755800e+003,1.754602e-001
4.759657e+003,1.687548e-001
4.763514e+003,1.681185e-001
4.767371e+003,1.644524e-001
4.771228e+003,1.579845e-001
4.775085e+003,1.635316e-001
4.778942e+003,1.742830e-001
4.782799e+003,1.726374e-001
4.786657e+003,1.754208e-001
4.790514e+003,1.766772e-001
4.794371e+003,1.631304e-001
4.798228e+003,1.511957e-001
4.802085e+003,1.493754e-001
4.805942e+003,1.537450e-001
4.809799e+003,1.569088e-001
4.813656e+003,1.558169e-001
4.817513e+003,1.579395e-001
4.821371e+003,1.592431e-001
4.825228e+003,1.580434e-001
4.829084e+003,1.531861e-001
4.832942e+003,1.618575e-001
4.836799e+003,1.695098e-001
4.840656e+003,1.632292e-001
4.844513e+003,1.572669e-001
4.848370e+003,1.629013e-001
4.852227e+003,1.700351e-001
4.856084e+003,1.784222e-001
4.859941e+003,1.825200e-001
4.863798e+003,1.685613e-001
4.867656e+003,1.664192e-001
4.871513e+003,1.670628e-001
4.875370e+003,1.661595e-001
4.879227e+003,1.639505e-001
4.883084e+003,1.689027e-001
4.886941e+003,1.666829e-001
4.890798e+003,1.582314e-001
4.894655e+003,1.660098e-001
4.898512e+003,1.710409e-001
4.902370e+003,1.676552e-001
4.906227e+003,1.688184e-001
4.910083e+003,1.661691e-001
4.913941e+003,1.581935e-001
4.917798e+003,1.596967e-001
4.921655e+003,1.636961e-001
4.925512e+003,1.615549e-001
4.929369e+003,1.608048e-001
4.933226e+003,1.610588e-001
4.937083e+003,1.549407e-001
4.940940e+003,1.452796e-001
4.944797e+003,1.426768e-001
4.948655e+003,1.500058e-001
4.952512e+003,1.596682e-001
4.956369e+003,1.654282e-001
4.960226e+003,1.676549e-001
4.964083e+003,1.718020e-001
4.967940e+003,1.654169e-001
4.971797e+003,1.614898e-001
4.975654e+003,1.633144e-001
4.979511e+003,1.668709e-001
4.983369e+003,1.688537e-001
4.987226e+003,1.739317e-001
4.991083e+003,1.715026e-001
4.994940e+003,1.757981e-001
4.998797e+003,1.757432e-001
5.002654e+003,1.655707e-001
5.006511e+003,1.655281e-001
5.010368e+003,1.645523e-001
5.014225e+003,1.722623e-001
5.018083e+003,1.824457e-001
5.021939e+003,1.794417e-001
5.025796e+003,1.719472e-001
5.029654e+003,1.701284e-001
5.033511e+003,1.669122e-001
5.037368e+003,1.601484e-001
5.041225e+003,1.526622e-001
5.045082e+003,1.522396e-001
5.048939e+003,1.547243e-001
5.052796e+003,1.657037e-001
5.056653e+003,1.716150e-001
5.060510e+003,1.651335e-001
5.064368e+003,1.654583e-001
5.068225e+003,1.677273e-001
5.072082e+003,1.595995e-001
5.075939e+003,1.598036e-001
5.079796e+003,1.667940e-001
5.083653e+003,1.674529e-001
5.087510e+003,1.635218e-001
5.091367e+003,1.665943e-001
5.095224e+003,1.578442e-001
5.099082e+003,1.534498e-001
5.102938e+003,1.603763e-001
5.106795e+003,1.677211e-001
5.110653e+003,1.733482e-001
5.114510e+003,1.775936e-001
5.118367e+003,1.746448e-001
5.122224e+003,1.721750e-001
5.126081e+003,1.745151e-001
5.129938e+003,1.720457e-001
5.133795e+003,1.776038e-001
5.137652e+003,1.904137e-001
5.141509e+003,1.947017e-001
5.145367e+003,1.914549e-001
5.149224e+003,1.825277e-001
5.153081e+003,1.686222e-001
5.156938e+003,1.646965e-001
5.160795e+003,1.583420e-001
5.164652e+003,1.631458e-001
5.168509e+003,1.679897e-001
5.172366e+003,1.696001e-001
5.176223e+003,1.699991e-001
5.180081e+003,1.694977e-001
5.183938e+003,1.653452e-001
5.187794e+003,1.674499e-001
5.191652e+003,1.748635e-001
5.195509e+003,1.719527e-001
5.199366e+003,1.674335e-001
5.203223e+003,1.669772e-001
5.207080e+003,1.777902e-001
5.210937e+003,1.686381e-001
5.214794e+003,1.578569e-001
5.218651e+003,1.648499e-001
5.222508e+003,1.675269e-001
5.226366e+003,1.702405e-001
5.230223e+003,1.674292e-001
5.234080e+003,1.605109e-001
5.237937e+003,1.577840e-001
5.241794e+003,1.641608e-001
5.245651e+003,1.685292e-001
5.249508e+003,1.629207e-001
5.253365e+003,1.571227e-001
5.257222e+003,1.668658e-001
5.261080e+003,1.655555e-001
5.264937e+003,1.678091e-001
5.268793e+003,1.757841e-001
5.272651e+003,1.740372e-001
5.276508e+003,1.732412e-001
5.280365e+003,1.809108e-001
5.284222e+003,1.887950e-001
5.288079e+003,1.865434e-001
5.291936e+003,1.777983e-001
5.295793e+003,1.766006e-001
5.299650e+003,1.769814e-001
5.303507e+003,1.726462e-001
5.307365e+003,1.705276e-001
5.311222e+003,1.738744e-001
5.315079e+003,1.671927e-001
5.318936e+003,1.679758e-001
5.322793e+003,1.722937e-001
5.326650e+003,1.653689e-001
5.330507e+003,1.584553e-001
5.334364e+003,1.529479e-001
5.338221e+003,1.509978e-001
5.342079e+003,1.476796e-001
5.345936e+003,1.524923e-001
5.349792e+003,1.621849e-001
5.353650e+003,1.632060e-001
5.357507e+003,1.637468e-001
5.361364e+003,1.712740e-001
5.365221e+003,1.667932e-001
5.369078e+003,1.675931e-001
5.372935e+003,1.760927e-001
5.376792e+003,1.749959e-001
5.380649e+003,1.651579e-001
5.384506e+003,1.613112e-001
5.388364e+003,1.646988e-001
5.392221e+003,1.643668e-001
5.396078e+003,1.631264e-001
5.399935e+003,1.667045e-001
5.403792e+003,1.710650e-001
5.407649e+003,1.675296e-001
5.411506e+003,1.706777e-001
5.415363e+003,1.654599e-001
5.419220e+003,1.651776e-001
5.423078e+003,1.697322e-001
5.426935e+003,1.725001e-001
5.430792e+003,1.718753e-001
5.434649e+003,1.720023e-001
5.438506e+003,1.603223e-001
5.442363e+003,1.577413e-001
5.446220e+003,1.628547e-001
5.450077e+003,1.607926e-001
5.453934e+003,1.609778e-001
5.457792e+003,1.616536e-001
5.461648e+003,1.583538e-001
5.465505e+003,1.600885e-001
5.469363e+003,1.636439e-001
5.473220e+003,1.588570e-001
5.477077e+003,1.543029e-001
5.480934e+003,1.473036e-001
5.484791e+003,1.553394e-001
5.488648e+003,1.656414e-001
5.492505e+003,1.620910e-001
5.496362e+003,1.599754e-001
5.500219e+003,1.584242e-001
5.504077e+003,1.590600e-001
5.507934e+003,1.554852e-001
5.511791e+003,1.586202e-001
5.515648e+003,1.712730e-001
5.519505e+003,1.739820e-001
5.523362e+003,1.779829e-001
5.527219e+003,1.742543e-001
5.531076e+003,1.730679e-001
5.534933e+003,1.758685e-001
5.538791e+003,1.740620e-001
5.542647e+003,1.713287e-001
5.546504e+003,1.696105e-001
5.550362e+003,1.629965e-001
5.554219e+003,1.646093e-001
5.558076e+003,1.707387e-001
5.561933e+003,1.679609e-001
5.565790e+003,1.676103e-001
5.569647e+003,1.710720e-001
5.573504e+003,1.712044e-001
5.577361e+003,1.690223e-001
5.581218e+003,1.550783e-001
5.585076e+003,1.541313e-001
5.588933e+003,1.564259e-001
5.592790e+003,1.536098e-001
5.596647e+003,1.468553e-001
5.600504e+003,1.463939e-001
5.604361e+003,1.508838e-001
5.608218e+003,1.515297e-001
5.612075e+003,1.596621e-001
5.615932e+003,1.700336e-001
5.619790e+003,1.653178e-001
5.623646e+003,1.585205e-001
5.627503e+003,1.549482e-001
5.631361e+003,1.545939e-001
5.635218e+003,1.551031e-001
5.639075e+003,1.656018e-001
5.642932e+003,1.626915e-001
5.646789e+003,1.627768e-001
5.650646e+003,1.680641e-001
5.654503e+003,1.618343e-001
5.658360e+003,1.705224e-001
5.662217e+003,1.771289e-001
5.666075e+003,1.656106e-001
5.669932e+003,1.601468e-001
5.673789e+003,1.581713e-001
5.677646e+003,1.592738e-001
5.681503e+003,1.602256e-001
5.685360e+003,1.555875e-001
5.689217e+003,1.469128e-001
5.693074e+003,1.463230e-001
5.696931e+003,1.548994e-001
5.700789e+003,1.631373e-001
5.704646e+003,1.687431e-001
5.708502e+003,1.758509e-001
5.712360e+003,1.749446e-001
5.716217e+003,1.614604e-001
5.720074e+003,1.549722e-001
5.723931e+003,1.603264e-001
5.727788e+003,1.535677e-001
5.731645e+003,1.550868e-001
5.735502e+003,1.633187e-001
5.739359e+003,1.659250e-001
5.743216e+003,1.578334e-001
5.747074e+003,1.585334e-001
5.750931e+003,1.558955e-001
5.754788e+003,1.447502e-001
5.758645e+003,1.505913e-001
5.762502e+003,1.596893e-001
5.766359e+003,1.662460e-001
5.770216e+003,1.661528e-001
5.774073e+003,1.647891e-001
5.777930e+003,1.820256e-001
5.781788e+003,1.672280e-001
5.785645e+003,1.478244e-001
5.789501e+003,1.543064e-001
5.793359e+003,1.708799e-001
5.797216e+003,1.766713e-001
5.801073e+003,1.676313e-001
5.804930e+003,1.589983e-001
5.808787e+003,1.573341e-001
5.812644e+003,1.484252e-001
5.816501e+003,1.604202e-001
5.820358e+003,1.803413e-001
5.824215e+003,1.808411e-001
5.828073e+003,1.752839e-001
5.831930e+003,1.640023e-001
5.835787e+003,1.637083e-001
5.839644e+003,1.785859e-001
5.843501e+003,1.783194e-001
5.847358e+003,1.719161e-001
5.851215e+003,1.618594e-001
5.855072e+003,1.558991e-001
5.858929e+003,1.623470e-001
5.862787e+003,1.638477e-001
5.866644e+003,1.653991e-001
5.870500e+003,1.684146e-001
5.874358e+003,1.615291e-001
5.878215e+003,1.635951e-001
5.882072e+003,1.649709e-001
5.885929e+003,1.526533e-001
5.889786e+003,1.510932e-001
5.893643e+003,1.546800e-001
5.897500e+003,1.508320e-001
5.901357e+003,1.544075e-001
5.905214e+003,1.605420e-001
5.909072e+003,1.613583e-001
5.912929e+003,1.677322e-001
5.916786e+003,1.608129e-001
5.920643e+003,1.567515e-001
5.924500e+003,1.657757e-001
5.928357e+003,1.681386e-001
5.932214e+003,1.645533e-001
5.936071e+003,1.583620e-001
5.939928e+003,1.613226e-001
5.943786e+003,1.729121e-001
5.947643e+003,1.762649e-001
5.951500e+003,1.693720e-001
5.955357e+003,1.619217e-001
5.959214e+003,1.598229e-001
5.963071e+003,1.657061e-001
5.966928e+003,1.666284e-001
5.970785e+003,1.636504e-001
5.974642e+003,1.621077e-001
5.978500e+003,1.637992e-001
5.982356e+003,1.577739e-001
5.986213e+003,1.549803e-001
5.990071e+003,1.575584e-001
5.993928e+003,1.558969e-001
5.997785e+003,1.529943e-001
6.001642e+003,1.597985e-001
6.005499e+003,1.674294e-001
6.009356e+003,1.637639e-001
6.013213e+003,1.466179e-001
6.017070e+003,1.452926e-001
6.020927e+003,1.663672e-001
6.024785e+003,1.797383e-001
6.028642e+003,1.807987e-001
6.032499e+003,1.593214e-001
6.036356e+003,1.436436e-001
6.040213e+003,1.537846e-001
6.044070e+003,1.613829e-001
6.047927e+003,1.559826e-001
6.051784e+003,1.524161e-001
6.055641e+003,1.394226e-001
6.059499e+003,1.512627e-001
6.063355e+003,1.622911e-001
6.067212e+003,1.585510e-001
6.071070e+003,1.485414e-001
6.074927e+003,1.377329e-001
6.078784e+003,1.434747e-001
6.082641e+003,1.494413e-001
6.086498e+003,1.407247e-001
6.090355e+003,1.507500e-001
6.094212e+003,1.685095e-001
6.098069e+003,1.601668e-001
6.101926e+003,1.443130e-001
6.105784e+003,1.455615e-001
6.109641e+003,1.619135e-001
6.113498e+003,1.600492e-001
6.117355e+003,1.650675e-001
6.121212e+003,1.799792e-001
6.125069e+003,1.750638e-001
6.128926e+003,1.654824e-001
6.132783e+003,1.566284e-001
6.136640e+003,1.500868e-001
6.140498e+003,1.546720e-001
6.144354e+003,1.701573e-001
6.148211e+003,1.788375e-001
6.152069e+003,1.624034e-001
6.155926e+003,1.668006e-001
6.159783e+003,1.620834e-001
6.163640e+003,1.476326e-001
6.167497e+003,1.447262e-001
6.171354e+003,1.488447e-001
6.175211e+003,1.569827e-001
6.179068e+003,1.655615e-001
6.182925e+003,1.646832e-001
6.186783e+003,1.611837e-001
6.190640e+003,1.592539e-001
6.194497e+003,1.542243e-001
6.198354e+003,1.488004e-001
6.202211e+003,1.435077e-001
6.206068e+003,1.586027e-001
6.209925e+003,1.772873e-001
6.213782e+003,1.760492e-001
6.217639e+003,1.567472e-001
6.221497e+003,1.432395e-001
6.225354e+003,1.480325e-001
6.229210e+003,1.647389e-001
6.233068e+003,1.644016e-001
6.236925e+003,1.451326e-001
6.240782e+003,1.396963e-001
6.244639e+003,1.579476e-001
6.248496e+003,1.636689e-001
6.252353e+003,1.474837e-001
6.256210e+003,1.357843e-001
6.260067e+003,1.385618e-001
6.263924e+003,1.441491e-001
6.267782e+003,1.457328e-001
6.271639e+003,1.508562e-001
6.275496e+003,1.426389e-001
6.279353e+003,1.324733e-001
6.283210e+003,1.314907e-001
6.287067e+003,1.263868e-001
6.290924e+003,1.163512e-001
6.294781e+003,1.227904e-001
6.298638e+003,1.439056e-001
6.302496e+003,1.506194e-001
6.306353e+003,1.599054e-001
6.310209e+003,1.574797e-001
6.314067e+003,1.455357e-001
6.317924e+003,1.565539e-001
6.321781e+003,1.753907e-001
6.325638e+003,1.703852e-001
6.329495e+003,1.698006e-001
6.333352e+003,1.713426e-001
6.337209e+003,1.584253e-001
6.341066e+003,1.513087e-001
6.344923e+003,1.428027e-001
6.348780e+003,1.390370e-001
6.352638e+003,1.396396e-001
6.356495e+003,1.423614e-001
6.360352e+003,1.485650e-001
6.364209e+003,1.580388e-001
6.368066e+003,1.533027e-001
6.371923e+003,1.648185e-001
6.375780e+003,1.719197e-001
6.379637e+003,1.604900e-001
6.383494e+003,1.613453e-001
6.387352e+003,1.554134e-001
6.391208e+003,1.488837e-001
6.395065e+003,1.547192e-001
6.398923e+003,1.410758e-001
6.402780e+003,1.361792e-001
6.406637e+003,1.461357e-001
6.410494e+003,1.609068e-001
6.414351e+003,1.532194e-001
6.418208e+003,1.455732e-001
6.422065e+003,1.478525e-001
6.425922e+003,1.428396e-001
6.429779e+003,1.419713e-001
6.433637e+003,1.504844e-001
6.437494e+003,1.715219e-001
6.441351e+003,1.507283e-001
6.445208e+003,1.409404e-001
6.449065e+003,1.570883e-001
6.452922e+003,1.453632e-001
6.456779e+003,1.413298e-001
6.460636e+003,1.622015e-001
6.464493e+003,1.693913e-001
6.468351e+003,1.575405e-001
6.472208e+003,1.356421e-001
6.476064e+003,1.335801e-001
6.479922e+003,1.313787e-001
6.483779e+003,1.245411e-001
6.487636e+003,1.315266e-001
6.491493e+003,1.455401e-001
6.495350e+003,1.627719e-001
6.499207e+003,1.643817e-001
6.503064e+003,1.495856e-001
6.506921e+003,1.484639e-001
6.510778e+003,1.601634e-001
6.514636e+003,1.389087e-001
6.518493e+003,1.274369e-001
6.522350e+003,1.398341e-001
6.526207e+003,1.437947e-001
6.530064e+003,1.465217e-001
6.533921e+003,1.690272e-001
6.537778e+003,1.724340e-001
6.541635e+003,1.487936e-001
6.545492e+003,1.597779e-001
6.549350e+003,1.684450e-001
6.553207e+003,1.714899e-001
6.557063e+003,1.670313e-001
6.560921e+003,1.561265e-001
6.564778e+003,1.398789e-001
6.568635e+003,1.351351e-001
6.572492e+003,1.277538e-001
6.576349e+003,1.243152e-001
6.580206e+003,1.355657e-001
6.584063e+003,1.445472e-001
6.587920e+003,1.503149e-001
6.591777e+003,1.548277e-001
6.595635e+003,1.675617e-001
6.599492e+003,1.726307e-001
6.603349e+003,1.617115e-001
6.607206e+003,1.516808e-001
6.611063e+003,1.553770e-001
6.614920e+003,1.629379e-001
6.618777e+003,1.533235e-001
6.622634e+003,1.418263e-001
6.626491e+003,1.318448e-001
6.630349e+003,1.536888e-001
6.634206e+003,2.009804e-001
6.638063e+003,1.886688e-001
6.641920e+003,1.419075e-001
6.645777e+003,1.536136e-001
6.649634e+003,1.791745e-001
6.653491e+003,1.570748e-001
6.657348e+003,1.264107e-001
6.661205e+003,1.347771e-001
6.665063e+003,1.357528e-001
6.668919e+003,1.248100e-001
6.672776e+003,1.312562e-001
6.676634e+003,1.317517e-001
6.680491e+003,1.276063e-001
6.684348e+003,1.504457e-001
6.688205e+003,1.552098e-001
6.692062e+003,1.463758e-001
6.695919e+003,1.377928e-001
6.699776e+003,1.493745e-001
6.703633e+003,1.424599e-001
6.707490e+003,1.261975e-001
6.711348e+003,1.405326e-001
6.715205e+003,1.528617e-001
6.719062e+003,1.271942e-001
6.722919e+003,1.372774e-001
6.726776e+003,1.571945e-001
6.730633e+003,1.374693e-001
6.734490e+003,1.245136e-001
6.738347e+003,1.358679e-001
6.742204e+003,1.721508e-001
6.746062e+003,1.625820e-001
6.749918e+003,1.518063e-001
6.753775e+003,1.430691e-001
6.757633e+003,1.384296e-001
6.761490e+003,1.455432e-001
6.765347e+003,1.489629e-001
6.769204e+003,1.746115e-001
6.773061e+003,1.993366e-001
6.776918e+003,1.828036e-001
6.780775e+003,1.569999e-001
6.784632e+003,1.302997e-001
6.788489e+003,1.108373e-001
6.792347e+003,1.320451e-001
6.796204e+003,1.267759e-001
6.800061e+003,1.237611e-001
6.803918e+003,1.249898e-001
6.807775e+003,1.377939e-001
6.811632e+003,1.456682e-001
6.815489e+003,1.415459e-001
6.819346e+003,1.487026e-001
6.823203e+003,1.446847e-001
6.827061e+003,1.447711e-001
6.830917e+003,1.639243e-001
6.834774e+003,1.612155e-001
6.838632e+003,1.708785e-001
6.842489e+003,1.729662e-001
6.846346e+003,1.528452e-001
6.850203e+003,1.459665e-001
6.854060e+003,1.719971e-001
6.857917e+003,1.915476e-001
6.861774e+003,1.796545e-001
6.865631e+003,1.568760e-001
6.869488e+003,1.649817e-001
6.873346e+003,1.764884e-001
6.877203e+003,1.731345e-001
6.881060e+003,1.643417e-001
6.884917e+003,1.525424e-001
6.888774e+003,1.458957e-001
6.892631e+003,1.519217e-001
6.896488e+003,1.560756e-001
6.900345e+003,1.525144e-001
6.904202e+003,1.424058e-001
6.908060e+003,1.247174e-001
6.911917e+003,1.427642e-001
6.915773e+003,1.581490e-001
6.919631e+003,1.409096e-001
6.923488e+003,1.750698e-001
6.927345e+003,1.844025e-001
6.931202e+003,1.524847e-001
6.935059e+003,1.547432e-001
6.938916e+003,1.591004e-001
6.942773e+003,1.674412e-001
6.946630e+003,1.906303e-001
6.950487e+003,1.772277e-001
6.954345e+003,1.606989e-001
6.958202e+003,1.631375e-001
6.962059e+003,1.600770e-001
6.965916e+003,1.480148e-001
6.969773e+003,1.797608e-001
6.973630e+003,1.822531e-001
6.977487e+003,1.628594e-001
6.981344e+003,1.460162e-001
6.985201e+003,1.356784e-001
6.989059e+003,1.330881e-001
6.992916e+003,1.430471e-001
6.996772e+003,1.521037e-001
7.000630e+003,1.492370e-001
7.004487e+003,1.478044e-001
7.008344e+003,1.483910e-001
7.012201e+003,1.595755e-001
7.016058e+003,1.612357e-001
7.019915e+003,1.544168e-001
7.023772e+003,1.727787e-001
7.027629e+003,1.620302e-001
7.031486e+003,1.118704e-001
7.035344e+003,1.081867e-001
7.039201e+003,1.467638e-001
7.043058e+003,1.884694e-001
7.046915e+003,1.864032e-001
7.050772e+003,1.756507e-001
7.054629e+003,1.592227e-001
7.058486e+003,1.365752e-001
7.062343e+003,1.412209e-001
7.066200e+003,1.712346e-001
7.070058e+003,1.879969e-001
7.073915e+003,1.948016e-001
7.077771e+003,2.070133e-001
7.081629e+003,1.825376e-001
7.085486e+003,1.335843e-001
7.089343e+003,9.756681e-002
7.093200e+003,1.241578e-001
7.097057e+003,1.652166e-001
7.100914e+003,1.522721e-001
7.104771e+003,1.429847e-001
7.108628e+003,1.399690e-001
7.112485e+003,1.081201e-001
7.116343e+003,9.838188e-002
7.120200e+003,1.251185e-001
7.124057e+003,1.637428e-001
7.127914e+003,1.854765e-001
7.131771e+003,1.462146e-001
7.135628e+003,1.045032e-001
7.139485e+003,1.271026e-001
7.143342e+003,1.612031e-001
7.147199e+003,1.575738e-001
7.151057e+003,1.587844e-001
7.154914e+003,1.596990e-001
7.158771e+003,1.423260e-001
7.162628e+003,1.721907e-001
7.166485e+003,1.734464e-001
7.170342e+003,1.252102e-001
7.174199e+003,1.452279e-001
7.178056e+003,1.572399e-001
7.181913e+003,1.513537e-001
7.185771e+003,1.556627e-001
7.189627e+003,1.924830e-001
7.193484e+003,2.009447e-001
7.197342e+003,1.699578e-001
7.201199e+003,1.574391e-001
7.205056e+003,2.180972e-001
7.208913e+003,2.066294e-001
7.212770e+003,1.453311e-001
7.216627e+003,1.258245e-001
7.220484e+003,1.360633e-001
7.224341e+003,1.293507e-001
7.228198e+003,1.256863e-001
7.232056e+003,1.251188e-001
7.235913e+003,1.411310e-001
7.239770e+003,1.406204e-001
7.243627e+003,1.389272e-001
7.247484e+003,1.751423e-001
7.251341e+003,1.762136e-001
7.255198e+003,1.684419e-001
7.259055e+003,1.356951e-001
7.262912e+003,1.134025e-001
7.266770e+003,1.422379e-001
7.270626e+003,1.170670e-001
7.274483e+003,8.959651e-002
7.278341e+003,1.229958e-001
7.282198e+003,1.903663e-001
7.286055e+003,1.731030e-001
7.289912e+003,1.441256e-001
7.293769e+003,1.603951e-001
7.297626e+003,1.717755e-001
7.301483e+003,1.617022e-001
7.305340e+003,1.532949e-001
7.309197e+003,1.128232e-001
7.313055e+003,1.051388e-001
7.316912e+003,1.554175e-001
7.320769e+003,1.437219e-001
7.324626e+003,1.127175e-001
7.328483e+003,1.244009e-001
7.332340e+003,1.177907e-001
7.336197e+003,8.568030e-002
7.340054e+003,1.150627e-001
7.343911e+003,1.399498e-001
7.347769e+003,1.451782e-001
7.351625e+003,1.223760e-001
7.355482e+003,1.062943e-001
7.359340e+003,1.514755e-001
7.363197e+003,1.364866e-001
7.367054e+003,1.051732e-001
7.370911e+003,1.252460e-001
7.374768e+003,1.418322e-001
7.378625e+003,1.462585e-001
7.382482e+003,1.942779e-001
7.386339e+003,1.878175e-001
7.390196e+003,9.522069e-002
7.394054e+003,9.564175e-002
7.397911e+003,1.469614e-001
7.401768e+003,1.184975e-001
7.405625e+003,7.456037e-002
7.409482e+003,7.273948e-002
7.413339e+003,1.180103e-001
7.417196e+003,1.244353e-001
7.421053e+003,1.066716e-001
7.424910e+003,8.718491e-002
7.428768e+003,1.171472e-001
7.432625e+003,1.627617e-001
7.436481e+003,1.549286e-001
7.440339e+003,1.327728e-001
7.444196e+003,1.395217e-001
7.448053e+003,1.374896e-001
7.451910e+003,1.189018e-001
7.455767e+003,1.705255e-001
7.459624e+003,2.168161e-001
7.463481e+003,1.440797e-001
7.467338e+003,8.035959e-002
7.471195e+003,1.283932e-001
7.475053e+003,1.777766e-001
7.478910e+003,1.673561e-001
7.482767e+003,1.731751e-001
7.486624e+003,1.542374e-001
7.490481e+003,1.278715e-001
7.494338e+003,1.063205e-001
7.498195e+003,1.304170e-001
7.502052e+003,1.574477e-001
7.505909e+003,1.339670e-001
7.509767e+003,9.072249e-002
7.513624e+003,7.779825e-002
7.517480e+003,1.561845e-001
7.521338e+003,2.115278e-001
7.525195e+003,1.928238e-001
7.529052e+003,1.517672e-001
7.532909e+003,1.319035e-001
7.536766e+003,1.859504e-001
7.540623e+003,1.810471e-001
7.544480e+003,1.653958e-001
7.548337e+003,1.526057e-001
7.552194e+003,1.491023e-001
7.556052e+003,1.727500e-001
7.559909e+003,1.446234e-001
7.563766e+003,9.893841e-002
7.567623e+003,1.013590e-001
7.571480e+003,1.358517e-001
7.575337e+003,1.588360e-001
7.579194e+003,1.567057e-001
7.583051e+003,1.237843e-001
7.586908e+003,1.914265e-001
7.590766e+003,2.424823e-001
7.594623e+003,2.075029e-001
7.598479e+003,1.746407e-001
7.602337e+003,1.310137e-001
7.606194e+003,9.261483e-002
7.610051e+003,1.017906e-001
7.613908e+003,1.327578e-001
7.617765e+003,1.222428e-001
7.621622e+003,1.104427e-001
7.625479e+003,1.489534e-001
7.629336e+003,1.737593e-001
7.633193e+003,1.465554e-001
7.637051e+003,7.010525e-002
7.640908e+003,6.660748e-002
7.644765e+003,1.108478e-001
7.648622e+003,1.785027e-001
7.652479e+003,1.584703e-001
7.656336e+003,1.465653e-001
7.660193e+003,9.863612e-002
7.664050e+003,7.498143e-002
7.667907e+003,1.106392e-001
7.671765e+003,1.489346e-001
7.675622e+003,1.798074e-001
7.679479e+003,1.648394e-001
7.683336e+003,1.511021e-001
7.687193e+003,1.572760e-001
7.691050e+003,1.044023e-001
7.694907e+003,1.764905e-002
7.698764e+003,9.162246e-002
7.702621e+003,2.444429e-001
7.706479e+003,2.549096e-001
7.710335e+003,1.585378e-001
7.714192e+003,1.009349e-001
7.718050e+003,1.135911e-001
7.721907e+003,1.425995e-001
7.725764e+003,1.396785e-001
7.729621e+003,1.279332e-001
7.733478e+003,7.635103e-002
7.737335e+003,1.443832e-002
7.741192e+003,8.576902e-002
7.745049e+003,1.418041e-001
7.748906e+003,1.570209e-001
7.752764e+003,8.117931e-002
7.756621e+003,5.564635e-002
7.760478e+003,1.212456e-001
7.764335e+003,1.677410e-001
7.768192e+003,2.248284e-001
7.772049e+003,2.564759e-001
7.775906e+003,2.631255e-001
7.779763e+003,2.085488e-001
7.783620e+003,2.105406e-001
7.787478e+003,1.938547e-001
7.791334e+003,1.995775e-001
7.795191e+003,2.792816e-001
7.799049e+003,2.503029e-001
7.802906e+003,1.420636e-001
7.806763e+003,8.856696e-002
7.810620e+003,6.496180e-002
7.814477e+003,7.566041e-002
7.818334e+003,1.742357e-001
7.822191e+003,2.229763e-001
7.826048e+003,2.246024e-001
7.829905e+003,1.942078e-001
7.833763e+003,1.740750e-001
7.837620e+003,1.929907e-001
7.841477e+003,1.570181e-001
7.845334e+003,9.082507e-002
7.849191e+003,1.106605e-001
7.853048e+003,1.569416e-001
7.856905e+003,1.192842e-001
7.860762e+003,1.246412e-001
7.864619e+003,1.584058e-001
7.868477e+003,8.744877e-002
7.872333e+003,8.561074e-003
7.876190e+003,2.740727e-002
7.880048e+003,1.483516e-001
7.883905e+003,2.069897e-001
7.887762e+003,2.340569e-001
7.891619e+003,2.279539e-001
7.895476e+003,1.792588e-001
7.899333e+003,1.001434e-001
7.903190e+003,4.166337e-002
7.907047e+003,6.331960e-003
7.910904e+003,8.373269e-002
7.914762e+003,1.062292e-001
7.918619e+003,1.424081e-001
7.922476e+003,1.500936e-001
7.926333e+003,1.309064e-001
7.930190e+003,1.767301e-001
7.934047e+003,2.189579e-001
7.937904e+003,1.796471e-001
7.941761e+003,7.845402e-002
7.945618e+003,1.024318e-001
7.949476e+003,2.187976e-001
7.953333e+003,1.757412e-001
7.957189e+003,1.729269e-001
7.961047e+003,1.790053e-001
7.964904e+003,1.534014e-001
7.968761e+003,1.287903e-001
7.972618e+003,1.294795e-001
7.976475e+003,1.186332e-001
7.980332e+003,1.064878e-001
7.984189e+003,1.346753e-001
7.988046e+003,1.847444e-001
7.991903e+003,1.307399e-001
7.995761e+003,9.564807e-002
7.999618e+003,1.322201e-002
