4.011380e+002,-1.871470e-001
4.049951e+002,6.000000e+000
4.088522e+002,6.000000e+000
4.127093e+002,2.118457e-001
4.165664e+002,6.614796e-001
4.204235e+002,6.000000e+000
4.242806e+002,6.000000e+000
4.281377e+002,6.000000e+000
4.319948e+002,2.379450e-001
4.358519e+002,6.000000e+000
4.397090e+002,6.000000e+000
4.435661e+002,6.000000e+000
4.474232e+002,6.000000e+000
4.512803e+002,-6.492825e-001
4.551374e+002,-2.155628e-001
4.589945e+002,8.805031e-003
4.628516e+002,6.000000e+000
4.667087e+002,1.955556e+000
4.705658e+002,-1.805085e-001
4.744229e+002,1.333663e+000
4.782800e+002,-4.289103e-001
4.821371e+002,6.000000e+000
4.859941e+002,6.000000e+000
4.898513e+002,-1.253476e+000
4.937083e+002,6.000000e+000
4.975654e+002,-1.504689e-001
5.014225e+002,-3.591188e-001
5.052796e+002,-2.955537e-001
5.091367e+002,6.000000e+000
5.129938e+002,6.000000e+000
5.168509e+002,-1.609755e+000
5.207080e+002,6.000000e+000
5.245651e+002,6.000000e+000
5.284222e+002,-1.007697e+000
5.322793e+002,-4.977367e-001
5.361364e+002,1.125114e+000
5.399935e+002,-6.302864e-001
5.438506e+002,6.000000e+000
5.477077e+002,6.000000e+000
5.515648e+002,2.340965e-001
5.554219e+002,2.499946e-001
5.592790e+002,5.774288e-001
5.631361e+002,6.000000e+000
5.669932e+002,6.000000e+000
5.708503e+002,6.000000e+000
5.747074e+002,6.000000e+000
5.785645e+002,6.000000e+000
5.824216e+002,6.000000e+000
5.862787e+002,6.000000e+000
5.901357e+002,6.000000e+000
5.939929e+002,-1.325076e-001
5.978499e+002,-3.864139e-002
6.017070e+002,2.844787e-001
6.055641e+002,5.626279e-001
6.094212e+002,6.000000e+000
6.132783e+002,-1.403958e-002
6.171354e+002,-5.910409e-001
6.209925e+002,6.000000e+000
6.248496e+002,6.000000e+000
6.287067e+002,6.000000e+000
6.325638e+002,-1.240458e+000
6.364209e+002,6.000000e+000
6.402780e+002,6.000000e+000
6.441351e+002,2.537608e-001
6.479922e+002,6.000000e+000
6.518493e+002,1.119982e-001
6.557064e+002,6.000000e+000
6.595635e+002,-1.126290e+000
6.634205e+002,6.000000e+000
6.672777e+002,6.000000e+000
6.711348e+002,-7.758605e-001
6.749918e+002,6.000000e+000
6.788490e+002,1.036664e-001
6.827061e+002,1.812552e+000
6.865631e+002,7.750833e-001
6.904203e+002,1.351758e+000
6.942773e+002,8.349910e-001
6.981344e+002,6.000000e+000
7.019916e+002,6.000000e+000
7.058486e+002,-1.586479e+000
7.097057e+002,1.143711e+000
7.135629e+002,6.000000e+000
7.174199e+002,6.000000e+000
7.212770e+002,-4.283635e-001
7.251342e+002,6.000000e+000
7.289912e+002,-5.486753e-001
7.328483e+002,5.158728e-001
7.367054e+002,6.000000e+000
7.405625e+002,6.000000e+000
7.444196e+002,-9.641613e-001
7.482767e+002,-1.184671e+000
7.521338e+002,-2.807544e-001
7.559908e+002,-2.890918e-001
7.598480e+002,6.000000e+000
7.637051e+002,-3.019869e-001
7.675621e+002,1.334998e-001
7.714193e+002,6.000000e+000
7.752764e+002,7.515337e-001
7.791334e+002,6.000000e+000
7.829905e+002,6.000000e+000
7.868477e+002,6.000000e+000
7.907047e+002,-1.644150e+000
7.945618e+002,1.623125e-001
7.984189e+002,6.000000e+000
8.022760e+002,5.463080e-002
8.061331e+002,6.000000e+000
8.099902e+002,3.249868e-001
8.138473e+002,-4.025212e-001
8.177044e+002,-1.165980e+000
8.215615e+002,-2.679725e-001
8.254186e+002,7.888176e-001
8.292757e+002,6.000000e+000
8.331328e+002,-9.182437e-001
8.369899e+002,-3.656582e-001
8.408470e+002,-5.176267e-002
8.447041e+002,5.138858e-001
8.485612e+002,1.275632e+000
8.524183e+002,6.000000e+000
8.562754e+002,7.909865e-001
8.601324e+002,4.087702e-001
8.639896e+002,5.678518e-001
8.678467e+002,3.183340e-001
8.717037e+002,7.630206e-001
8.755609e+002,1.596993e+000
8.794180e+002,6.000000e+000
8.832750e+002,1.850087e+000
8.871321e+002,1.012984e+000
8.909893e+002,8.021968e-001
8.948463e+002,9.580372e-001
8.987034e+002,8.666817e-001
9.025605e+002,6.746867e-001
9.064176e+002,7.628853e-001
9.102747e+002,1.334937e+000
9.141318e+002,6.000000e+000
9.179889e+002,6.000000e+000
9.218461e+002,1.372722e+000
9.257031e+002,1.182625e+000
9.295602e+002,1.540446e+000
9.334174e+002,6.000000e+000
9.372744e+002,6.000000e+000
9.411315e+002,1.722200e+000
9.449886e+002,1.560075e+000
9.488457e+002,1.459164e+000
9.527028e+002,1.891382e+000
9.565599e+002,2.293422e+000
9.604170e+002,6.000000e+000
9.642740e+002,6.000000e+000
9.681312e+002,6.000000e+000
9.719883e+002,2.167501e+000
9.758453e+002,6.000000e+000
9.797025e+002,6.000000e+000
9.835596e+002,2.461424e+000
9.874166e+002,1.786622e+000
9.912738e+002,1.378250e+000
9.951309e+002,1.424295e+000
9.989879e+002,1.771740e+000
1.002845e+003,2.198418e+000
1.006702e+003,1.530070e+000
1.010559e+003,1.412780e+000
1.014416e+003,2.005163e+000
1.018273e+003,6.000000e+000
1.022130e+003,3.555009e+000
1.025988e+003,2.249376e+000
1.029845e+003,6.000000e+000
1.033702e+003,6.000000e+000
1.037559e+003,6.000000e+000
1.041416e+003,6.000000e+000
1.045273e+003,1.835379e+000
1.049130e+003,2.258001e+000
1.052987e+003,6.000000e+000
1.056844e+003,1.780871e+000
1.060702e+003,1.794164e+000
1.064559e+003,1.988034e+000
1.068416e+003,1.618526e+000
1.072273e+003,1.452178e+000
1.076130e+003,1.379882e+000
1.079987e+003,1.351442e+000
1.083844e+003,1.529463e+000
1.087701e+003,1.635173e+000
1.091558e+003,1.652817e+000
1.095415e+003,1.648978e+000
1.099272e+003,1.562953e+000
1.103130e+003,1.997421e+000
1.106987e+003,1.525679e+000
1.110844e+003,1.390746e+000
1.114701e+003,1.593975e+000
1.118558e+003,1.553995e+000
1.122415e+003,1.389019e+000
1.126272e+003,1.462532e+000
1.130129e+003,1.618942e+000
1.133986e+003,1.604127e+000
1.137843e+003,1.491420e+000
1.141701e+003,1.361539e+000
1.145558e+003,1.197131e+000
1.149415e+003,1.269532e+000
1.153272e+003,1.405467e+000
1.157129e+003,1.322556e+000
1.160986e+003,1.294557e+000
1.164843e+003,1.297400e+000
1.168700e+003,1.352115e+000
1.172557e+003,1.394344e+000
1.176414e+003,1.395912e+000
1.180271e+003,1.389395e+000
1.184129e+003,1.347811e+000
1.187986e+003,1.379581e+000
1.191843e+003,1.386029e+000
1.195700e+003,1.329780e+000
1.199557e+003,1.211036e+000
1.203414e+003,1.233369e+000
1.207271e+003,1.336457e+000
1.211128e+003,1.361734e+000
1.214985e+003,1.352913e+000
1.218842e+003,1.315234e+000
1.222699e+003,1.158995e+000
1.226557e+003,1.079759e+000
1.230414e+003,1.058438e+000
1.234271e+003,1.050579e+000
1.238128e+003,9.980553e-001
1.241985e+003,9.464748e-001
1.245842e+003,9.334286e-001
1.249699e+003,8.595431e-001
1.253556e+003,7.873975e-001
1.257413e+003,7.990958e-001
1.261271e+003,8.243836e-001
1.265128e+003,8.051421e-001
1.268985e+003,7.766421e-001
1.272842e+003,7.189981e-001
1.276699e+003,6.805375e-001
1.280556e+003,6.460353e-001
1.284413e+003,6.367099e-001
1.288270e+003,6.253098e-001
1.292127e+003,6.126767e-001
1.295984e+003,5.903704e-001
1.299841e+003,5.883191e-001
1.303698e+003,5.903915e-001
1.307556e+003,5.721492e-001
1.311413e+003,5.673085e-001
1.315270e+003,5.729410e-001
1.319127e+003,5.529587e-001
1.322984e+003,5.341417e-001
1.326841e+003,5.312417e-001
1.330698e+003,5.302141e-001
1.334555e+003,5.327238e-001
1.338412e+003,5.148299e-001
1.342270e+003,4.975510e-001
1.346127e+003,4.929348e-001
1.349984e+003,4.934966e-001
1.353841e+003,5.134761e-001
1.357698e+003,5.176097e-001
1.361555e+003,5.149816e-001
1.365412e+003,5.256920e-001
1.369269e+003,5.268264e-001
1.373126e+003,5.418571e-001
1.376983e+003,5.505869e-001
1.380840e+003,5.572283e-001
1.384698e+003,5.772117e-001
1.388555e+003,5.971412e-001
1.392412e+003,6.087612e-001
1.396269e+003,6.128588e-001
1.400126e+003,6.496266e-001
1.403983e+003,6.950265e-001
1.407840e+003,6.891700e-001
1.411697e+003,6.864467e-001
1.415554e+003,7.145444e-001
1.419411e+003,7.320117e-001
1.423269e+003,7.254912e-001
1.427126e+003,7.190521e-001
1.430983e+003,7.267215e-001
1.434840e+003,7.286307e-001
1.438697e+003,7.269310e-001
1.442554e+003,7.350841e-001
1.446411e+003,7.135845e-001
1.450268e+003,6.894861e-001
1.454125e+003,6.811147e-001
1.457982e+003,6.782345e-001
1.461839e+003,6.841587e-001
1.465697e+003,6.693267e-001
1.469554e+003,6.722477e-001
1.473411e+003,6.702872e-001
1.477268e+003,6.758379e-001
1.481125e+003,7.119377e-001
1.484982e+003,7.251830e-001
1.488839e+003,7.193418e-001
1.492696e+003,7.337278e-001
1.496553e+003,7.564163e-001
1.500411e+003,7.478536e-001
1.504268e+003,7.452103e-001
1.508125e+003,7.633243e-001
1.511982e+003,7.675630e-001
1.515839e+003,7.453522e-001
1.519696e+003,7.399389e-001
1.523553e+003,7.493047e-001
1.527410e+003,7.356912e-001
1.531267e+003,7.118990e-001
1.535124e+003,6.885342e-001
1.538981e+003,6.576856e-001
1.542839e+003,6.329408e-001
1.546696e+003,6.316214e-001
1.550553e+003,6.291154e-001
1.554410e+003,6.060973e-001
1.558267e+003,5.903167e-001
1.562124e+003,5.719201e-001
1.565981e+003,5.611615e-001
1.569838e+003,5.659063e-001
1.573695e+003,5.661697e-001
1.577552e+003,5.632123e-001
1.581410e+003,5.577447e-001
1.585267e+003,5.608655e-001
1.589124e+003,5.734395e-001
1.592981e+003,5.823929e-001
1.596838e+003,5.902559e-001
1.600695e+003,6.091050e-001
1.604552e+003,6.452394e-001
1.608409e+003,6.694078e-001
1.612266e+003,6.767632e-001
1.616123e+003,6.976948e-001
1.619980e+003,7.275053e-001
1.623838e+003,7.854448e-001
1.627695e+003,8.138081e-001
1.631552e+003,8.217371e-001
1.635409e+003,8.660417e-001
1.639266e+003,8.613752e-001
1.643123e+003,8.395073e-001
1.646980e+003,8.311002e-001
1.650837e+003,8.078161e-001
1.654694e+003,7.874897e-001
1.658551e+003,7.690084e-001
1.662409e+003,7.366521e-001
1.666266e+003,7.052777e-001
1.670123e+003,6.744069e-001
1.673980e+003,6.375959e-001
1.677837e+003,6.049342e-001
1.681694e+003,5.796928e-001
1.685551e+003,5.592659e-001
1.689408e+003,5.379052e-001
1.693265e+003,5.245849e-001
1.697122e+003,5.073002e-001
1.700979e+003,5.008885e-001
1.704837e+003,4.926438e-001
1.708694e+003,4.822933e-001
1.712551e+003,4.744814e-001
1.716408e+003,4.772475e-001
1.720265e+003,4.773398e-001
1.724122e+003,4.666021e-001
1.727979e+003,4.530091e-001
1.731836e+003,4.437448e-001
1.735693e+003,4.413470e-001
1.739550e+003,4.366028e-001
1.743408e+003,4.254814e-001
1.747265e+003,4.190256e-001
1.751122e+003,4.229754e-001
1.754979e+003,4.326532e-001
1.758836e+003,4.334708e-001
1.762693e+003,4.343551e-001
1.766550e+003,4.374524e-001
1.770407e+003,4.309160e-001
1.774264e+003,4.302716e-001
1.778121e+003,4.343702e-001
1.781979e+003,4.341390e-001
1.785836e+003,4.283756e-001
1.789693e+003,4.242573e-001
1.793550e+003,4.137211e-001
1.797407e+003,4.033646e-001
1.801264e+003,4.036361e-001
1.805121e+003,3.981684e-001
1.808978e+003,4.005058e-001
1.812835e+003,4.026441e-001
1.816692e+003,4.026492e-001
1.820549e+003,4.073665e-001
1.824407e+003,4.111246e-001
1.828264e+003,4.107659e-001
1.832121e+003,4.110272e-001
1.835978e+003,4.156320e-001
1.839835e+003,4.097805e-001
1.843692e+003,3.979869e-001
1.847549e+003,3.918719e-001
1.851406e+003,3.876078e-001
1.855263e+003,3.844130e-001
1.859120e+003,3.784423e-001
1.862978e+003,3.738928e-001
1.866835e+003,3.729061e-001
1.870692e+003,3.710039e-001
1.874549e+003,3.675467e-001
1.878406e+003,3.739263e-001
1.882263e+003,3.816082e-001
1.886120e+003,3.835072e-001
1.889977e+003,3.788862e-001
1.893834e+003,3.776101e-001
1.897691e+003,3.761061e-001
1.901548e+003,3.760041e-001
1.905406e+003,3.792728e-001
1.909263e+003,3.761396e-001
1.913120e+003,3.700445e-001
1.916977e+003,3.646059e-001
1.920834e+003,3.581469e-001
1.924691e+003,3.526623e-001
1.928548e+003,3.543938e-001
1.932405e+003,3.578362e-001
1.936262e+003,3.553202e-001
1.940119e+003,3.515606e-001
1.943977e+003,3.529131e-001
1.947834e+003,3.561506e-001
1.951691e+003,3.523043e-001
1.955548e+003,3.520984e-001
1.959405e+003,3.619456e-001
1.963262e+003,3.592287e-001
1.967119e+003,3.492195e-001
1.970976e+003,3.519589e-001
1.974833e+003,3.479660e-001
1.978690e+003,3.509379e-001
1.982547e+003,3.483827e-001
1.986405e+003,3.393306e-001
1.990262e+003,3.336161e-001
1.994119e+003,3.310459e-001
1.997976e+003,3.300293e-001
2.001833e+003,3.312122e-001
2.005690e+003,3.310745e-001
2.009547e+003,3.309804e-001
2.013404e+003,3.351597e-001
2.017261e+003,3.377845e-001
2.021118e+003,3.359943e-001
2.024976e+003,3.392048e-001
2.028833e+003,3.394394e-001
2.032690e+003,3.425221e-001
2.036547e+003,3.427435e-001
2.040404e+003,3.401200e-001
2.044261e+003,3.335811e-001
2.048118e+003,3.233570e-001
2.051975e+003,3.135247e-001
2.055832e+003,3.137847e-001
2.059689e+003,3.157006e-001
2.063546e+003,3.120601e-001
2.067404e+003,3.123886e-001
2.071261e+003,3.167523e-001
2.075118e+003,3.168268e-001
2.078975e+003,3.184888e-001
2.082832e+003,3.231985e-001
2.086689e+003,3.262750e-001
2.090546e+003,3.287255e-001
2.094403e+003,3.240228e-001
2.098260e+003,3.197981e-001
2.102117e+003,3.164501e-001
2.105975e+003,3.185850e-001
2.109832e+003,3.192237e-001
2.113689e+003,3.145229e-001
2.117546e+003,3.131255e-001
2.121403e+003,3.101214e-001
2.125260e+003,3.130485e-001
2.129117e+003,3.147474e-001
2.132974e+003,3.095040e-001
2.136831e+003,3.090152e-001
2.140688e+003,3.063517e-001
2.144545e+003,3.117991e-001
2.148403e+003,3.239448e-001
2.152260e+003,3.299442e-001
2.156117e+003,3.286806e-001
2.159974e+003,3.266839e-001
2.163831e+003,3.224860e-001
2.167688e+003,3.220804e-001
2.171545e+003,3.229367e-001
2.175402e+003,3.215011e-001
2.179259e+003,3.142886e-001
2.183116e+003,3.128039e-001
2.186974e+003,3.174839e-001
2.190831e+003,3.166986e-001
2.194688e+003,3.149326e-001
2.198545e+003,3.157009e-001
2.202402e+003,3.166915e-001
2.206259e+003,3.219318e-001
2.210116e+003,3.281431e-001
2.213973e+003,3.297055e-001
2.217830e+003,3.289439e-001
2.221688e+003,3.241538e-001
2.225544e+003,3.194805e-001
2.229402e+003,3.233219e-001
2.233259e+003,3.297197e-001
2.237116e+003,3.298682e-001
2.240973e+003,3.286266e-001
2.244830e+003,3.301593e-001
2.248687e+003,3.311625e-001
2.252544e+003,3.258883e-001
2.256401e+003,3.221447e-001
2.260258e+003,3.269312e-001
2.264115e+003,3.279719e-001
2.267973e+003,3.252296e-001
2.271830e+003,3.261292e-001
2.275687e+003,3.286752e-001
2.279544e+003,3.397579e-001
2.283401e+003,3.498372e-001
2.287258e+003,3.518606e-001
2.291115e+003,3.546351e-001
2.294972e+003,3.465305e-001
2.298829e+003,3.365681e-001
2.302687e+003,3.388835e-001
2.306543e+003,3.369223e-001
2.310401e+003,3.381977e-001
2.314258e+003,3.413287e-001
2.318115e+003,3.403441e-001
2.321972e+003,3.356721e-001
2.325829e+003,3.348960e-001
2.329686e+003,3.377142e-001
2.333543e+003,3.340933e-001
2.337400e+003,3.320869e-001
2.341257e+003,3.381020e-001
2.345115e+003,3.471979e-001
2.348972e+003,3.469549e-001
2.352829e+003,3.398907e-001
2.356686e+003,3.326032e-001
2.360543e+003,3.360344e-001
2.364400e+003,3.378737e-001
2.368257e+003,3.425485e-001
2.372114e+003,3.429621e-001
2.375971e+003,3.438863e-001
2.379828e+003,3.441166e-001
2.383686e+003,3.423244e-001
2.387542e+003,3.415318e-001
2.391400e+003,3.358175e-001
2.395257e+003,3.289757e-001
2.399114e+003,3.256631e-001
2.402971e+003,3.300465e-001
2.406828e+003,3.372326e-001
2.410685e+003,3.423333e-001
2.414542e+003,3.413007e-001
2.418399e+003,3.350033e-001
2.422256e+003,3.345776e-001
2.426114e+003,3.401631e-001
2.429971e+003,3.448016e-001
2.433828e+003,3.395017e-001
2.437685e+003,3.348566e-001
2.441542e+003,3.305875e-001
2.445399e+003,3.297952e-001
2.449256e+003,3.313656e-001
2.453113e+003,3.292166e-001
2.456970e+003,3.271106e-001
2.460827e+003,3.216760e-001
2.464684e+003,3.216088e-001
2.468542e+003,3.275978e-001
2.472399e+003,3.286348e-001
2.476256e+003,3.269384e-001
2.480113e+003,3.259766e-001
2.483970e+003,3.271262e-001
2.487827e+003,3.318662e-001
2.491684e+003,3.324122e-001
2.495541e+003,3.297717e-001
2.499398e+003,3.337393e-001
2.503255e+003,3.347865e-001
2.507113e+003,3.307335e-001
2.510969e+003,3.294298e-001
2.514827e+003,3.307241e-001
2.518684e+003,3.264614e-001
2.522541e+003,3.296451e-001
2.526398e+003,3.341804e-001
2.530255e+003,3.350646e-001
2.534112e+003,3.362570e-001
2.537969e+003,3.368211e-001
2.541826e+003,3.373577e-001
2.545683e+003,3.407207e-001
2.549541e+003,3.437438e-001
2.553398e+003,3.429529e-001
2.557255e+003,3.475457e-001
2.561112e+003,3.561611e-001
2.564969e+003,3.548506e-001
2.568826e+003,3.475745e-001
2.572683e+003,3.431613e-001
2.576540e+003,3.521543e-001
2.580397e+003,3.582482e-001
2.584254e+003,3.495789e-001
2.588112e+003,3.526919e-001
2.591969e+003,3.611729e-001
2.595826e+003,3.650600e-001
2.599683e+003,3.652590e-001
2.603540e+003,3.671457e-001
2.607397e+003,3.623401e-001
2.611254e+003,3.653626e-001
2.615111e+003,3.739030e-001
2.618968e+003,3.809597e-001
2.622825e+003,3.781218e-001
2.626682e+003,3.839571e-001
2.630540e+003,3.982155e-001
2.634397e+003,3.993323e-001
2.638254e+003,3.895874e-001
2.642111e+003,3.921673e-001
2.645968e+003,4.050876e-001
2.649825e+003,4.128521e-001
2.653682e+003,4.167629e-001
2.657539e+003,4.072037e-001
2.661396e+003,3.938283e-001
2.665253e+003,3.959809e-001
2.669111e+003,4.129141e-001
2.672968e+003,4.262202e-001
2.676825e+003,4.313121e-001
2.680682e+003,4.258814e-001
2.684539e+003,4.163280e-001
2.688396e+003,4.249710e-001
2.692253e+003,4.353412e-001
2.696110e+003,4.459926e-001
2.699967e+003,4.486003e-001
2.703824e+003,4.496593e-001
2.707681e+003,4.578597e-001
2.711539e+003,4.606558e-001
2.715396e+003,4.571964e-001
2.719253e+003,4.660809e-001
2.723110e+003,4.683743e-001
2.726967e+003,4.658021e-001
2.730824e+003,4.626075e-001
2.734681e+003,4.683912e-001
2.738538e+003,4.839534e-001
2.742395e+003,4.889874e-001
2.746252e+003,4.900643e-001
2.750110e+003,4.939461e-001
2.753967e+003,5.056356e-001
2.757824e+003,5.174415e-001
2.761681e+003,5.117878e-001
2.765538e+003,5.082691e-001
2.769395e+003,5.213996e-001
2.773252e+003,5.310974e-001
2.777109e+003,5.241855e-001
2.780966e+003,5.143495e-001
2.784823e+003,5.266826e-001
2.788680e+003,5.396131e-001
2.792538e+003,5.517223e-001
2.796395e+003,5.553432e-001
2.800252e+003,5.541964e-001
2.804109e+003,5.586620e-001
2.807966e+003,5.580864e-001
2.811823e+003,5.612867e-001
2.815680e+003,5.721802e-001
2.819537e+003,5.876511e-001
2.823394e+003,5.843022e-001
2.827251e+003,5.939693e-001
2.831109e+003,6.004812e-001
2.834966e+003,5.977451e-001
2.838823e+003,5.982704e-001
2.842680e+003,6.113111e-001
2.846537e+003,6.179557e-001
2.850394e+003,6.091211e-001
2.854251e+003,6.168990e-001
2.858108e+003,6.393660e-001
2.861965e+003,6.416631e-001
2.865823e+003,6.386505e-001
2.869679e+003,6.443950e-001
2.873537e+003,6.460175e-001
2.877394e+003,6.483949e-001
2.881251e+003,6.635019e-001
2.885108e+003,6.788216e-001
2.888965e+003,6.868418e-001
2.892822e+003,6.942669e-001
2.896679e+003,6.890240e-001
2.900536e+003,6.847195e-001
2.904393e+003,7.019767e-001
2.908250e+003,7.177696e-001
2.912108e+003,7.197742e-001
2.915965e+003,7.400120e-001
2.919822e+003,7.447352e-001
2.923679e+003,7.419226e-001
2.927536e+003,7.366154e-001
2.931393e+003,7.486686e-001
2.935250e+003,7.545111e-001
2.939107e+003,7.589118e-001
2.942964e+003,7.685978e-001
2.946822e+003,7.731428e-001
2.950678e+003,7.758114e-001
2.954536e+003,7.808694e-001
2.958393e+003,7.926330e-001
2.962250e+003,8.087421e-001
2.966107e+003,8.052447e-001
2.969964e+003,8.025342e-001
2.973821e+003,8.145062e-001
2.977678e+003,8.368201e-001
2.981535e+003,8.392274e-001
2.985392e+003,8.265759e-001
2.989250e+003,8.327338e-001
2.993107e+003,8.409832e-001
2.996964e+003,8.436182e-001
3.000821e+003,8.591686e-001
3.004678e+003,8.874640e-001
3.008535e+003,8.872319e-001
3.012392e+003,8.803433e-001
3.016249e+003,8.903641e-001
3.020106e+003,9.070271e-001
3.023963e+003,9.169677e-001
3.027821e+003,9.110525e-001
3.031677e+003,9.157771e-001
3.035535e+003,9.106663e-001
3.039392e+003,9.029458e-001
3.043249e+003,9.022878e-001
3.047106e+003,9.198417e-001
3.050963e+003,9.578589e-001
3.054820e+003,9.698691e-001
3.058677e+003,9.728351e-001
3.062534e+003,9.811057e-001
3.066391e+003,9.663759e-001
3.070249e+003,9.556135e-001
3.074106e+003,9.564511e-001
3.077963e+003,9.694883e-001
3.081820e+003,9.952767e-001
3.085677e+003,1.026477e+000
3.089534e+003,1.048817e+000
3.093391e+003,1.052453e+000
3.097248e+003,1.044733e+000
3.101105e+003,1.025072e+000
3.104962e+003,1.021814e+000
3.108820e+003,1.037125e+000
3.112677e+003,1.037043e+000
3.116534e+003,1.049199e+000
3.120391e+003,1.069122e+000
3.124248e+003,1.075092e+000
3.128105e+003,1.076565e+000
3.131962e+003,1.068969e+000
3.135819e+003,1.064209e+000
3.139676e+003,1.092707e+000
3.143533e+003,1.122206e+000
3.147390e+003,1.128219e+000
3.151248e+003,1.158304e+000
3.155105e+003,1.173700e+000
3.158962e+003,1.196792e+000
3.162819e+003,1.191419e+000
3.166676e+003,1.174231e+000
3.170533e+003,1.202615e+000
3.174390e+003,1.206962e+000
3.178247e+003,1.187801e+000
3.182104e+003,1.178928e+000
3.185961e+003,1.164081e+000
3.189819e+003,1.165818e+000
3.193676e+003,1.205839e+000
3.197533e+003,1.204791e+000
3.201390e+003,1.184111e+000
3.205247e+003,1.192574e+000
3.209104e+003,1.167474e+000
3.212961e+003,1.169708e+000
3.216818e+003,1.164807e+000
3.220675e+003,1.183603e+000
3.224532e+003,1.244075e+000
3.228389e+003,1.222107e+000
3.232247e+003,1.173124e+000
3.236104e+003,1.190247e+000
3.239961e+003,1.208264e+000
3.243818e+003,1.197127e+000
3.247675e+003,1.192026e+000
3.251532e+003,1.288748e+000
3.255389e+003,1.335993e+000
3.259246e+003,1.341822e+000
3.263103e+003,1.379342e+000
3.266960e+003,1.331008e+000
3.270818e+003,1.266093e+000
3.274675e+003,1.294557e+000
3.278532e+003,1.298929e+000
3.282389e+003,1.264334e+000
3.286246e+003,1.267659e+000
3.290103e+003,1.302832e+000
3.293960e+003,1.292891e+000
3.297817e+003,1.271417e+000
3.301674e+003,1.280264e+000
3.305531e+003,1.322510e+000
3.309388e+003,1.314977e+000
3.313246e+003,1.316252e+000
3.317103e+003,1.338367e+000
3.320960e+003,1.404840e+000
3.324817e+003,1.400795e+000
3.328674e+003,1.299924e+000
3.332531e+003,1.345655e+000
3.336388e+003,1.410564e+000
3.340245e+003,1.364028e+000
3.344102e+003,1.341152e+000
3.347959e+003,1.367636e+000
3.351817e+003,1.378415e+000
3.355674e+003,1.369194e+000
3.359531e+003,1.418028e+000
3.363388e+003,1.370658e+000
3.367245e+003,1.339319e+000
3.371102e+003,1.374613e+000
3.374959e+003,1.407948e+000
3.378816e+003,1.379833e+000
3.382673e+003,1.365240e+000
3.386530e+003,1.352372e+000
3.390387e+003,1.367594e+000
3.394245e+003,1.347518e+000
3.398102e+003,1.349388e+000
3.401959e+003,1.370289e+000
3.405816e+003,1.398478e+000
3.409673e+003,1.404946e+000
3.413530e+003,1.386140e+000
3.417387e+003,1.413495e+000
3.421244e+003,1.397588e+000
3.425101e+003,1.393142e+000
3.428958e+003,1.437221e+000
3.432815e+003,1.443820e+000
3.436673e+003,1.367561e+000
3.440530e+003,1.387214e+000
3.444387e+003,1.485591e+000
3.448244e+003,1.522814e+000
3.452101e+003,1.535141e+000
3.455958e+003,1.501003e+000
3.459815e+003,1.419492e+000
3.463672e+003,1.381521e+000
3.467529e+003,1.381039e+000
3.471386e+003,1.380117e+000
3.475244e+003,1.422483e+000
3.479101e+003,1.494349e+000
3.482958e+003,1.489447e+000
3.486815e+003,1.423046e+000
3.490672e+003,1.342614e+000
3.494529e+003,1.348171e+000
3.498386e+003,1.379840e+000
3.502243e+003,1.403437e+000
3.506100e+003,1.462023e+000
3.509958e+003,1.493441e+000
3.513814e+003,1.421576e+000
3.517672e+003,1.438037e+000
3.521529e+003,1.378224e+000
3.525386e+003,1.310600e+000
3.529243e+003,1.348778e+000
3.533100e+003,1.489462e+000
3.536957e+003,1.552107e+000
3.540814e+003,1.460448e+000
3.544671e+003,1.417577e+000
3.548528e+003,1.449569e+000
3.552385e+003,1.404958e+000
3.556243e+003,1.313973e+000
3.560100e+003,1.310890e+000
3.563957e+003,1.329901e+000
3.567814e+003,1.328071e+000
3.571671e+003,1.278531e+000
3.575528e+003,1.297103e+000
3.579385e+003,1.321487e+000
3.583242e+003,1.328772e+000
3.587099e+003,1.388734e+000
3.590957e+003,1.364659e+000
3.594813e+003,1.323201e+000
3.598671e+003,1.355376e+000
3.602528e+003,1.289532e+000
3.606385e+003,1.241459e+000
3.610242e+003,1.223826e+000
3.614099e+003,1.177982e+000
3.617956e+003,1.154262e+000
3.621813e+003,1.156203e+000
3.625670e+003,1.115609e+000
3.629527e+003,1.034637e+000
3.633385e+003,9.748559e-001
3.637242e+003,9.295818e-001
3.641099e+003,9.033995e-001
3.644956e+003,8.537414e-001
3.648813e+003,7.786681e-001
3.652670e+003,7.219940e-001
3.656527e+003,6.731008e-001
3.660384e+003,6.100570e-001
3.664241e+003,5.517536e-001
3.668098e+003,5.014213e-001
3.671956e+003,4.658639e-001
3.675813e+003,4.424866e-001
3.679670e+003,4.149752e-001
3.683527e+003,3.837755e-001
3.687384e+003,3.485575e-001
3.691241e+003,3.240342e-001
3.695098e+003,3.066568e-001
3.698955e+003,2.897057e-001
3.702812e+003,2.747831e-001
3.706669e+003,2.603145e-001
3.710526e+003,2.508276e-001
3.714384e+003,2.410533e-001
3.718241e+003,2.336446e-001
3.722098e+003,2.257567e-001
3.725955e+003,2.209110e-001
3.729812e+003,2.171668e-001
3.733669e+003,2.123544e-001
3.737526e+003,2.080776e-001
3.741383e+003,2.034776e-001
3.745240e+003,2.069482e-001
3.749097e+003,2.043711e-001
3.752955e+003,1.961922e-001
3.756812e+003,1.876959e-001
3.760669e+003,1.875077e-001
3.764526e+003,1.998503e-001
3.768383e+003,2.006458e-001
3.772240e+003,1.907648e-001
3.776097e+003,1.838245e-001
3.779954e+003,1.842566e-001
3.783811e+003,1.838041e-001
3.787668e+003,1.793565e-001
3.791525e+003,1.790159e-001
3.795383e+003,1.817313e-001
3.799240e+003,1.822499e-001
3.803097e+003,1.792712e-001
3.806954e+003,1.803187e-001
3.810811e+003,1.836293e-001
3.814668e+003,1.848680e-001
3.818525e+003,1.844659e-001
3.822382e+003,1.814757e-001
3.826239e+003,1.807864e-001
3.830096e+003,1.778594e-001
3.833954e+003,1.729403e-001
3.837811e+003,1.760288e-001
3.841668e+003,1.755283e-001
3.845525e+003,1.714810e-001
3.849382e+003,1.792770e-001
3.853239e+003,1.788690e-001
3.857096e+003,1.738593e-001
3.860953e+003,1.691450e-001
3.864810e+003,1.655391e-001
3.868667e+003,1.653597e-001
3.872524e+003,1.694104e-001
3.876382e+003,1.695556e-001
3.880239e+003,1.623928e-001
3.884096e+003,1.641646e-001
3.887953e+003,1.689000e-001
3.891810e+003,1.705448e-001
3.895667e+003,1.714908e-001
3.899524e+003,1.720173e-001
3.903381e+003,1.739230e-001
3.907238e+003,1.765336e-001
3.911095e+003,1.702782e-001
3.914953e+003,1.672490e-001
3.918810e+003,1.634915e-001
3.922667e+003,1.632067e-001
3.926524e+003,1.692229e-001
3.930381e+003,1.687997e-001
3.934238e+003,1.688373e-001
3.938095e+003,1.691640e-001
3.941952e+003,1.655188e-001
3.945809e+003,1.616680e-001
3.949667e+003,1.637494e-001
3.953523e+003,1.670422e-001
3.957381e+003,1.663229e-001
3.961238e+003,1.651422e-001
3.965095e+003,1.651351e-001
3.968952e+003,1.682332e-001
3.972809e+003,1.689977e-001
3.976666e+003,1.714645e-001
3.980523e+003,1.717404e-001
3.984380e+003,1.631808e-001
3.988237e+003,1.601458e-001
3.992094e+003,1.691274e-001
3.995952e+003,1.721211e-001
3.999809e+003,1.655792e-001
4.003666e+003,1.648976e-001
4.007523e+003,1.665530e-001
4.011380e+003,1.641655e-001
4.015237e+003,1.676910e-001
4.019094e+003,1.686329e-001
4.022951e+003,1.657414e-001
4.026808e+003,1.616349e-001
4.030666e+003,1.550471e-001
4.034522e+003,1.602264e-001
4.038380e+003,1.686332e-001
4.042237e+003,1.639962e-001
4.046094e+003,1.549203e-001
4.049951e+003,1.573446e-001
4.053808e+003,1.581269e-001
4.057665e+003,1.616286e-001
4.061522e+003,1.700281e-001
4.065379e+003,1.674317e-001
4.069236e+003,1.630881e-001
4.073094e+003,1.592743e-001
4.076951e+003,1.591110e-001
4.080808e+003,1.571293e-001
4.084665e+003,1.521519e-001
4.088522e+003,1.460029e-001
4.092379e+003,1.459804e-001
4.096236e+003,1.489295e-001
4.100093e+003,1.527851e-001
4.103950e+003,1.561769e-001
4.107808e+003,1.521314e-001
4.111665e+003,1.494331e-001
4.115521e+003,1.458479e-001
4.119379e+003,1.485924e-001
4.123236e+003,1.587288e-001
4.127093e+003,1.604486e-001
4.130950e+003,1.527665e-001
4.134807e+003,1.446059e-001
4.138664e+003,1.464561e-001
4.142521e+003,1.543443e-001
4.146378e+003,1.562818e-001
4.150235e+003,1.453408e-001
4.154093e+003,1.426780e-001
4.157950e+003,1.530818e-001
4.161807e+003,1.486771e-001
4.165664e+003,1.437265e-001
4.169521e+003,1.496065e-001
4.173378e+003,1.536114e-001
4.177235e+003,1.467390e-001
4.181092e+003,1.431234e-001
4.184949e+003,1.399540e-001
4.188807e+003,1.366578e-001
4.192664e+003,1.383131e-001
4.196521e+003,1.401397e-001
4.200378e+003,1.378448e-001
4.204235e+003,1.392737e-001
4.208092e+003,1.408913e-001
4.211949e+003,1.406703e-001
4.215806e+003,1.467512e-001
4.219663e+003,1.480771e-001
4.223521e+003,1.401671e-001
4.227377e+003,1.393662e-001
4.231234e+003,1.416468e-001
4.235092e+003,1.406257e-001
4.238949e+003,1.350007e-001
4.242806e+003,1.317906e-001
4.246663e+003,1.442899e-001
4.250520e+003,1.538397e-001
4.254377e+003,1.508161e-001
4.258234e+003,1.474838e-001
4.262091e+003,1.463979e-001
4.265948e+003,1.490137e-001
4.269806e+003,1.470709e-001
4.273663e+003,1.403589e-001
4.277520e+003,1.413911e-001
4.281377e+003,1.469105e-001
4.285234e+003,1.402240e-001
4.289091e+003,1.362030e-001
4.292948e+003,1.384366e-001
4.296805e+003,1.352359e-001
4.300662e+003,1.415135e-001
4.304520e+003,1.404777e-001
4.308376e+003,1.344000e-001
4.312233e+003,1.356517e-001
4.316091e+003,1.313554e-001
4.319948e+003,1.343286e-001
4.323805e+003,1.396616e-001
4.327662e+003,1.392150e-001
4.331519e+003,1.399036e-001
4.335376e+003,1.499720e-001
4.339233e+003,1.515629e-001
4.343090e+003,1.404895e-001
4.346947e+003,1.374206e-001
4.350805e+003,1.436128e-001
4.354662e+003,1.428392e-001
4.358519e+003,1.364534e-001
4.362376e+003,1.301615e-001
4.366233e+003,1.267673e-001
4.370090e+003,1.324088e-001
4.373947e+003,1.352911e-001
4.377804e+003,1.323548e-001
4.381661e+003,1.382937e-001
4.385519e+003,1.422771e-001
4.389375e+003,1.451896e-001
4.393232e+003,1.444816e-001
4.397090e+003,1.428503e-001
4.400947e+003,1.496812e-001
4.404804e+003,1.479789e-001
4.408661e+003,1.462485e-001
4.412518e+003,1.512595e-001
4.416375e+003,1.473334e-001
4.420232e+003,1.419679e-001
4.424089e+003,1.366951e-001
4.427946e+003,1.376996e-001
4.431804e+003,1.371221e-001
4.435661e+003,1.318267e-001
4.439518e+003,1.294489e-001
4.443375e+003,1.332619e-001
4.447232e+003,1.406415e-001
4.451089e+003,1.458387e-001
4.454946e+003,1.460969e-001
4.458803e+003,1.494966e-001
4.462660e+003,1.450277e-001
4.466518e+003,1.414682e-001
4.470375e+003,1.367849e-001
4.474231e+003,1.358538e-001
4.478089e+003,1.349509e-001
4.481946e+003,1.317625e-001
4.485803e+003,1.425310e-001
4.489660e+003,1.480467e-001
4.493517e+003,1.454610e-001
4.497375e+003,1.458789e-001
4.501231e+003,1.308131e-001
4.505088e+003,1.296289e-001
4.508946e+003,1.395616e-001
4.512803e+003,1.476315e-001
4.516660e+003,1.445095e-001
4.520517e+003,1.383023e-001
4.524374e+003,1.400429e-001
4.528231e+003,1.491057e-001
4.532088e+003,1.487524e-001
4.535945e+003,1.360440e-001
4.539802e+003,1.354213e-001
4.543660e+003,1.496127e-001
4.547517e+003,1.431371e-001
4.551374e+003,1.428906e-001
4.555231e+003,1.496891e-001
4.559088e+003,1.412183e-001
4.562945e+003,1.328551e-001
4.566802e+003,1.336325e-001
4.570659e+003,1.465530e-001
4.574516e+003,1.424383e-001
4.578374e+003,1.326334e-001
4.582230e+003,1.310949e-001
4.586087e+003,1.341230e-001
4.589945e+003,1.424391e-001
4.593802e+003,1.433495e-001
4.597659e+003,1.465255e-001
4.601516e+003,1.487761e-001
4.605373e+003,1.447131e-001
4.609230e+003,1.429957e-001
4.613087e+003,1.411690e-001
4.616944e+003,1.389027e-001
4.620801e+003,1.266979e-001
4.624659e+003,1.288764e-001
4.628516e+003,1.386378e-001
4.632373e+003,1.375830e-001
4.636230e+003,1.287560e-001
4.640087e+003,1.247125e-001
4.643944e+003,1.272611e-001
4.647801e+003,1.244900e-001
4.651658e+003,1.308633e-001
4.655515e+003,1.366258e-001
4.659373e+003,1.382541e-001
4.663229e+003,1.363944e-001
4.667086e+003,1.269677e-001
4.670944e+003,1.312385e-001
4.674801e+003,1.413442e-001
4.678658e+003,1.381622e-001
4.682515e+003,1.304526e-001
4.686372e+003,1.290047e-001
4.690229e+003,1.344691e-001
4.694086e+003,1.357733e-001
4.697943e+003,1.312687e-001
4.701800e+003,1.262076e-001
4.705658e+003,1.258853e-001
4.709515e+003,1.296038e-001
4.713372e+003,1.290992e-001
4.717229e+003,1.263471e-001
4.721086e+003,1.282015e-001
4.724943e+003,1.251279e-001
4.728800e+003,1.323047e-001
4.732657e+003,1.496547e-001
4.736514e+003,1.498882e-001
4.740372e+003,1.383602e-001
4.744229e+003,1.348561e-001
4.748085e+003,1.416179e-001
4.751943e+003,1.400998e-001
4.755800e+003,1.302363e-001
4.759657e+003,1.254409e-001
4.763514e+003,1.289501e-001
4.767371e+003,1.354571e-001
4.771228e+003,1.255526e-001
4.775085e+003,1.189737e-001
4.778942e+003,1.364534e-001
4.782799e+003,1.332021e-001
4.786657e+003,1.222182e-001
4.790514e+003,1.258241e-001
4.794371e+003,1.345621e-001
4.798228e+003,1.375298e-001
4.802085e+003,1.315816e-001
4.805942e+003,1.260447e-001
4.809799e+003,1.228829e-001
4.813656e+003,1.296050e-001
4.817513e+003,1.319430e-001
4.821371e+003,1.335899e-001
4.825228e+003,1.302771e-001
4.829084e+003,1.254867e-001
4.832942e+003,1.219733e-001
4.836799e+003,1.309758e-001
4.840656e+003,1.306782e-001
4.844513e+003,1.217101e-001
4.848370e+003,1.248945e-001
4.852227e+003,1.302518e-001
4.856084e+003,1.372029e-001
4.859941e+003,1.284262e-001
4.863798e+003,1.283455e-001
4.867656e+003,1.400911e-001
4.871513e+003,1.485897e-001
4.875370e+003,1.425391e-001
4.879227e+003,1.351019e-001
4.883084e+003,1.386371e-001
4.886941e+003,1.473740e-001
4.890798e+003,1.413917e-001
4.894655e+003,1.398188e-001
4.898512e+003,1.462417e-001
4.902370e+003,1.426523e-001
4.906227e+003,1.387713e-001
4.910083e+003,1.362958e-001
4.913941e+003,1.337088e-001
4.917798e+003,1.352276e-001
4.921655e+003,1.289675e-001
4.925512e+003,1.226527e-001
4.929369e+003,1.283840e-001
4.933226e+003,1.420835e-001
4.937083e+003,1.441646e-001
4.940940e+003,1.399707e-001
4.944797e+003,1.376840e-001
4.948655e+003,1.369192e-001
4.952512e+003,1.334180e-001
4.956369e+003,1.366240e-001
4.960226e+003,1.337500e-001
4.964083e+003,1.277080e-001
4.967940e+003,1.271673e-001
4.971797e+003,1.368100e-001
4.975654e+003,1.509272e-001
4.979511e+003,1.491260e-001
4.983369e+003,1.281293e-001
4.987226e+003,1.232587e-001
4.991083e+003,1.355098e-001
4.994940e+003,1.364965e-001
4.998797e+003,1.321246e-001
5.002654e+003,1.254638e-001
5.006511e+003,1.204933e-001
5.010368e+003,1.168509e-001
5.014225e+003,1.214127e-001
5.018083e+003,1.370989e-001
5.021939e+003,1.388061e-001
5.025796e+003,1.343130e-001
5.029654e+003,1.376078e-001
5.033511e+003,1.365703e-001
5.037368e+003,1.452730e-001
5.041225e+003,1.450637e-001
5.045082e+003,1.391134e-001
5.048939e+003,1.379048e-001
5.052796e+003,1.286097e-001
5.056653e+003,1.289386e-001
5.060510e+003,1.278757e-001
5.064368e+003,1.376813e-001
5.068225e+003,1.428431e-001
5.072082e+003,1.467423e-001
5.075939e+003,1.440241e-001
5.079796e+003,1.513049e-001
5.083653e+003,1.505233e-001
5.087510e+003,1.563637e-001
5.091367e+003,1.604558e-001
5.095224e+003,1.508400e-001
5.099082e+003,1.420509e-001
5.102938e+003,1.352867e-001
5.106795e+003,1.338795e-001
5.110653e+003,1.385631e-001
5.114510e+003,1.323898e-001
5.118367e+003,1.277099e-001
5.122224e+003,1.326143e-001
5.126081e+003,1.405113e-001
5.129938e+003,1.497595e-001
5.133795e+003,1.515504e-001
5.137652e+003,1.568503e-001
5.141509e+003,1.517932e-001
5.145367e+003,1.474761e-001
5.149224e+003,1.476540e-001
5.153081e+003,1.380293e-001
5.156938e+003,1.379489e-001
5.160795e+003,1.497691e-001
5.164652e+003,1.521065e-001
5.168509e+003,1.473982e-001
5.172366e+003,1.445453e-001
5.176223e+003,1.452065e-001
5.180081e+003,1.427861e-001
5.183938e+003,1.353635e-001
5.187794e+003,1.273777e-001
5.191652e+003,1.252767e-001
5.195509e+003,1.354691e-001
5.199366e+003,1.517324e-001
5.203223e+003,1.453090e-001
5.207080e+003,1.466776e-001
5.210937e+003,1.442390e-001
5.214794e+003,1.363716e-001
5.218651e+003,1.475928e-001
5.222508e+003,1.589263e-001
5.226366e+003,1.589001e-001
5.230223e+003,1.477320e-001
5.234080e+003,1.305652e-001
5.237937e+003,1.295376e-001
5.241794e+003,1.368105e-001
5.245651e+003,1.351039e-001
5.249508e+003,1.387570e-001
5.253365e+003,1.439324e-001
5.257222e+003,1.399618e-001
5.261080e+003,1.315012e-001
5.264937e+003,1.291414e-001
5.268793e+003,1.141695e-001
5.272651e+003,1.155446e-001
5.276508e+003,1.184530e-001
5.280365e+003,1.201539e-001
5.284222e+003,1.253934e-001
5.288079e+003,1.212370e-001
5.291936e+003,1.163772e-001
5.295793e+003,1.207811e-001
5.299650e+003,1.287339e-001
5.303507e+003,1.234605e-001
5.307365e+003,1.358431e-001
5.311222e+003,1.348536e-001
5.315079e+003,1.279971e-001
5.318936e+003,1.242478e-001
5.322793e+003,1.273839e-001
5.326650e+003,1.273532e-001
5.330507e+003,1.321451e-001
5.334364e+003,1.329772e-001
5.338221e+003,1.313879e-001
5.342079e+003,1.249358e-001
5.345936e+003,1.222941e-001
5.349792e+003,1.319511e-001
5.353650e+003,1.262629e-001
5.357507e+003,1.190459e-001
5.361364e+003,1.363637e-001
5.365221e+003,1.457114e-001
5.369078e+003,1.360513e-001
5.372935e+003,1.336478e-001
5.376792e+003,1.298505e-001
5.380649e+003,1.200566e-001
5.384506e+003,1.256701e-001
5.388364e+003,1.331198e-001
5.392221e+003,1.296847e-001
5.396078e+003,1.229244e-001
5.399935e+003,1.281622e-001
5.403792e+003,1.187710e-001
5.407649e+003,1.172886e-001
5.411506e+003,1.254251e-001
5.415363e+003,1.318401e-001
5.419220e+003,1.305539e-001
5.423078e+003,1.242517e-001
5.426935e+003,1.300819e-001
5.430792e+003,1.367131e-001
5.434649e+003,1.205640e-001
5.438506e+003,1.206415e-001
5.442363e+003,1.327719e-001
5.446220e+003,1.316066e-001
5.450077e+003,1.262874e-001
5.453934e+003,1.261956e-001
5.457792e+003,1.306342e-001
5.461648e+003,1.302087e-001
5.465505e+003,1.317641e-001
5.469363e+003,1.388473e-001
5.473220e+003,1.366027e-001
5.477077e+003,1.310993e-001
5.480934e+003,1.308964e-001
5.484791e+003,1.297726e-001
5.488648e+003,1.279617e-001
5.492505e+003,1.146400e-001
5.496362e+003,1.148786e-001
5.500219e+003,1.196978e-001
5.504077e+003,1.300088e-001
5.507934e+003,1.301987e-001
5.511791e+003,1.327423e-001
5.515648e+003,1.352603e-001
5.519505e+003,1.189091e-001
5.523362e+003,1.049798e-001
5.527219e+003,9.163588e-002
5.531076e+003,9.470570e-002
5.534933e+003,1.146541e-001
5.538791e+003,1.291683e-001
5.542647e+003,1.312398e-001
5.546504e+003,1.310971e-001
5.550362e+003,1.416825e-001
5.554219e+003,1.476747e-001
5.558076e+003,1.442777e-001
5.561933e+003,1.218153e-001
5.565790e+003,1.169843e-001
5.569647e+003,1.251309e-001
5.573504e+003,1.295096e-001
5.577361e+003,1.349227e-001
5.581218e+003,1.359569e-001
5.585076e+003,1.357328e-001
5.588933e+003,1.268433e-001
5.592790e+003,1.250716e-001
5.596647e+003,1.324828e-001
5.600504e+003,1.296226e-001
5.604361e+003,1.266106e-001
5.608218e+003,1.305726e-001
5.612075e+003,1.298000e-001
5.615932e+003,1.252730e-001
5.619790e+003,1.176887e-001
5.623646e+003,1.223594e-001
5.627503e+003,1.287269e-001
5.631361e+003,1.243102e-001
5.635218e+003,1.178377e-001
5.639075e+003,1.138387e-001
5.642932e+003,1.079567e-001
5.646789e+003,1.085484e-001
5.650646e+003,1.183799e-001
5.654503e+003,1.102188e-001
5.658360e+003,1.105125e-001
5.662217e+003,1.114144e-001
5.666075e+003,1.216016e-001
5.669932e+003,1.294879e-001
5.673789e+003,1.283818e-001
5.677646e+003,1.241270e-001
5.681503e+003,1.313534e-001
5.685360e+003,1.405095e-001
5.689217e+003,1.226036e-001
5.693074e+003,1.126496e-001
5.696931e+003,1.168814e-001
5.700789e+003,1.088572e-001
5.704646e+003,1.139230e-001
5.708502e+003,1.269825e-001
5.712360e+003,1.211494e-001
5.716217e+003,1.214433e-001
5.720074e+003,1.240410e-001
5.723931e+003,1.268149e-001
5.727788e+003,1.315467e-001
5.731645e+003,1.256204e-001
5.735502e+003,1.180297e-001
5.739359e+003,1.211526e-001
5.743216e+003,1.185798e-001
5.747074e+003,1.040595e-001
5.750931e+003,1.080037e-001
5.754788e+003,1.062737e-001
5.758645e+003,1.034895e-001
5.762502e+003,1.033531e-001
5.766359e+003,1.031215e-001
5.770216e+003,1.161695e-001
5.774073e+003,1.334643e-001
5.777930e+003,1.382003e-001
5.781788e+003,1.343706e-001
5.785645e+003,1.320681e-001
5.789501e+003,1.329324e-001
5.793359e+003,1.322085e-001
5.797216e+003,1.286346e-001
5.801073e+003,1.272166e-001
5.804930e+003,1.254178e-001
5.808787e+003,1.219071e-001
5.812644e+003,1.249047e-001
5.816501e+003,1.255208e-001
5.820358e+003,1.120513e-001
5.824215e+003,1.081088e-001
5.828073e+003,1.267403e-001
5.831930e+003,1.369328e-001
5.835787e+003,1.239081e-001
5.839644e+003,1.115840e-001
5.843501e+003,1.076624e-001
5.847358e+003,1.035002e-001
5.851215e+003,1.089629e-001
5.855072e+003,1.081952e-001
5.858929e+003,9.920675e-002
5.862787e+003,1.094597e-001
5.866644e+003,1.281991e-001
5.870500e+003,1.237135e-001
5.874358e+003,1.293083e-001
5.878215e+003,1.300407e-001
5.882072e+003,1.048307e-001
5.885929e+003,9.934156e-002
5.889786e+003,9.911525e-002
5.893643e+003,1.071427e-001
5.897500e+003,1.121616e-001
5.901357e+003,1.155756e-001
5.905214e+003,1.116136e-001
5.909072e+003,1.172222e-001
5.912929e+003,1.276303e-001
5.916786e+003,1.232762e-001
5.920643e+003,1.167862e-001
5.924500e+003,1.213137e-001
5.928357e+003,1.210344e-001
5.932214e+003,1.035811e-001
5.936071e+003,1.010345e-001
5.939928e+003,1.141255e-001
5.943786e+003,1.127169e-001
5.947643e+003,9.974992e-002
5.951500e+003,9.195196e-002
5.955357e+003,9.515984e-002
5.959214e+003,1.113298e-001
5.963071e+003,1.156456e-001
5.966928e+003,1.282344e-001
5.970785e+003,1.298223e-001
5.974642e+003,1.114011e-001
5.978500e+003,1.064167e-001
5.982356e+003,1.073027e-001
5.986213e+003,1.076475e-001
5.990071e+003,1.059789e-001
5.993928e+003,1.025533e-001
5.997785e+003,1.035513e-001
6.001642e+003,1.048391e-001
6.005499e+003,1.200706e-001
6.009356e+003,1.258812e-001
6.013213e+003,1.270277e-001
6.017070e+003,1.250196e-001
6.020927e+003,1.118153e-001
6.024785e+003,1.245242e-001
6.028642e+003,1.388253e-001
6.032499e+003,1.318697e-001
6.036356e+003,1.261151e-001
6.040213e+003,1.354213e-001
6.044070e+003,1.383390e-001
6.047927e+003,1.333258e-001
6.051784e+003,1.241251e-001
6.055641e+003,1.296943e-001
6.059499e+003,1.214307e-001
6.063355e+003,9.882973e-002
6.067212e+003,1.068220e-001
6.071070e+003,1.196938e-001
6.074927e+003,1.252096e-001
6.078784e+003,1.207588e-001
6.082641e+003,1.232378e-001
6.086498e+003,1.185790e-001
6.090355e+003,1.239322e-001
6.094212e+003,1.354175e-001
6.098069e+003,1.197471e-001
6.101926e+003,1.103648e-001
6.105784e+003,1.117961e-001
6.109641e+003,1.107284e-001
6.113498e+003,1.116669e-001
6.117355e+003,1.044239e-001
6.121212e+003,1.146553e-001
6.125069e+003,1.175856e-001
6.128926e+003,1.247751e-001
6.132783e+003,1.330480e-001
6.136640e+003,1.330696e-001
6.140498e+003,1.246756e-001
6.144354e+003,1.222244e-001
6.148211e+003,1.328495e-001
6.152069e+003,1.332165e-001
6.155926e+003,1.212809e-001
6.159783e+003,1.051421e-001
6.163640e+003,1.074648e-001
6.167497e+003,1.175403e-001
6.171354e+003,1.326289e-001
6.175211e+003,1.361691e-001
6.179068e+003,1.198939e-001
6.182925e+003,1.101907e-001
6.186783e+003,1.295239e-001
6.190640e+003,1.306992e-001
6.194497e+003,1.396196e-001
6.198354e+003,1.342008e-001
6.202211e+003,1.208679e-001
6.206068e+003,1.374165e-001
6.209925e+003,1.274218e-001
6.213782e+003,1.056421e-001
6.217639e+003,1.076838e-001
6.221497e+003,1.139608e-001
6.225354e+003,1.291074e-001
6.229210e+003,1.229818e-001
6.233068e+003,8.880483e-002
6.236925e+003,9.036997e-002
6.240782e+003,1.226500e-001
6.244639e+003,1.225422e-001
6.248496e+003,1.126769e-001
6.252353e+003,1.073959e-001
6.256210e+003,9.933469e-002
6.260067e+003,1.016158e-001
6.263924e+003,9.595329e-002
6.267782e+003,9.357199e-002
6.271639e+003,9.026950e-002
6.275496e+003,9.867870e-002
6.279353e+003,1.100696e-001
6.283210e+003,1.198375e-001
6.287067e+003,1.112115e-001
6.290924e+003,1.226250e-001
6.294781e+003,1.362682e-001
6.298638e+003,1.328900e-001
6.302496e+003,1.205539e-001
6.306353e+003,1.318143e-001
6.310209e+003,1.518154e-001
6.314067e+003,1.513659e-001
6.317924e+003,1.328818e-001
6.321781e+003,1.214662e-001
6.325638e+003,1.199234e-001
6.329495e+003,1.071959e-001
6.333352e+003,1.073277e-001
6.337209e+003,1.287911e-001
6.341066e+003,1.321635e-001
6.344923e+003,1.095050e-001
6.348780e+003,1.030208e-001
6.352638e+003,1.128243e-001
6.356495e+003,1.304383e-001
6.360352e+003,1.206070e-001
6.364209e+003,1.107419e-001
6.368066e+003,1.180990e-001
6.371923e+003,1.440542e-001
6.375780e+003,1.569209e-001
6.379637e+003,1.663935e-001
6.383494e+003,1.748289e-001
6.387352e+003,1.624716e-001
6.391208e+003,1.461977e-001
6.395065e+003,1.509223e-001
6.398923e+003,1.576455e-001
6.402780e+003,1.316043e-001
6.406637e+003,1.208612e-001
6.410494e+003,1.281492e-001
6.414351e+003,1.216704e-001
6.418208e+003,1.078820e-001
6.422065e+003,1.099436e-001
6.425922e+003,1.388119e-001
6.429779e+003,1.496278e-001
6.433637e+003,1.284912e-001
6.437494e+003,1.094562e-001
6.441351e+003,1.109640e-001
6.445208e+003,1.332750e-001
6.449065e+003,1.356727e-001
6.452922e+003,1.158453e-001
6.456779e+003,9.291615e-002
6.460636e+003,8.176669e-002
6.464493e+003,1.033455e-001
6.468351e+003,1.245769e-001
6.472208e+003,1.180938e-001
6.476064e+003,1.222830e-001
6.479922e+003,1.098154e-001
6.483779e+003,1.086282e-001
6.487636e+003,1.262089e-001
6.491493e+003,1.333569e-001
6.495350e+003,1.166071e-001
6.499207e+003,1.150678e-001
6.503064e+003,1.276976e-001
6.506921e+003,1.028545e-001
6.510778e+003,8.147444e-002
6.514636e+003,7.225312e-002
6.518493e+003,1.221717e-001
6.522350e+003,1.851864e-001
6.526207e+003,1.551686e-001
6.530064e+003,1.250713e-001
6.533921e+003,1.303151e-001
6.537778e+003,1.230661e-001
6.541635e+003,1.018170e-001
6.545492e+003,1.055137e-001
6.549350e+003,1.124739e-001
6.553207e+003,1.253968e-001
6.557063e+003,1.452263e-001
6.560921e+003,1.284271e-001
6.564778e+003,1.058367e-001
6.568635e+003,1.104201e-001
6.572492e+003,1.451132e-001
6.576349e+003,1.562953e-001
6.580206e+003,1.321842e-001
6.584063e+003,1.137244e-001
6.587920e+003,1.047106e-001
6.591777e+003,9.989986e-002
6.595635e+003,1.341283e-001
6.599492e+003,1.254906e-001
6.603349e+003,9.935351e-002
6.607206e+003,9.088111e-002
6.611063e+003,1.148955e-001
6.614920e+003,1.468585e-001
6.618777e+003,1.261674e-001
6.622634e+003,1.223043e-001
6.626491e+003,1.068315e-001
6.630349e+003,1.242523e-001
6.634206e+003,1.581810e-001
6.638063e+003,1.629411e-001
6.641920e+003,1.202710e-001
6.645777e+003,1.030544e-001
6.649634e+003,1.181511e-001
6.653491e+003,1.377982e-001
6.657348e+003,1.642057e-001
6.661205e+003,1.601139e-001
6.665063e+003,1.534053e-001
6.668919e+003,1.352337e-001
6.672776e+003,1.188727e-001
6.676634e+003,1.119176e-001
6.680491e+003,1.430765e-001
6.684348e+003,1.780666e-001
6.688205e+003,1.629534e-001
6.692062e+003,1.545914e-001
6.695919e+003,1.458018e-001
6.699776e+003,1.385168e-001
6.703633e+003,1.350371e-001
6.707490e+003,1.152127e-001
6.711348e+003,1.072189e-001
6.715205e+003,1.565124e-001
6.719062e+003,1.737165e-001
6.722919e+003,1.577596e-001
6.726776e+003,1.715648e-001
6.730633e+003,1.729091e-001
6.734490e+003,1.518346e-001
6.738347e+003,1.468726e-001
6.742204e+003,1.642008e-001
6.746062e+003,1.302889e-001
6.749918e+003,1.066092e-001
6.753775e+003,1.382422e-001
6.757633e+003,1.726082e-001
6.761490e+003,1.698030e-001
6.765347e+003,1.448896e-001
6.769204e+003,1.192891e-001
6.773061e+003,1.323899e-001
6.776918e+003,1.237062e-001
6.780775e+003,1.018229e-001
6.784632e+003,1.291589e-001
6.788489e+003,1.343509e-001
6.792347e+003,1.180660e-001
6.796204e+003,9.671783e-002
6.800061e+003,1.133146e-001
6.803918e+003,1.580922e-001
6.807775e+003,1.425681e-001
6.811632e+003,1.164448e-001
6.815489e+003,1.379733e-001
6.819346e+003,1.829226e-001
6.823203e+003,1.907944e-001
6.827061e+003,1.505849e-001
6.830917e+003,1.163847e-001
6.834774e+003,1.302641e-001
6.838632e+003,1.393118e-001
6.842489e+003,1.017991e-001
6.846346e+003,9.814414e-002
6.850203e+003,1.215909e-001
6.854060e+003,1.132724e-001
6.857917e+003,1.373743e-001
6.861774e+003,1.414770e-001
6.865631e+003,1.260278e-001
6.869488e+003,1.293105e-001
6.873346e+003,1.410096e-001
6.877203e+003,1.715855e-001
6.881060e+003,1.686748e-001
6.884917e+003,1.708322e-001
6.888774e+003,1.668431e-001
6.892631e+003,1.619781e-001
6.896488e+003,1.371184e-001
6.900345e+003,1.098590e-001
6.904202e+003,1.374885e-001
6.908060e+003,1.350981e-001
6.911917e+003,1.194424e-001
6.915773e+003,1.400913e-001
6.919631e+003,1.894971e-001
6.923488e+003,1.911452e-001
6.927345e+003,1.185513e-001
6.931202e+003,1.228214e-001
6.935059e+003,1.516042e-001
6.938916e+003,1.458824e-001
6.942773e+003,1.752682e-001
6.946630e+003,1.602611e-001
6.950487e+003,1.411457e-001
6.954345e+003,1.389674e-001
6.958202e+003,1.195142e-001
6.962059e+003,1.112498e-001
6.965916e+003,1.576670e-001
6.969773e+003,1.584354e-001
6.973630e+003,1.330134e-001
6.977487e+003,1.297974e-001
6.981344e+003,1.272435e-001
6.985201e+003,1.504102e-001
6.989059e+003,1.767788e-001
6.992916e+003,1.774140e-001
6.996772e+003,1.553401e-001
7.000630e+003,1.465760e-001
7.004487e+003,1.361782e-001
7.008344e+003,1.569369e-001
7.012201e+003,1.709506e-001
7.016058e+003,1.684344e-001
7.019915e+003,1.409179e-001
7.023772e+003,1.532544e-001
7.027629e+003,1.424660e-001
7.031486e+003,1.527161e-001
7.035344e+003,1.791636e-001
7.039201e+003,1.679444e-001
7.043058e+003,1.118175e-001
7.046915e+003,1.387460e-001
7.050772e+003,1.802188e-001
7.054629e+003,1.629411e-001
7.058486e+003,1.443169e-001
7.062343e+003,1.399535e-001
7.066200e+003,1.466788e-001
7.070058e+003,1.450787e-001
7.073915e+003,1.412129e-001
7.077771e+003,1.417297e-001
7.081629e+003,1.874019e-001
7.085486e+003,1.947586e-001
7.089343e+003,1.497055e-001
7.093200e+003,1.316045e-001
7.097057e+003,1.234261e-001
7.100914e+003,1.402272e-001
7.104771e+003,1.508695e-001
7.108628e+003,1.384260e-001
7.112485e+003,1.773907e-001
7.116343e+003,2.050318e-001
7.120200e+003,1.841696e-001
7.124057e+003,1.827467e-001
7.127914e+003,1.639705e-001
7.131771e+003,1.512442e-001
7.135628e+003,1.415728e-001
7.139485e+003,1.467886e-001
7.143342e+003,1.691117e-001
7.147199e+003,1.382902e-001
7.151057e+003,1.139589e-001
7.154914e+003,1.332424e-001
7.158771e+003,1.595528e-001
7.162628e+003,1.185675e-001
7.166485e+003,1.029652e-001
7.170342e+003,1.175329e-001
7.174199e+003,1.470916e-001
7.178056e+003,1.261945e-001
7.181913e+003,1.464657e-001
7.185771e+003,1.651020e-001
7.189627e+003,1.728334e-001
7.193484e+003,1.910723e-001
7.197342e+003,1.945125e-001
7.201199e+003,1.729725e-001
7.205056e+003,1.511274e-001
7.208913e+003,1.291259e-001
7.212770e+003,1.464452e-001
7.216627e+003,1.994744e-001
7.220484e+003,1.877406e-001
7.224341e+003,1.610957e-001
7.228198e+003,1.746894e-001
7.232056e+003,1.812729e-001
7.235913e+003,1.897597e-001
7.239770e+003,2.055046e-001
7.243627e+003,2.350313e-001
7.247484e+003,1.975022e-001
7.251341e+003,1.582630e-001
7.255198e+003,1.227037e-001
7.259055e+003,9.980224e-002
7.262912e+003,7.418059e-002
7.266770e+003,9.585085e-002
7.270626e+003,1.717269e-001
7.274483e+003,1.877630e-001
7.278341e+003,1.789061e-001
7.282198e+003,1.673373e-001
7.286055e+003,1.498926e-001
7.289912e+003,1.864069e-001
7.293769e+003,2.094997e-001
7.297626e+003,2.095499e-001
7.301483e+003,1.868917e-001
7.305340e+003,1.618912e-001
7.309197e+003,1.658598e-001
7.313055e+003,1.224734e-001
7.316912e+003,8.975141e-002
7.320769e+003,1.295743e-001
7.324626e+003,1.637716e-001
7.328483e+003,1.262338e-001
7.332340e+003,7.718363e-002
7.336197e+003,5.671078e-002
7.340054e+003,8.216713e-002
7.343911e+003,1.366461e-001
7.347769e+003,1.130983e-001
7.351625e+003,8.137972e-002
7.355482e+003,1.258850e-001
7.359340e+003,1.494178e-001
7.363197e+003,1.424545e-001
7.367054e+003,1.563370e-001
7.370911e+003,2.134725e-001
7.374768e+003,2.193422e-001
7.378625e+003,1.667532e-001
7.382482e+003,1.461188e-001
7.386339e+003,1.494936e-001
7.390196e+003,1.776423e-001
7.394054e+003,2.143164e-001
7.397911e+003,2.178897e-001
7.401768e+003,1.801496e-001
7.405625e+003,1.507193e-001
7.409482e+003,1.270300e-001
7.413339e+003,1.388609e-001
7.417196e+003,1.652493e-001
7.421053e+003,1.842801e-001
7.424910e+003,1.722279e-001
7.428768e+003,1.811667e-001
7.432625e+003,2.087422e-001
7.436481e+003,8.865655e-002
7.440339e+003,-2.839759e-003
7.444196e+003,1.076652e-001
7.448053e+003,2.027937e-001
7.451910e+003,2.357205e-001
7.455767e+003,1.833468e-001
7.459624e+003,1.498615e-001
7.463481e+003,1.452536e-001
7.467338e+003,1.382494e-001
7.471195e+003,2.314188e-001
7.475053e+003,2.458547e-001
7.478910e+003,1.306710e-001
7.482767e+003,1.384093e-001
7.486624e+003,1.772292e-001
7.490481e+003,1.312308e-001
7.494338e+003,1.169768e-001
7.498195e+003,1.500293e-001
7.502052e+003,1.480589e-001
7.505909e+003,1.395660e-001
7.509767e+003,1.772508e-001
7.513624e+003,2.244136e-001
7.517480e+003,2.354314e-001
7.521338e+003,2.051896e-001
7.525195e+003,1.621582e-001
7.529052e+003,1.173004e-001
7.532909e+003,1.085291e-001
7.536766e+003,2.787374e-001
7.540623e+003,2.960321e-001
7.544480e+003,2.341537e-001
7.548337e+003,2.617984e-001
7.552194e+003,2.666761e-001
7.556052e+003,1.375840e-001
7.559909e+003,6.554551e-002
7.563766e+003,1.276754e-001
7.567623e+003,2.732874e-001
7.571480e+003,3.091870e-001
7.575337e+003,2.405477e-001
7.579194e+003,1.783030e-001
7.583051e+003,2.160071e-001
7.586908e+003,2.417597e-001
7.590766e+003,2.304207e-001
7.594623e+003,2.032797e-001
7.598479e+003,1.652235e-001
7.602337e+003,1.634037e-001
7.606194e+003,1.926210e-001
7.610051e+003,1.761958e-001
7.613908e+003,2.091572e-001
7.617765e+003,2.370375e-001
7.621622e+003,2.062734e-001
7.625479e+003,1.716436e-001
7.629336e+003,2.395782e-001
7.633193e+003,2.524102e-001
7.637051e+003,1.485065e-001
7.640908e+003,1.023532e-001
7.644765e+003,1.072447e-001
7.648622e+003,1.603113e-001
7.652479e+003,2.828044e-001
7.656336e+003,3.071026e-001
7.660193e+003,2.618118e-001
7.664050e+003,1.793396e-001
7.667907e+003,1.236920e-001
7.671765e+003,1.898997e-001
7.675622e+003,2.536543e-001
7.679479e+003,3.057432e-001
7.683336e+003,2.358759e-001
7.687193e+003,2.077612e-001
7.691050e+003,2.142473e-001
7.694907e+003,2.589963e-001
7.698764e+003,3.046656e-001
7.702621e+003,3.906400e-001
7.706479e+003,3.419366e-001
7.710335e+003,2.019922e-001
7.714192e+003,2.253090e-001
7.718050e+003,2.289684e-001
7.721907e+003,1.865715e-001
7.725764e+003,1.722272e-001
7.729621e+003,5.079145e-002
7.733478e+003,-1.012086e-002
7.737335e+003,8.628701e-002
7.741192e+003,1.262674e-001
7.745049e+003,1.679299e-001
7.748906e+003,1.609988e-001
7.752764e+003,1.170748e-001
7.756621e+003,1.327470e-001
7.760478e+003,6.771487e-002
7.764335e+003,5.579612e-002
7.768192e+003,1.545370e-001
7.772049e+003,1.782768e-001
7.775906e+003,2.563735e-001
7.779763e+003,2.388527e-001
7.783620e+003,2.778586e-001
7.787478e+003,2.530340e-001
7.791334e+003,1.823930e-001
7.795191e+003,1.191258e-001
7.799049e+003,4.282983e-002
7.802906e+003,1.443132e-001
7.806763e+003,3.132170e-001
7.810620e+003,2.986496e-001
7.814477e+003,2.033347e-001
7.818334e+003,1.633057e-001
7.822191e+003,2.673777e-001
7.826048e+003,2.215710e-001
7.829905e+003,2.244052e-001
7.833763e+003,1.543345e-001
7.837620e+003,6.697500e-002
7.841477e+003,1.265421e-001
7.845334e+003,1.513934e-001
7.849191e+003,8.021999e-002
7.853048e+003,6.856932e-002
7.856905e+003,1.775766e-001
7.860762e+003,2.571127e-001
7.864619e+003,1.661071e-001
7.868477e+003,2.263717e-001
7.872333e+003,3.385500e-001
7.876190e+003,2.167309e-001
7.880048e+003,1.126944e-001
7.883905e+003,2.983387e-001
7.887762e+003,3.798588e-001
7.891619e+003,1.763127e-001
7.895476e+003,3.648017e-002
7.899333e+003,5.851586e-002
7.903190e+003,1.615980e-001
7.907047e+003,2.257844e-001
7.910904e+003,3.631592e-001
7.914762e+003,3.781511e-001
7.918619e+003,2.026130e-001
7.922476e+003,1.012878e-001
7.926333e+003,1.461576e-001
7.930190e+003,1.432787e-001
7.934047e+003,1.069252e-001
7.937904e+003,-3.231143e-003
7.941761e+003,5.315888e-002
7.945618e+003,2.013935e-001
7.949476e+003,1.735240e-001
7.953333e+003,9.006067e-002
7.957189e+003,1.205888e-001
7.961047e+003,1.683481e-001
7.964904e+003,5.902354e-002
7.968761e+003,-1.042242e-001
7.972618e+003,1.194938e-001
7.976475e+003,2.516067e-001
7.980332e+003,1.593399e-001
7.984189e+003,3.260410e-002
7.988046e+003,9.501108e-002
7.991903e+003,1.960058e-001
7.995761e+003,2.396649e-001
7.999618e+003,2.371393e-001
