4.011380e+002,6.000000e+000
4.049951e+002,6.000000e+000
4.088522e+002,6.000000e+000
4.127093e+002,6.000000e+000
4.165664e+002,6.000000e+000
4.204235e+002,6.000000e+000
4.242806e+002,1.054933e+000
4.281377e+002,2.252928e-001
4.319948e+002,6.855749e-001
4.358519e+002,6.000000e+000
4.397090e+002,1.080719e+000
4.435661e+002,1.808782e+000
4.474232e+002,6.000000e+000
4.512803e+002,6.000000e+000
4.551374e+002,6.000000e+000
4.589945e+002,6.000000e+000
4.628516e+002,6.000000e+000
4.667087e+002,1.317719e+000
4.705658e+002,8.677356e-001
4.744229e+002,8.351640e-001
4.782800e+002,4.852739e-001
4.821371e+002,6.000000e+000
4.859941e+002,6.000000e+000
4.898513e+002,9.232648e-001
4.937083e+002,2.564742e-001
4.975654e+002,-7.048110e-002
5.014225e+002,2.245776e-001
5.052796e+002,7.576855e-001
5.091367e+002,4.979740e-001
5.129938e+002,4.012224e-001
5.168509e+002,-7.019674e-002
5.207080e+002,1.263455e-001
5.245651e+002,2.954209e-001
5.284222e+002,3.214197e-001
5.322793e+002,4.572437e-001
5.361364e+002,4.597392e-001
5.399935e+002,6.000000e+000
5.438506e+002,6.000000e+000
5.477077e+002,6.000000e+000
5.515648e+002,6.000000e+000
5.554219e+002,6.000000e+000
5.592790e+002,6.000000e+000
5.631361e+002,8.765206e-001
5.669932e+002,3.747198e-001
5.708503e+002,2.799045e-001
5.747074e+002,5.414449e-001
5.785645e+002,5.856464e-001
5.824216e+002,3.238924e-001
5.862787e+002,5.152409e-001
5.901357e+002,1.418476e+000
5.939929e+002,1.165983e+000
5.978499e+002,3.027688e-001
6.017070e+002,4.209265e-001
6.055641e+002,7.501813e-001
6.094212e+002,9.491936e-001
6.132783e+002,5.184510e-001
6.171354e+002,7.235283e-001
6.209925e+002,6.000000e+000
6.248496e+002,4.945702e-001
6.287067e+002,2.884084e-001
6.325638e+002,5.104455e-001
6.364209e+002,4.981493e-001
6.402780e+002,4.805553e-001
6.441351e+002,6.647511e-001
6.479922e+002,5.444987e-001
6.518493e+002,4.860051e-001
6.557064e+002,1.052523e+000
6.595635e+002,6.000000e+000
6.634205e+002,6.000000e+000
6.672777e+002,6.000000e+000
6.711348e+002,6.000000e+000
6.749918e+002,2.214459e-001
6.788490e+002,6.000000e+000
6.827061e+002,6.000000e+000
6.865631e+002,-5.134454e-001
6.904203e+002,8.988206e-001
6.942773e+002,2.647348e-001
6.981344e+002,-1.537622e-001
7.019916e+002,-7.695880e-001
7.058486e+002,6.000000e+000
7.097057e+002,6.000000e+000
7.135629e+002,6.000000e+000
7.174199e+002,6.000000e+000
7.212770e+002,6.000000e+000
7.251342e+002,3.481943e-002
7.289912e+002,6.000000e+000
7.328483e+002,6.563210e-001
7.367054e+002,6.000000e+000
7.405625e+002,-8.835242e-001
7.444196e+002,6.000000e+000
7.482767e+002,6.000000e+000
7.521338e+002,6.000000e+000
7.559908e+002,6.000000e+000
7.598480e+002,6.000000e+000
7.637051e+002,6.000000e+000
7.675621e+002,6.000000e+000
7.714193e+002,6.000000e+000
7.752764e+002,-4.772882e-001
7.791334e+002,-6.288122e-001
7.829905e+002,-9.073727e-001
7.868477e+002,6.000000e+000
7.907047e+002,6.000000e+000
7.945618e+002,6.000000e+000
7.984189e+002,6.000000e+000
8.022760e+002,6.672996e-001
8.061331e+002,3.815866e-001
8.099902e+002,4.110073e-001
8.138473e+002,7.309183e-001
8.177044e+002,8.073111e-001
8.215615e+002,7.800781e-001
8.254186e+002,1.043712e+000
8.292757e+002,1.760006e+000
8.331328e+002,1.326359e+000
8.369899e+002,1.333656e+000
8.408470e+002,1.506309e+000
8.447041e+002,1.597642e+000
8.485612e+002,1.645967e+000
8.524183e+002,1.609106e+000
8.562754e+002,1.509270e+000
8.601324e+002,1.888704e+000
8.639896e+002,1.573762e+000
8.678467e+002,1.360282e+000
8.717037e+002,1.412383e+000
8.755609e+002,1.633634e+000
8.794180e+002,1.686396e+000
8.832750e+002,1.732256e+000
8.871321e+002,1.788023e+000
8.909893e+002,2.170720e+000
8.948463e+002,2.212772e+000
8.987034e+002,1.799132e+000
9.025605e+002,1.786931e+000
9.064176e+002,1.869644e+000
9.102747e+002,2.030665e+000
9.141318e+002,2.770237e+000
9.179889e+002,2.297991e+000
9.218461e+002,1.996601e+000
9.257031e+002,1.897123e+000
9.295602e+002,1.875519e+000
9.334174e+002,1.884205e+000
9.372744e+002,1.941269e+000
9.411315e+002,2.275169e+000
9.449886e+002,2.353201e+000
9.488457e+002,2.103089e+000
9.527028e+002,2.007336e+000
9.565599e+002,1.949194e+000
9.604170e+002,1.954196e+000
9.642740e+002,1.938438e+000
9.681312e+002,1.848594e+000
9.719883e+002,1.791639e+000
9.758453e+002,1.902595e+000
9.797025e+002,1.995679e+000
9.835596e+002,2.069258e+000
9.874166e+002,2.268265e+000
9.912738e+002,2.140405e+000
9.951309e+002,2.024578e+000
9.989879e+002,2.049439e+000
1.002845e+003,1.938510e+000
1.006702e+003,1.918483e+000
1.010559e+003,1.968086e+000
1.014416e+003,1.959220e+000
1.018273e+003,1.904164e+000
1.022130e+003,1.829857e+000
1.025988e+003,1.819796e+000
1.029845e+003,1.794880e+000
1.033702e+003,1.775064e+000
1.037559e+003,1.766034e+000
1.041416e+003,1.723688e+000
1.045273e+003,1.749629e+000
1.049130e+003,1.766351e+000
1.052987e+003,1.726087e+000
1.056844e+003,1.717902e+000
1.060702e+003,1.769105e+000
1.064559e+003,1.771578e+000
1.068416e+003,1.707780e+000
1.072273e+003,1.707505e+000
1.076130e+003,1.739528e+000
1.079987e+003,1.746063e+000
1.083844e+003,1.714464e+000
1.087701e+003,1.676559e+000
1.091558e+003,1.663830e+000
1.095415e+003,1.663408e+000
1.099272e+003,1.660616e+000
1.103130e+003,1.643443e+000
1.106987e+003,1.623505e+000
1.110844e+003,1.610387e+000
1.114701e+003,1.579933e+000
1.118558e+003,1.561808e+000
1.122415e+003,1.550459e+000
1.126272e+003,1.542728e+000
1.130129e+003,1.561035e+000
1.133986e+003,1.569282e+000
1.137843e+003,1.579050e+000
1.141701e+003,1.560561e+000
1.145558e+003,1.538560e+000
1.149415e+003,1.523323e+000
1.153272e+003,1.522372e+000
1.157129e+003,1.520548e+000
1.160986e+003,1.517669e+000
1.164843e+003,1.531458e+000
1.168700e+003,1.541162e+000
1.172557e+003,1.533284e+000
1.176414e+003,1.516086e+000
1.180271e+003,1.508439e+000
1.184129e+003,1.503152e+000
1.187986e+003,1.486431e+000
1.191843e+003,1.450165e+000
1.195700e+003,1.399790e+000
1.199557e+003,1.342382e+000
1.203414e+003,1.272825e+000
1.207271e+003,1.194799e+000
1.211128e+003,1.097988e+000
1.214985e+003,1.001359e+000
1.218842e+003,9.163380e-001
1.222699e+003,8.327208e-001
1.226557e+003,7.589365e-001
1.230414e+003,7.003427e-001
1.234271e+003,6.497201e-001
1.238128e+003,6.057121e-001
1.241985e+003,5.689032e-001
1.245842e+003,5.349199e-001
1.249699e+003,5.041870e-001
1.253556e+003,4.797685e-001
1.257413e+003,4.570937e-001
1.261271e+003,4.370180e-001
1.265128e+003,4.188779e-001
1.268985e+003,4.023883e-001
1.272842e+003,3.878452e-001
1.276699e+003,3.755552e-001
1.280556e+003,3.650770e-001
1.284413e+003,3.561834e-001
1.288270e+003,3.465060e-001
1.292127e+003,3.371398e-001
1.295984e+003,3.294681e-001
1.299841e+003,3.227564e-001
1.303698e+003,3.168706e-001
1.307556e+003,3.110680e-001
1.311413e+003,3.046832e-001
1.315270e+003,2.984190e-001
1.319127e+003,2.926101e-001
1.322984e+003,2.884303e-001
1.326841e+003,2.835869e-001
1.330698e+003,2.782470e-001
1.334555e+003,2.743662e-001
1.338412e+003,2.711907e-001
1.342270e+003,2.694052e-001
1.346127e+003,2.693204e-001
1.349984e+003,2.704435e-001
1.353841e+003,2.730018e-001
1.357698e+003,2.771378e-001
1.361555e+003,2.812231e-001
1.365412e+003,2.863422e-001
1.369269e+003,2.932903e-001
1.373126e+003,3.016928e-001
1.376983e+003,3.096471e-001
1.380840e+003,3.185821e-001
1.384698e+003,3.290463e-001
1.388555e+003,3.393856e-001
1.392412e+003,3.498527e-001
1.396269e+003,3.614240e-001
1.400126e+003,3.729369e-001
1.403983e+003,3.831554e-001
1.407840e+003,3.949749e-001
1.411697e+003,4.063804e-001
1.415554e+003,4.168639e-001
1.419411e+003,4.268592e-001
1.423269e+003,4.343411e-001
1.427126e+003,4.400081e-001
1.430983e+003,4.439878e-001
1.434840e+003,4.460065e-001
1.438697e+003,4.458443e-001
1.442554e+003,4.425407e-001
1.446411e+003,4.364488e-001
1.450268e+003,4.291027e-001
1.454125e+003,4.222769e-001
1.457982e+003,4.158715e-001
1.461839e+003,4.095553e-001
1.465697e+003,4.046517e-001
1.469554e+003,4.034744e-001
1.473411e+003,4.057943e-001
1.477268e+003,4.107695e-001
1.481125e+003,4.185275e-001
1.484982e+003,4.275253e-001
1.488839e+003,4.371994e-001
1.492696e+003,4.478312e-001
1.496553e+003,4.565485e-001
1.500411e+003,4.632399e-001
1.504268e+003,4.686433e-001
1.508125e+003,4.709708e-001
1.511982e+003,4.695130e-001
1.515839e+003,4.666002e-001
1.519696e+003,4.617596e-001
1.523553e+003,4.537797e-001
1.527410e+003,4.435602e-001
1.531267e+003,4.326073e-001
1.535124e+003,4.200050e-001
1.538981e+003,4.072240e-001
1.542839e+003,3.958863e-001
1.546696e+003,3.838260e-001
1.550553e+003,3.710379e-001
1.554410e+003,3.598207e-001
1.558267e+003,3.498721e-001
1.562124e+003,3.411377e-001
1.565981e+003,3.336039e-001
1.569838e+003,3.280776e-001
1.573695e+003,3.236745e-001
1.577552e+003,3.211569e-001
1.581410e+003,3.208587e-001
1.585267e+003,3.224686e-001
1.589124e+003,3.262525e-001
1.592981e+003,3.319117e-001
1.596838e+003,3.398641e-001
1.600695e+003,3.500361e-001
1.604552e+003,3.636364e-001
1.608409e+003,3.796697e-001
1.612266e+003,3.967425e-001
1.616123e+003,4.164837e-001
1.619980e+003,4.365202e-001
1.623838e+003,4.555131e-001
1.627695e+003,4.717771e-001
1.631552e+003,4.828118e-001
1.635409e+003,4.879377e-001
1.639266e+003,4.873821e-001
1.643123e+003,4.813717e-001
1.646980e+003,4.712314e-001
1.650837e+003,4.574119e-001
1.654694e+003,4.411778e-001
1.658551e+003,4.238009e-001
1.662409e+003,4.049404e-001
1.666266e+003,3.856314e-001
1.670123e+003,3.666317e-001
1.673980e+003,3.498809e-001
1.677837e+003,3.341572e-001
1.681694e+003,3.195789e-001
1.685551e+003,3.062034e-001
1.689408e+003,2.945268e-001
1.693265e+003,2.850963e-001
1.697122e+003,2.772259e-001
1.700979e+003,2.700639e-001
1.704837e+003,2.652159e-001
1.708694e+003,2.616010e-001
1.712551e+003,2.597713e-001
1.716408e+003,2.585636e-001
1.720265e+003,2.567419e-001
1.724122e+003,2.555196e-001
1.727979e+003,2.551011e-001
1.731836e+003,2.552545e-001
1.735693e+003,2.556591e-001
1.739550e+003,2.555364e-001
1.743408e+003,2.552057e-001
1.747265e+003,2.557363e-001
1.751122e+003,2.559745e-001
1.754979e+003,2.553684e-001
1.758836e+003,2.541880e-001
1.762693e+003,2.527054e-001
1.766550e+003,2.508796e-001
1.770407e+003,2.480367e-001
1.774264e+003,2.453647e-001
1.778121e+003,2.431671e-001
1.781979e+003,2.403822e-001
1.785836e+003,2.367993e-001
1.789693e+003,2.337016e-001
1.793550e+003,2.305953e-001
1.797407e+003,2.280611e-001
1.801264e+003,2.260020e-001
1.805121e+003,2.241022e-001
1.808978e+003,2.225258e-001
1.812835e+003,2.211146e-001
1.816692e+003,2.203213e-001
1.820549e+003,2.201330e-001
1.824407e+003,2.197447e-001
1.828264e+003,2.202419e-001
1.832121e+003,2.215245e-001
1.835978e+003,2.223810e-001
1.839835e+003,2.236363e-001
1.843692e+003,2.251824e-001
1.847549e+003,2.268106e-001
1.851406e+003,2.280602e-001
1.855263e+003,2.297363e-001
1.859120e+003,2.318016e-001
1.862978e+003,2.332424e-001
1.866835e+003,2.345325e-001
1.870692e+003,2.351372e-001
1.874549e+003,2.358109e-001
1.878406e+003,2.366829e-001
1.882263e+003,2.367613e-001
1.886120e+003,2.357033e-001
1.889977e+003,2.345871e-001
1.893834e+003,2.336705e-001
1.897691e+003,2.323750e-001
1.901548e+003,2.309211e-001
1.905406e+003,2.285263e-001
1.909263e+003,2.260164e-001
1.913120e+003,2.234535e-001
1.916977e+003,2.208343e-001
1.920834e+003,2.180098e-001
1.924691e+003,2.160015e-001
1.928548e+003,2.138093e-001
1.932405e+003,2.108676e-001
1.936262e+003,2.090634e-001
1.940119e+003,2.078204e-001
1.943977e+003,2.060813e-001
1.947834e+003,2.043299e-001
1.951691e+003,2.034545e-001
1.955548e+003,2.034446e-001
1.959405e+003,2.040619e-001
1.963262e+003,2.050565e-001
1.967119e+003,2.054681e-001
1.970976e+003,2.062237e-001
1.974833e+003,2.078112e-001
1.978690e+003,2.095990e-001
1.982547e+003,2.109026e-001
1.986405e+003,2.120635e-001
1.990262e+003,2.134565e-001
1.994119e+003,2.149022e-001
1.997976e+003,2.161606e-001
2.001833e+003,2.164821e-001
2.005690e+003,2.173742e-001
2.009547e+003,2.189970e-001
2.013404e+003,2.186022e-001
2.017261e+003,2.180295e-001
2.021118e+003,2.184680e-001
2.024976e+003,2.177107e-001
2.028833e+003,2.163711e-001
2.032690e+003,2.144441e-001
2.036547e+003,2.124503e-001
2.040404e+003,2.102554e-001
2.044261e+003,2.076367e-001
2.048118e+003,2.052357e-001
2.051975e+003,2.025504e-001
2.055832e+003,1.994775e-001
2.059689e+003,1.970388e-001
2.063546e+003,1.956756e-001
2.067404e+003,1.946979e-001
2.071261e+003,1.925600e-001
2.075118e+003,1.907819e-001
2.078975e+003,1.899598e-001
2.082832e+003,1.897631e-001
2.086689e+003,1.897940e-001
2.090546e+003,1.901301e-001
2.094403e+003,1.914242e-001
2.098260e+003,1.930092e-001
2.102117e+003,1.935745e-001
2.105975e+003,1.943598e-001
2.109832e+003,1.957827e-001
2.113689e+003,1.978636e-001
2.117546e+003,2.003342e-001
2.121403e+003,2.024762e-001
2.125260e+003,2.038805e-001
2.129117e+003,2.058219e-001
2.132974e+003,2.077037e-001
2.136831e+003,2.094563e-001
2.140688e+003,2.114365e-001
2.144545e+003,2.130367e-001
2.148403e+003,2.137001e-001
2.152260e+003,2.132325e-001
2.156117e+003,2.136582e-001
2.159974e+003,2.143016e-001
2.163831e+003,2.137440e-001
2.167688e+003,2.126574e-001
2.171545e+003,2.113401e-001
2.175402e+003,2.103022e-001
2.179259e+003,2.087513e-001
2.183116e+003,2.068486e-001
2.186974e+003,2.044391e-001
2.190831e+003,2.020258e-001
2.194688e+003,1.999938e-001
2.198545e+003,1.990176e-001
2.202402e+003,1.979305e-001
2.206259e+003,1.965286e-001
2.210116e+003,1.954156e-001
2.213973e+003,1.953267e-001
2.217830e+003,1.957892e-001
2.221688e+003,1.958573e-001
2.225544e+003,1.967185e-001
2.229402e+003,1.975899e-001
2.233259e+003,1.985174e-001
2.237116e+003,1.999696e-001
2.240973e+003,2.021086e-001
2.244830e+003,2.040587e-001
2.248687e+003,2.062032e-001
2.252544e+003,2.086386e-001
2.256401e+003,2.108930e-001
2.260258e+003,2.124313e-001
2.264115e+003,2.143846e-001
2.267973e+003,2.170779e-001
2.271830e+003,2.198677e-001
2.275687e+003,2.215751e-001
2.279544e+003,2.229009e-001
2.283401e+003,2.241769e-001
2.287258e+003,2.254299e-001
2.291115e+003,2.269110e-001
2.294972e+003,2.269318e-001
2.298829e+003,2.265627e-001
2.302687e+003,2.266002e-001
2.306543e+003,2.262389e-001
2.310401e+003,2.248620e-001
2.314258e+003,2.225802e-001
2.318115e+003,2.202028e-001
2.321972e+003,2.185515e-001
2.325829e+003,2.162287e-001
2.329686e+003,2.137878e-001
2.333543e+003,2.122462e-001
2.337400e+003,2.114034e-001
2.341257e+003,2.103418e-001
2.345115e+003,2.097839e-001
2.348972e+003,2.104125e-001
2.352829e+003,2.102636e-001
2.356686e+003,2.085632e-001
2.360543e+003,2.075270e-001
2.364400e+003,2.084790e-001
2.368257e+003,2.096699e-001
2.372114e+003,2.110035e-001
2.375971e+003,2.137313e-001
2.379828e+003,2.170282e-001
2.383686e+003,2.191763e-001
2.387542e+003,2.207850e-001
2.391400e+003,2.226042e-001
2.395257e+003,2.244228e-001
2.399114e+003,2.255880e-001
2.402971e+003,2.265128e-001
2.406828e+003,2.279361e-001
2.410685e+003,2.289045e-001
2.414542e+003,2.293602e-001
2.418399e+003,2.305494e-001
2.422256e+003,2.313681e-001
2.426114e+003,2.319906e-001
2.429971e+003,2.318949e-001
2.433828e+003,2.311684e-001
2.437685e+003,2.303151e-001
2.441542e+003,2.295630e-001
2.445399e+003,2.285647e-001
2.449256e+003,2.265069e-001
2.453113e+003,2.246184e-001
2.456970e+003,2.230220e-001
2.460827e+003,2.214562e-001
2.464684e+003,2.195230e-001
2.468542e+003,2.174173e-001
2.472399e+003,2.157918e-001
2.476256e+003,2.146292e-001
2.480113e+003,2.131620e-001
2.483970e+003,2.118403e-001
2.487827e+003,2.111495e-001
2.491684e+003,2.103320e-001
2.495541e+003,2.098674e-001
2.499398e+003,2.101523e-001
2.503255e+003,2.109841e-001
2.507113e+003,2.116829e-001
2.510969e+003,2.125283e-001
2.514827e+003,2.139280e-001
2.518684e+003,2.154245e-001
2.522541e+003,2.173431e-001
2.526398e+003,2.193159e-001
2.530255e+003,2.212130e-001
2.534112e+003,2.230212e-001
2.537969e+003,2.248330e-001
2.541826e+003,2.270035e-001
2.545683e+003,2.292162e-001
2.549541e+003,2.317300e-001
2.553398e+003,2.334502e-001
2.557255e+003,2.345077e-001
2.561112e+003,2.355268e-001
2.564969e+003,2.362763e-001
2.568826e+003,2.374074e-001
2.572683e+003,2.385261e-001
2.576540e+003,2.394319e-001
2.580397e+003,2.405523e-001
2.584254e+003,2.410849e-001
2.588112e+003,2.407962e-001
2.591969e+003,2.394679e-001
2.595826e+003,2.389373e-001
2.599683e+003,2.385494e-001
2.603540e+003,2.377823e-001
2.607397e+003,2.382570e-001
2.611254e+003,2.387136e-001
2.615111e+003,2.386897e-001
2.618968e+003,2.389957e-001
2.622825e+003,2.393168e-001
2.626682e+003,2.394834e-001
2.630540e+003,2.406041e-001
2.634397e+003,2.417832e-001
2.638254e+003,2.427494e-001
2.642111e+003,2.450134e-001
2.645968e+003,2.481246e-001
2.649825e+003,2.503815e-001
2.653682e+003,2.523548e-001
2.657539e+003,2.544516e-001
2.661396e+003,2.572839e-001
2.665253e+003,2.609177e-001
2.669111e+003,2.641216e-001
2.672968e+003,2.666250e-001
2.676825e+003,2.694173e-001
2.680682e+003,2.724763e-001
2.684539e+003,2.757450e-001
2.688396e+003,2.789775e-001
2.692253e+003,2.811705e-001
2.696110e+003,2.834020e-001
2.699967e+003,2.864064e-001
2.703824e+003,2.890304e-001
2.707681e+003,2.911509e-001
2.711539e+003,2.927851e-001
2.715396e+003,2.939392e-001
2.719253e+003,2.952379e-001
2.723110e+003,2.971749e-001
2.726967e+003,2.984488e-001
2.730824e+003,2.995868e-001
2.734681e+003,3.003271e-001
2.738538e+003,3.009575e-001
2.742395e+003,3.015216e-001
2.746252e+003,3.029638e-001
2.750110e+003,3.042408e-001
2.753967e+003,3.061564e-001
2.757824e+003,3.076077e-001
2.761681e+003,3.085851e-001
2.765538e+003,3.110030e-001
2.769395e+003,3.137831e-001
2.773252e+003,3.159289e-001
2.777109e+003,3.193657e-001
2.780966e+003,3.236423e-001
2.784823e+003,3.266721e-001
2.788680e+003,3.288100e-001
2.792538e+003,3.314919e-001
2.796395e+003,3.352997e-001
2.800252e+003,3.388708e-001
2.804109e+003,3.420817e-001
2.807966e+003,3.462569e-001
2.811823e+003,3.505302e-001
2.815680e+003,3.536468e-001
2.819537e+003,3.572365e-001
2.823394e+003,3.614965e-001
2.827251e+003,3.647868e-001
2.831109e+003,3.679879e-001
2.834966e+003,3.706203e-001
2.838823e+003,3.737977e-001
2.842680e+003,3.771810e-001
2.846537e+003,3.809831e-001
2.850394e+003,3.840982e-001
2.854251e+003,3.859797e-001
2.858108e+003,3.875497e-001
2.861965e+003,3.903311e-001
2.865823e+003,3.933274e-001
2.869679e+003,3.958578e-001
2.873537e+003,3.974620e-001
2.877394e+003,3.989947e-001
2.881251e+003,4.023807e-001
2.885108e+003,4.051642e-001
2.888965e+003,4.061099e-001
2.892822e+003,4.086902e-001
2.896679e+003,4.117485e-001
2.900536e+003,4.148519e-001
2.904393e+003,4.188180e-001
2.908250e+003,4.227196e-001
2.912108e+003,4.260195e-001
2.915965e+003,4.284442e-001
2.919822e+003,4.315698e-001
2.923679e+003,4.369163e-001
2.927536e+003,4.415527e-001
2.931393e+003,4.451669e-001
2.935250e+003,4.491437e-001
2.939107e+003,4.537204e-001
2.942964e+003,4.591125e-001
2.946822e+003,4.636483e-001
2.950678e+003,4.665277e-001
2.954536e+003,4.705718e-001
2.958393e+003,4.757844e-001
2.962250e+003,4.799257e-001
2.966107e+003,4.838659e-001
2.969964e+003,4.883483e-001
2.973821e+003,4.933753e-001
2.977678e+003,4.975922e-001
2.981535e+003,5.019554e-001
2.985392e+003,5.050756e-001
2.989250e+003,5.079065e-001
2.993107e+003,5.114199e-001
2.996964e+003,5.155836e-001
3.000821e+003,5.193353e-001
3.004678e+003,5.225506e-001
3.008535e+003,5.262728e-001
3.012392e+003,5.304468e-001
3.016249e+003,5.335141e-001
3.020106e+003,5.363551e-001
3.023963e+003,5.403464e-001
3.027821e+003,5.448594e-001
3.031677e+003,5.493121e-001
3.035535e+003,5.528995e-001
3.039392e+003,5.551790e-001
3.043249e+003,5.609301e-001
3.047106e+003,5.668913e-001
3.050963e+003,5.692278e-001
3.054820e+003,5.740662e-001
3.058677e+003,5.808290e-001
3.062534e+003,5.851682e-001
3.066391e+003,5.888637e-001
3.070249e+003,5.926472e-001
3.074106e+003,5.982529e-001
3.077963e+003,6.039490e-001
3.081820e+003,6.092414e-001
3.085677e+003,6.151427e-001
3.089534e+003,6.211683e-001
3.093391e+003,6.275746e-001
3.097248e+003,6.322037e-001
3.101105e+003,6.367366e-001
3.104962e+003,6.426123e-001
3.108820e+003,6.477544e-001
3.112677e+003,6.530476e-001
3.116534e+003,6.574637e-001
3.120391e+003,6.619526e-001
3.124248e+003,6.680632e-001
3.128105e+003,6.722877e-001
3.131962e+003,6.766121e-001
3.135819e+003,6.836773e-001
3.139676e+003,6.896535e-001
3.143533e+003,6.945050e-001
3.147390e+003,7.016596e-001
3.151248e+003,7.059962e-001
3.155105e+003,7.092252e-001
3.158962e+003,7.151563e-001
3.162819e+003,7.199879e-001
3.166676e+003,7.251642e-001
3.170533e+003,7.313043e-001
3.174390e+003,7.365819e-001
3.178247e+003,7.411899e-001
3.182104e+003,7.471978e-001
3.185961e+003,7.538814e-001
3.189819e+003,7.591536e-001
3.193676e+003,7.641250e-001
3.197533e+003,7.684053e-001
3.201390e+003,7.747560e-001
3.205247e+003,7.798392e-001
3.209104e+003,7.856124e-001
3.212961e+003,7.934191e-001
3.216818e+003,8.000364e-001
3.220675e+003,8.051220e-001
3.224532e+003,8.094417e-001
3.228389e+003,8.136481e-001
3.232247e+003,8.185022e-001
3.236104e+003,8.234739e-001
3.239961e+003,8.284553e-001
3.243818e+003,8.335944e-001
3.247675e+003,8.372895e-001
3.251532e+003,8.400197e-001
3.255389e+003,8.443934e-001
3.259246e+003,8.473039e-001
3.263103e+003,8.523900e-001
3.266960e+003,8.579371e-001
3.270818e+003,8.619588e-001
3.274675e+003,8.645510e-001
3.278532e+003,8.664256e-001
3.282389e+003,8.712827e-001
3.286246e+003,8.754003e-001
3.290103e+003,8.796872e-001
3.293960e+003,8.840446e-001
3.297817e+003,8.872561e-001
3.301674e+003,8.923197e-001
3.305531e+003,9.001298e-001
3.309388e+003,9.070600e-001
3.313246e+003,9.114662e-001
3.317103e+003,9.167690e-001
3.320960e+003,9.246548e-001
3.324817e+003,9.339886e-001
3.328674e+003,9.387704e-001
3.332531e+003,9.426695e-001
3.336388e+003,9.471310e-001
3.340245e+003,9.515001e-001
3.344102e+003,9.601744e-001
3.347959e+003,9.686239e-001
3.351817e+003,9.752607e-001
3.355674e+003,9.798412e-001
3.359531e+003,9.830900e-001
3.363388e+003,9.874651e-001
3.367245e+003,9.917991e-001
3.371102e+003,9.971032e-001
3.374959e+003,1.005218e+000
3.378816e+003,1.010282e+000
3.382673e+003,1.014622e+000
3.386530e+003,1.018042e+000
3.390387e+003,1.025078e+000
3.394245e+003,1.032922e+000
3.398102e+003,1.038078e+000
3.401959e+003,1.034725e+000
3.405816e+003,1.032973e+000
3.409673e+003,1.039639e+000
3.413530e+003,1.046658e+000
3.417387e+003,1.047775e+000
3.421244e+003,1.052446e+000
3.425101e+003,1.059214e+000
3.428958e+003,1.061657e+000
3.432815e+003,1.064961e+000
3.436673e+003,1.064004e+000
3.440530e+003,1.067599e+000
3.444387e+003,1.074657e+000
3.448244e+003,1.079830e+000
3.452101e+003,1.085977e+000
3.455958e+003,1.088907e+000
3.459815e+003,1.090017e+000
3.463672e+003,1.090067e+000
3.467529e+003,1.090806e+000
3.471386e+003,1.091849e+000
3.475244e+003,1.087923e+000
3.479101e+003,1.088063e+000
3.482958e+003,1.093022e+000
3.486815e+003,1.095976e+000
3.490672e+003,1.095929e+000
3.494529e+003,1.097884e+000
3.498386e+003,1.101596e+000
3.502243e+003,1.102743e+000
3.506100e+003,1.110110e+000
3.509958e+003,1.112818e+000
3.513814e+003,1.106068e+000
3.517672e+003,1.101226e+000
3.521529e+003,1.105353e+000
3.525386e+003,1.106795e+000
3.529243e+003,1.104375e+000
3.533100e+003,1.103753e+000
3.536957e+003,1.100990e+000
3.540814e+003,1.090963e+000
3.544671e+003,1.088530e+000
3.548528e+003,1.091055e+000
3.552385e+003,1.076475e+000
3.556243e+003,1.061238e+000
3.560100e+003,1.053722e+000
3.563957e+003,1.052513e+000
3.567814e+003,1.044357e+000
3.571671e+003,1.029010e+000
3.575528e+003,1.010267e+000
3.579385e+003,9.937007e-001
3.583242e+003,9.823092e-001
3.587099e+003,9.640929e-001
3.590957e+003,9.383160e-001
3.594813e+003,9.109383e-001
3.598671e+003,8.843670e-001
3.602528e+003,8.549464e-001
3.606385e+003,8.233169e-001
3.610242e+003,7.906893e-001
3.614099e+003,7.545705e-001
3.617956e+003,7.180592e-001
3.621813e+003,6.819060e-001
3.625670e+003,6.420844e-001
3.629527e+003,6.040140e-001
3.633385e+003,5.678141e-001
3.637242e+003,5.306877e-001
3.641099e+003,4.934894e-001
3.644956e+003,4.574656e-001
3.648813e+003,4.242408e-001
3.652670e+003,3.913502e-001
3.656527e+003,3.603288e-001
3.660384e+003,3.324205e-001
3.664241e+003,3.074120e-001
3.668098e+003,2.837778e-001
3.671956e+003,2.625425e-001
3.675813e+003,2.432678e-001
3.679670e+003,2.252012e-001
3.683527e+003,2.085194e-001
3.687384e+003,1.920934e-001
3.691241e+003,1.786941e-001
3.695098e+003,1.684869e-001
3.698955e+003,1.584168e-001
3.702812e+003,1.506546e-001
3.706669e+003,1.455795e-001
3.710526e+003,1.407366e-001
3.714384e+003,1.369659e-001
3.718241e+003,1.343080e-001
3.722098e+003,1.321647e-001
3.725955e+003,1.308645e-001
3.729812e+003,1.285167e-001
3.733669e+003,1.273529e-001
3.737526e+003,1.277620e-001
3.741383e+003,1.268958e-001
3.745240e+003,1.266578e-001
3.749097e+003,1.266939e-001
3.752955e+003,1.259629e-001
3.756812e+003,1.239904e-001
3.760669e+003,1.220931e-001
3.764526e+003,1.217528e-001
3.768383e+003,1.216298e-001
3.772240e+003,1.205085e-001
3.776097e+003,1.188773e-001
3.779954e+003,1.174700e-001
3.783811e+003,1.154679e-001
3.787668e+003,1.134489e-001
3.791525e+003,1.114046e-001
3.795383e+003,1.089218e-001
3.799240e+003,1.069400e-001
3.803097e+003,1.058329e-001
3.806954e+003,1.054101e-001
3.810811e+003,1.046593e-001
3.814668e+003,1.037553e-001
3.818525e+003,1.030588e-001
3.822382e+003,1.016426e-001
3.826239e+003,1.003351e-001
3.830096e+003,1.006500e-001
3.833954e+003,1.016937e-001
3.837811e+003,1.021032e-001
3.841668e+003,1.032429e-001
3.845525e+003,1.042243e-001
3.849382e+003,1.041133e-001
3.853239e+003,1.040570e-001
3.857096e+003,1.054934e-001
3.860953e+003,1.073194e-001
3.864810e+003,1.086639e-001
3.868667e+003,1.089922e-001
3.872524e+003,1.094751e-001
3.876382e+003,1.102297e-001
3.880239e+003,1.108703e-001
3.884096e+003,1.108875e-001
3.887953e+003,1.107790e-001
3.891810e+003,1.119026e-001
3.895667e+003,1.126336e-001
3.899524e+003,1.122363e-001
3.903381e+003,1.104438e-001
3.907238e+003,1.089125e-001
3.911095e+003,1.082653e-001
3.914953e+003,1.080119e-001
3.918810e+003,1.066813e-001
3.922667e+003,1.053307e-001
3.926524e+003,1.045195e-001
3.930381e+003,1.038092e-001
3.934238e+003,1.028029e-001
3.938095e+003,1.007273e-001
3.941952e+003,9.899479e-002
3.945809e+003,9.713128e-002
3.949667e+003,9.608902e-002
3.953523e+003,9.615501e-002
3.957381e+003,9.544717e-002
3.961238e+003,9.484665e-002
3.965095e+003,9.372240e-002
3.968952e+003,9.280314e-002
3.972809e+003,9.311396e-002
3.976666e+003,9.439119e-002
3.980523e+003,9.514553e-002
3.984380e+003,9.550950e-002
3.988237e+003,9.673154e-002
3.992094e+003,9.685601e-002
3.995952e+003,9.775633e-002
3.999809e+003,9.925489e-002
4.003666e+003,1.001041e-001
4.007523e+003,1.009025e-001
4.011380e+003,1.017359e-001
4.015237e+003,1.019079e-001
4.019094e+003,1.022344e-001
4.022951e+003,1.028822e-001
4.026808e+003,1.039588e-001
4.030666e+003,1.040491e-001
4.034522e+003,1.043177e-001
4.038380e+003,1.040757e-001
4.042237e+003,1.034250e-001
4.046094e+003,1.026853e-001
4.049951e+003,1.008659e-001
4.053808e+003,9.958340e-002
4.057665e+003,9.820213e-002
4.061522e+003,9.676363e-002
4.065379e+003,9.505512e-002
4.069236e+003,9.366377e-002
4.073094e+003,9.257144e-002
4.076951e+003,9.191613e-002
4.080808e+003,9.153241e-002
4.084665e+003,9.006719e-002
4.088522e+003,8.855197e-002
4.092379e+003,8.760924e-002
4.096236e+003,8.669028e-002
4.100093e+003,8.650690e-002
4.103950e+003,8.669930e-002
4.107808e+003,8.574880e-002
4.111665e+003,8.571202e-002
4.115521e+003,8.623645e-002
4.119379e+003,8.609577e-002
4.123236e+003,8.630056e-002
4.127093e+003,8.671953e-002
4.130950e+003,8.781402e-002
4.134807e+003,8.835882e-002
4.138664e+003,8.866087e-002
4.142521e+003,8.936199e-002
4.146378e+003,8.996536e-002
4.150235e+003,9.022871e-002
4.154093e+003,9.088969e-002
4.157950e+003,9.143174e-002
4.161807e+003,9.265830e-002
4.165664e+003,9.355699e-002
4.169521e+003,9.311216e-002
4.173378e+003,9.244253e-002
4.177235e+003,9.171874e-002
4.181092e+003,9.146610e-002
4.184949e+003,9.208420e-002
4.188807e+003,9.300455e-002
4.192664e+003,9.197734e-002
4.196521e+003,8.990793e-002
4.200378e+003,8.828821e-002
4.204235e+003,8.658928e-002
4.208092e+003,8.622995e-002
4.211949e+003,8.674255e-002
4.215806e+003,8.633677e-002
4.219663e+003,8.497570e-002
4.223521e+003,8.440376e-002
4.227377e+003,8.286379e-002
4.231234e+003,8.059436e-002
4.235092e+003,7.982333e-002
4.238949e+003,8.025073e-002
4.242806e+003,7.942659e-002
4.246663e+003,7.828055e-002
4.250520e+003,7.826730e-002
4.254377e+003,7.894731e-002
4.258234e+003,7.936560e-002
4.262091e+003,7.885122e-002
4.265948e+003,7.914592e-002
4.269806e+003,8.088095e-002
4.273663e+003,8.092826e-002
4.277520e+003,7.969445e-002
4.281377e+003,7.995957e-002
4.285234e+003,8.130156e-002
4.289091e+003,8.229979e-002
4.292948e+003,8.369432e-002
4.296805e+003,8.442107e-002
4.300662e+003,8.498706e-002
4.304520e+003,8.526079e-002
4.308376e+003,8.546285e-002
4.312233e+003,8.462322e-002
4.316091e+003,8.485938e-002
4.319948e+003,8.586705e-002
4.323805e+003,8.611714e-002
4.327662e+003,8.486418e-002
4.331519e+003,8.374486e-002
4.335376e+003,8.423720e-002
4.339233e+003,8.465966e-002
4.343090e+003,8.454290e-002
4.346947e+003,8.499411e-002
4.350805e+003,8.294520e-002
4.354662e+003,8.239648e-002
4.358519e+003,8.244170e-002
4.362376e+003,8.175217e-002
4.366233e+003,8.111041e-002
4.370090e+003,8.115055e-002
4.373947e+003,8.017281e-002
4.377804e+003,7.884487e-002
4.381661e+003,7.852075e-002
4.385519e+003,7.786880e-002
4.389375e+003,7.773951e-002
4.393232e+003,7.783040e-002
4.397090e+003,7.688180e-002
4.400947e+003,7.587663e-002
4.404804e+003,7.606276e-002
4.408661e+003,7.717695e-002
4.412518e+003,7.837667e-002
4.416375e+003,7.916239e-002
4.420232e+003,8.080671e-002
4.424089e+003,8.085117e-002
4.427946e+003,8.038766e-002
4.431804e+003,8.097620e-002
4.435661e+003,8.128382e-002
4.439518e+003,8.202212e-002
4.443375e+003,8.241374e-002
4.447232e+003,8.291186e-002
4.451089e+003,8.387089e-002
4.454946e+003,8.418792e-002
4.458803e+003,8.469059e-002
4.462660e+003,8.440010e-002
4.466518e+003,8.365048e-002
4.470375e+003,8.385967e-002
4.474231e+003,8.420429e-002
4.478089e+003,8.365213e-002
4.481946e+003,8.321628e-002
4.485803e+003,8.381096e-002
4.489660e+003,8.481467e-002
4.493517e+003,8.348914e-002
4.497375e+003,8.168550e-002
4.501231e+003,8.134019e-002
4.505088e+003,8.061969e-002
4.508946e+003,7.935045e-002
4.512803e+003,7.933354e-002
4.516660e+003,7.940399e-002
4.520517e+003,7.871830e-002
4.524374e+003,7.955439e-002
4.528231e+003,7.841909e-002
4.532088e+003,7.722563e-002
4.535945e+003,7.750442e-002
4.539802e+003,7.732024e-002
4.543660e+003,7.694734e-002
4.547517e+003,7.613292e-002
4.551374e+003,7.493567e-002
4.555231e+003,7.406332e-002
4.559088e+003,7.436611e-002
4.562945e+003,7.451772e-002
4.566802e+003,7.459943e-002
4.570659e+003,7.510525e-002
4.574516e+003,7.509115e-002
4.578374e+003,7.651287e-002
4.582230e+003,7.706915e-002
4.586087e+003,7.592288e-002
4.589945e+003,7.646082e-002
4.593802e+003,7.666749e-002
4.597659e+003,7.675731e-002
4.601516e+003,7.660108e-002
4.605373e+003,7.554084e-002
4.609230e+003,7.579890e-002
4.613087e+003,7.674312e-002
4.616944e+003,7.642566e-002
4.620801e+003,7.654575e-002
4.624659e+003,7.594430e-002
4.628516e+003,7.474566e-002
4.632373e+003,7.480269e-002
4.636230e+003,7.479257e-002
4.640087e+003,7.582889e-002
4.643944e+003,7.545580e-002
4.647801e+003,7.466931e-002
4.651658e+003,7.415323e-002
4.655515e+003,7.338816e-002
4.659373e+003,7.301454e-002
4.663229e+003,7.221086e-002
4.667086e+003,7.194588e-002
4.670944e+003,7.132325e-002
4.674801e+003,7.095982e-002
4.678658e+003,6.964241e-002
4.682515e+003,6.999075e-002
4.686372e+003,7.096419e-002
4.690229e+003,7.025383e-002
4.694086e+003,7.033724e-002
4.697943e+003,7.064205e-002
4.701800e+003,7.051894e-002
4.705658e+003,7.130396e-002
4.709515e+003,7.131587e-002
4.713372e+003,7.071047e-002
4.717229e+003,7.004137e-002
4.721086e+003,7.024764e-002
4.724943e+003,7.210640e-002
4.728800e+003,7.284072e-002
4.732657e+003,7.367474e-002
4.736514e+003,7.362382e-002
4.740372e+003,7.336042e-002
4.744229e+003,7.354768e-002
4.748085e+003,7.426860e-002
4.751943e+003,7.388970e-002
4.755800e+003,7.370313e-002
4.759657e+003,7.402382e-002
4.763514e+003,7.411385e-002
4.767371e+003,7.503901e-002
4.771228e+003,7.520614e-002
4.775085e+003,7.315940e-002
4.778942e+003,7.286458e-002
4.782799e+003,7.286070e-002
4.786657e+003,7.437810e-002
4.790514e+003,7.555535e-002
4.794371e+003,7.352852e-002
4.798228e+003,7.176499e-002
4.802085e+003,7.217141e-002
4.805942e+003,7.348724e-002
4.809799e+003,7.241413e-002
4.813656e+003,7.077911e-002
4.817513e+003,6.989862e-002
4.821371e+003,7.118879e-002
4.825228e+003,7.145181e-002
4.829084e+003,7.053387e-002
4.832942e+003,7.118554e-002
4.836799e+003,7.017512e-002
4.840656e+003,6.915293e-002
4.844513e+003,7.052685e-002
4.848370e+003,7.072236e-002
4.852227e+003,7.017232e-002
4.856084e+003,7.065530e-002
4.859941e+003,7.169499e-002
4.863798e+003,7.173079e-002
4.867656e+003,7.231213e-002
4.871513e+003,7.221203e-002
4.875370e+003,7.249314e-002
4.879227e+003,7.214747e-002
4.883084e+003,7.163355e-002
4.886941e+003,7.101461e-002
4.890798e+003,7.095916e-002
4.894655e+003,7.133016e-002
4.898512e+003,7.219172e-002
4.902370e+003,7.273505e-002
4.906227e+003,7.237507e-002
4.910083e+003,7.267931e-002
4.913941e+003,7.369135e-002
4.917798e+003,7.449321e-002
4.921655e+003,7.389281e-002
4.925512e+003,7.371879e-002
4.929369e+003,7.481658e-002
4.933226e+003,7.440504e-002
4.937083e+003,7.357751e-002
4.940940e+003,7.245610e-002
4.944797e+003,7.392278e-002
4.948655e+003,7.356609e-002
4.952512e+003,7.188414e-002
4.956369e+003,7.363638e-002
4.960226e+003,7.519909e-002
4.964083e+003,7.472748e-002
4.967940e+003,7.360490e-002
4.971797e+003,7.227444e-002
4.975654e+003,7.173642e-002
4.979511e+003,7.241135e-002
4.983369e+003,7.310244e-002
4.987226e+003,7.124777e-002
4.991083e+003,7.034924e-002
4.994940e+003,7.118613e-002
4.998797e+003,7.131442e-002
5.002654e+003,7.161050e-002
5.006511e+003,7.222392e-002
5.010368e+003,7.080555e-002
5.014225e+003,7.085516e-002
5.018083e+003,7.224137e-002
5.021939e+003,7.042821e-002
5.025796e+003,7.040484e-002
5.029654e+003,7.302571e-002
5.033511e+003,7.424819e-002
5.037368e+003,7.374844e-002
5.041225e+003,7.357358e-002
5.045082e+003,7.325675e-002
5.048939e+003,7.351106e-002
5.052796e+003,7.431727e-002
5.056653e+003,7.394089e-002
5.060510e+003,7.413813e-002
5.064368e+003,7.483654e-002
5.068225e+003,7.351259e-002
5.072082e+003,7.205441e-002
5.075939e+003,7.336113e-002
5.079796e+003,7.597782e-002
5.083653e+003,7.676566e-002
5.087510e+003,7.406626e-002
5.091367e+003,7.386897e-002
5.095224e+003,7.635637e-002
5.099082e+003,7.580687e-002
5.102938e+003,7.395090e-002
5.106795e+003,7.503081e-002
5.110653e+003,7.508583e-002
5.114510e+003,7.373073e-002
5.118367e+003,7.268307e-002
5.122224e+003,7.216484e-002
5.126081e+003,7.275680e-002
5.129938e+003,7.346820e-002
5.133795e+003,7.418239e-002
5.137652e+003,7.288822e-002
5.141509e+003,7.194506e-002
5.145367e+003,7.254615e-002
5.149224e+003,7.497135e-002
5.153081e+003,7.680275e-002
5.156938e+003,7.541370e-002
5.160795e+003,7.410418e-002
5.164652e+003,7.238473e-002
5.168509e+003,7.351919e-002
5.172366e+003,7.500561e-002
5.176223e+003,7.586842e-002
5.180081e+003,7.619040e-002
5.183938e+003,7.518652e-002
5.187794e+003,7.412737e-002
5.191652e+003,7.499651e-002
5.195509e+003,7.551762e-002
5.199366e+003,7.602514e-002
5.203223e+003,7.752304e-002
5.207080e+003,7.900437e-002
5.210937e+003,7.838468e-002
5.214794e+003,7.833305e-002
5.218651e+003,7.800559e-002
5.222508e+003,7.677178e-002
5.226366e+003,7.604334e-002
5.230223e+003,7.700343e-002
5.234080e+003,7.809204e-002
5.237937e+003,7.879088e-002
5.241794e+003,7.850150e-002
5.245651e+003,7.807637e-002
5.249508e+003,7.726082e-002
5.253365e+003,7.521772e-002
5.257222e+003,7.390777e-002
5.261080e+003,7.358214e-002
5.264937e+003,7.521564e-002
5.268793e+003,7.458944e-002
5.272651e+003,7.166775e-002
5.276508e+003,7.022205e-002
5.280365e+003,7.028577e-002
5.284222e+003,6.928326e-002
5.288079e+003,6.924277e-002
5.291936e+003,7.115639e-002
5.295793e+003,7.146517e-002
5.299650e+003,7.024772e-002
5.303507e+003,7.013988e-002
5.307365e+003,6.967026e-002
5.311222e+003,6.822785e-002
5.315079e+003,6.701069e-002
5.318936e+003,6.782823e-002
5.322793e+003,7.189646e-002
5.326650e+003,7.358591e-002
5.330507e+003,7.300529e-002
5.334364e+003,7.113761e-002
5.338221e+003,7.024422e-002
5.342079e+003,7.030556e-002
5.345936e+003,7.104407e-002
5.349792e+003,7.315482e-002
5.353650e+003,7.347931e-002
5.357507e+003,7.278810e-002
5.361364e+003,7.317266e-002
5.365221e+003,7.195034e-002
5.369078e+003,7.236606e-002
5.372935e+003,7.450966e-002
5.376792e+003,7.388432e-002
5.380649e+003,7.391629e-002
5.384506e+003,7.521461e-002
5.388364e+003,7.590800e-002
5.392221e+003,7.491043e-002
5.396078e+003,7.411153e-002
5.399935e+003,7.446954e-002
5.403792e+003,7.495777e-002
5.407649e+003,7.408151e-002
5.411506e+003,7.273740e-002
5.415363e+003,7.157370e-002
5.419220e+003,7.244980e-002
5.423078e+003,7.150424e-002
5.426935e+003,7.007340e-002
5.430792e+003,7.050090e-002
5.434649e+003,7.133032e-002
5.438506e+003,7.055543e-002
5.442363e+003,7.057554e-002
5.446220e+003,7.176491e-002
5.450077e+003,7.234990e-002
5.453934e+003,7.029696e-002
5.457792e+003,6.913327e-002
5.461648e+003,6.845736e-002
5.465505e+003,6.822762e-002
5.469363e+003,6.830066e-002
5.473220e+003,6.942309e-002
5.477077e+003,7.031219e-002
5.480934e+003,7.105230e-002
5.484791e+003,7.063370e-002
5.488648e+003,6.953686e-002
5.492505e+003,7.029057e-002
5.496362e+003,7.159722e-002
5.500219e+003,7.241069e-002
5.504077e+003,7.254721e-002
5.507934e+003,7.299713e-002
5.511791e+003,7.237166e-002
5.515648e+003,7.067870e-002
5.519505e+003,7.394297e-002
5.523362e+003,7.759604e-002
5.527219e+003,7.821326e-002
5.531076e+003,7.635747e-002
5.534933e+003,7.481611e-002
5.538791e+003,7.609928e-002
5.542647e+003,7.762900e-002
5.546504e+003,7.640239e-002
5.550362e+003,7.375240e-002
5.554219e+003,7.121135e-002
5.558076e+003,7.191914e-002
5.561933e+003,7.374969e-002
5.565790e+003,7.256781e-002
5.569647e+003,7.319380e-002
5.573504e+003,7.379116e-002
5.577361e+003,7.260858e-002
5.581218e+003,7.128818e-002
5.585076e+003,6.941865e-002
5.588933e+003,6.869463e-002
5.592790e+003,7.074124e-002
5.596647e+003,7.163484e-002
5.600504e+003,7.031226e-002
5.604361e+003,6.995147e-002
5.608218e+003,6.911408e-002
5.612075e+003,6.862337e-002
5.615932e+003,6.865803e-002
5.619790e+003,6.919004e-002
5.623646e+003,7.075364e-002
5.627503e+003,7.117251e-002
5.631361e+003,7.136866e-002
5.635218e+003,7.009143e-002
5.639075e+003,6.791163e-002
5.642932e+003,6.940388e-002
5.646789e+003,7.271966e-002
5.650646e+003,7.334594e-002
5.654503e+003,7.325400e-002
5.658360e+003,7.387395e-002
5.662217e+003,7.424804e-002
5.666075e+003,7.632575e-002
5.669932e+003,7.733830e-002
5.673789e+003,7.618223e-002
5.677646e+003,7.574032e-002
5.681503e+003,7.559703e-002
5.685360e+003,7.454251e-002
5.689217e+003,7.483859e-002
5.693074e+003,7.661258e-002
5.696931e+003,7.817435e-002
5.700789e+003,7.690466e-002
5.704646e+003,7.631493e-002
5.708502e+003,7.688215e-002
5.712360e+003,7.597091e-002
5.716217e+003,7.247008e-002
5.720074e+003,7.060630e-002
5.723931e+003,6.943712e-002
5.727788e+003,7.192926e-002
5.731645e+003,7.405931e-002
5.735502e+003,6.905527e-002
5.739359e+003,6.775774e-002
5.743216e+003,6.929757e-002
5.747074e+003,7.116006e-002
5.750931e+003,7.302344e-002
5.754788e+003,7.159128e-002
5.758645e+003,7.073734e-002
5.762502e+003,7.113988e-002
5.766359e+003,6.976316e-002
5.770216e+003,7.003556e-002
5.774073e+003,7.096552e-002
5.777930e+003,7.141580e-002
5.781788e+003,7.086468e-002
5.785645e+003,7.152881e-002
5.789501e+003,7.249623e-002
5.793359e+003,7.238512e-002
5.797216e+003,7.336144e-002
5.801073e+003,7.378111e-002
5.804930e+003,7.518711e-002
5.808787e+003,7.752945e-002
5.812644e+003,7.715894e-002
5.816501e+003,7.875866e-002
5.820358e+003,7.934225e-002
5.824215e+003,7.805833e-002
5.828073e+003,7.643246e-002
5.831930e+003,7.590023e-002
5.835787e+003,7.824615e-002
5.839644e+003,7.906388e-002
5.843501e+003,7.680258e-002
5.847358e+003,7.519621e-002
5.851215e+003,7.626058e-002
5.855072e+003,7.566684e-002
5.858929e+003,7.418346e-002
5.862787e+003,7.341205e-002
5.866644e+003,7.368420e-002
5.870500e+003,7.444102e-002
5.874358e+003,7.663594e-002
5.878215e+003,7.768202e-002
5.882072e+003,7.438023e-002
5.885929e+003,7.324372e-002
5.889786e+003,7.318693e-002
5.893643e+003,7.235780e-002
5.897500e+003,7.196055e-002
5.901357e+003,7.267053e-002
5.905214e+003,7.314365e-002
5.909072e+003,7.369740e-002
5.912929e+003,7.369822e-002
5.916786e+003,7.226360e-002
5.920643e+003,7.141525e-002
5.924500e+003,7.317062e-002
5.928357e+003,7.499915e-002
5.932214e+003,7.449774e-002
5.936071e+003,7.562314e-002
5.939928e+003,7.773384e-002
5.943786e+003,7.998379e-002
5.947643e+003,8.139710e-002
5.951500e+003,8.068445e-002
5.955357e+003,7.880601e-002
5.959214e+003,8.035644e-002
5.963071e+003,8.051694e-002
5.966928e+003,7.862458e-002
5.970785e+003,7.797291e-002
5.974642e+003,8.080452e-002
5.978500e+003,8.378641e-002
5.982356e+003,8.268093e-002
5.986213e+003,7.798179e-002
5.990071e+003,7.616711e-002
5.993928e+003,7.871787e-002
5.997785e+003,7.942006e-002
6.001642e+003,7.794353e-002
6.005499e+003,7.787594e-002
6.009356e+003,7.771768e-002
6.013213e+003,7.824060e-002
6.017070e+003,7.781347e-002
6.020927e+003,7.756993e-002
6.024785e+003,7.641100e-002
6.028642e+003,7.585031e-002
6.032499e+003,7.588629e-002
6.036356e+003,7.714335e-002
6.040213e+003,7.516911e-002
6.044070e+003,7.201854e-002
6.047927e+003,7.166388e-002
6.051784e+003,7.267088e-002
6.055641e+003,7.321066e-002
6.059499e+003,7.515926e-002
6.063355e+003,7.490807e-002
6.067212e+003,7.385938e-002
6.071070e+003,7.568273e-002
6.074927e+003,7.734946e-002
6.078784e+003,7.658333e-002
6.082641e+003,7.731094e-002
6.086498e+003,7.918887e-002
6.090355e+003,7.896709e-002
6.094212e+003,7.748707e-002
6.098069e+003,8.069474e-002
6.101926e+003,8.601740e-002
6.105784e+003,8.735970e-002
6.109641e+003,8.543114e-002
6.113498e+003,8.392985e-002
6.117355e+003,8.365262e-002
6.121212e+003,8.343353e-002
6.125069e+003,8.323558e-002
6.128926e+003,8.522906e-002
6.132783e+003,8.577633e-002
6.136640e+003,8.530108e-002
6.140498e+003,8.419222e-002
6.144354e+003,8.262771e-002
6.148211e+003,8.199234e-002
6.152069e+003,8.186050e-002
6.155926e+003,8.095308e-002
6.159783e+003,7.997308e-002
6.163640e+003,8.000857e-002
6.167497e+003,7.906650e-002
6.171354e+003,7.867073e-002
6.175211e+003,8.063270e-002
6.179068e+003,8.338250e-002
6.182925e+003,8.037845e-002
6.186783e+003,7.799789e-002
6.190640e+003,7.909838e-002
6.194497e+003,7.924048e-002
6.198354e+003,7.886700e-002
6.202211e+003,8.047351e-002
6.206068e+003,8.002184e-002
6.209925e+003,8.171473e-002
6.213782e+003,8.454713e-002
6.217639e+003,8.302594e-002
6.221497e+003,8.306866e-002
6.225354e+003,8.535818e-002
6.229210e+003,8.643109e-002
6.233068e+003,8.692328e-002
6.236925e+003,8.631179e-002
6.240782e+003,8.566355e-002
6.244639e+003,8.556440e-002
6.248496e+003,8.716972e-002
6.252353e+003,9.050940e-002
6.256210e+003,9.092633e-002
6.260067e+003,8.840341e-002
6.263924e+003,8.839769e-002
6.267782e+003,8.866534e-002
6.271639e+003,8.858500e-002
6.275496e+003,8.940546e-002
6.279353e+003,8.917044e-002
6.283210e+003,8.743001e-002
6.287067e+003,8.651224e-002
6.290924e+003,8.950937e-002
6.294781e+003,9.033007e-002
6.298638e+003,8.643129e-002
6.302496e+003,8.328046e-002
6.306353e+003,8.280408e-002
6.310209e+003,8.438650e-002
6.314067e+003,8.494536e-002
6.317924e+003,8.239956e-002
6.321781e+003,7.929246e-002
6.325638e+003,8.152241e-002
6.329495e+003,8.226099e-002
6.333352e+003,8.289205e-002
6.337209e+003,8.323386e-002
6.341066e+003,8.338250e-002
6.344923e+003,8.556476e-002
6.348780e+003,8.784577e-002
6.352638e+003,8.620005e-002
6.356495e+003,8.711024e-002
6.360352e+003,8.854932e-002
6.364209e+003,8.861949e-002
6.368066e+003,8.910270e-002
6.371923e+003,9.015926e-002
6.375780e+003,9.144594e-002
6.379637e+003,9.152815e-002
6.383494e+003,9.246898e-002
6.387352e+003,9.389931e-002
6.391208e+003,9.371973e-002
6.395065e+003,9.368297e-002
6.398923e+003,9.445210e-002
6.402780e+003,9.648867e-002
6.406637e+003,9.456986e-002
6.410494e+003,9.454662e-002
6.414351e+003,9.750567e-002
6.418208e+003,1.003558e-001
6.422065e+003,9.712295e-002
6.425922e+003,9.502992e-002
6.429779e+003,9.607761e-002
6.433637e+003,9.082834e-002
6.437494e+003,9.015412e-002
6.441351e+003,9.475268e-002
6.445208e+003,9.348375e-002
6.449065e+003,9.049936e-002
6.452922e+003,9.186012e-002
6.456779e+003,9.594353e-002
6.460636e+003,9.616646e-002
6.464493e+003,9.177137e-002
6.468351e+003,9.108932e-002
6.472208e+003,9.081008e-002
6.476064e+003,8.797637e-002
6.479922e+003,8.882621e-002
6.483779e+003,8.956079e-002
6.487636e+003,8.767273e-002
6.491493e+003,9.039678e-002
6.495350e+003,8.810651e-002
6.499207e+003,8.536762e-002
6.503064e+003,9.325251e-002
6.506921e+003,9.598432e-002
6.510778e+003,9.504155e-002
6.514636e+003,9.887994e-002
6.518493e+003,9.950123e-002
6.522350e+003,9.602656e-002
6.526207e+003,9.346949e-002
6.530064e+003,9.097605e-002
6.533921e+003,9.070604e-002
6.537778e+003,9.257251e-002
6.541635e+003,9.796964e-002
6.545492e+003,1.006470e-001
6.549350e+003,1.013772e-001
6.553207e+003,1.060054e-001
6.557063e+003,1.041629e-001
6.560921e+003,1.049029e-001
6.564778e+003,1.067990e-001
6.568635e+003,1.064301e-001
6.572492e+003,1.014756e-001
6.576349e+003,9.307816e-002
6.580206e+003,9.306572e-002
6.584063e+003,9.567732e-002
6.587920e+003,9.742883e-002
6.591777e+003,9.633266e-002
6.595635e+003,9.407806e-002
6.599492e+003,9.891240e-002
6.603349e+003,1.002739e-001
6.607206e+003,9.839667e-002
6.611063e+003,9.752595e-002
6.614920e+003,9.582920e-002
6.618777e+003,9.380069e-002
6.622634e+003,9.395970e-002
6.626491e+003,9.283108e-002
6.630349e+003,9.279605e-002
6.634206e+003,9.392728e-002
6.638063e+003,9.367500e-002
6.641920e+003,9.243377e-002
6.645777e+003,9.369630e-002
6.649634e+003,9.649533e-002
6.653491e+003,1.000354e-001
6.657348e+003,1.012222e-001
6.661205e+003,9.867862e-002
6.665063e+003,9.787105e-002
6.668919e+003,9.768970e-002
6.672776e+003,1.022611e-001
6.676634e+003,1.024686e-001
6.680491e+003,1.001353e-001
6.684348e+003,1.009115e-001
6.688205e+003,1.051864e-001
6.692062e+003,1.095714e-001
6.695919e+003,1.040945e-001
6.699776e+003,9.819786e-002
6.703633e+003,9.980799e-002
6.707490e+003,1.086093e-001
6.711348e+003,1.145661e-001
6.715205e+003,1.147661e-001
6.719062e+003,1.098228e-001
6.722919e+003,1.066440e-001
6.726776e+003,1.083396e-001
6.730633e+003,1.055248e-001
6.734490e+003,1.034676e-001
6.738347e+003,1.061388e-001
6.742204e+003,1.049246e-001
6.746062e+003,1.050776e-001
6.749918e+003,1.059340e-001
6.753775e+003,1.057817e-001
6.757633e+003,1.021274e-001
6.761490e+003,1.002180e-001
6.765347e+003,1.016054e-001
6.769204e+003,1.015511e-001
6.773061e+003,1.027379e-001
6.776918e+003,1.022218e-001
6.780775e+003,1.025814e-001
6.784632e+003,1.007562e-001
6.788489e+003,9.620049e-002
6.792347e+003,9.770882e-002
6.796204e+003,9.955382e-002
6.800061e+003,1.058745e-001
6.803918e+003,1.086075e-001
6.807775e+003,1.124556e-001
6.811632e+003,1.111273e-001
6.815489e+003,1.125983e-001
6.819346e+003,1.163066e-001
6.823203e+003,1.146767e-001
6.827061e+003,1.123240e-001
6.830917e+003,1.074902e-001
6.834774e+003,1.051861e-001
6.838632e+003,1.075496e-001
6.842489e+003,1.125156e-001
6.846346e+003,1.175653e-001
6.850203e+003,1.196342e-001
6.854060e+003,1.162723e-001
6.857917e+003,1.147074e-001
6.861774e+003,1.169117e-001
6.865631e+003,1.182841e-001
6.869488e+003,1.176307e-001
6.873346e+003,1.173999e-001
6.877203e+003,1.209160e-001
6.881060e+003,1.186946e-001
6.884917e+003,1.141254e-001
6.888774e+003,1.111334e-001
6.892631e+003,1.132018e-001
6.896488e+003,1.163782e-001
6.900345e+003,1.138392e-001
6.904202e+003,1.123395e-001
6.908060e+003,1.086918e-001
6.911917e+003,1.076343e-001
6.915773e+003,1.141616e-001
6.919631e+003,1.151301e-001
6.923488e+003,1.089350e-001
6.927345e+003,1.121580e-001
6.931202e+003,1.183950e-001
6.935059e+003,1.109971e-001
6.938916e+003,1.077478e-001
6.942773e+003,1.158013e-001
6.946630e+003,1.176323e-001
6.950487e+003,1.148683e-001
6.954345e+003,1.179644e-001
6.958202e+003,1.189569e-001
6.962059e+003,1.139325e-001
6.965916e+003,1.178343e-001
6.969773e+003,1.238162e-001
6.973630e+003,1.263943e-001
6.977487e+003,1.247918e-001
6.981344e+003,1.295523e-001
6.985201e+003,1.290834e-001
6.989059e+003,1.231254e-001
6.992916e+003,1.259165e-001
6.996772e+003,1.262502e-001
7.000630e+003,1.298299e-001
7.004487e+003,1.323917e-001
7.008344e+003,1.263376e-001
7.012201e+003,1.263798e-001
7.016058e+003,1.231088e-001
7.019915e+003,1.288329e-001
7.023772e+003,1.330031e-001
7.027629e+003,1.228749e-001
7.031486e+003,1.186320e-001
7.035344e+003,1.242890e-001
7.039201e+003,1.203003e-001
7.043058e+003,1.197038e-001
7.046915e+003,1.171193e-001
7.050772e+003,1.176589e-001
7.054629e+003,1.195698e-001
7.058486e+003,1.197520e-001
7.062343e+003,1.206644e-001
7.066200e+003,1.143327e-001
7.070058e+003,1.125391e-001
7.073915e+003,1.195630e-001
7.077771e+003,1.235525e-001
7.081629e+003,1.192602e-001
7.085486e+003,1.175238e-001
7.089343e+003,1.250093e-001
7.093200e+003,1.263056e-001
7.097057e+003,1.254926e-001
7.100914e+003,1.200695e-001
7.104771e+003,1.212400e-001
7.108628e+003,1.275863e-001
7.112485e+003,1.361932e-001
7.116343e+003,1.376734e-001
7.120200e+003,1.335429e-001
7.124057e+003,1.308932e-001
7.127914e+003,1.349596e-001
7.131771e+003,1.349379e-001
7.135628e+003,1.353450e-001
7.139485e+003,1.395899e-001
7.143342e+003,1.412958e-001
7.147199e+003,1.375082e-001
7.151057e+003,1.412036e-001
7.154914e+003,1.465009e-001
7.158771e+003,1.438588e-001
7.162628e+003,1.377587e-001
7.166485e+003,1.315667e-001
7.170342e+003,1.295924e-001
7.174199e+003,1.300000e-001
7.178056e+003,1.234496e-001
7.181913e+003,1.182201e-001
7.185771e+003,1.222723e-001
7.189627e+003,1.296751e-001
7.193484e+003,1.283980e-001
7.197342e+003,1.263128e-001
7.201199e+003,1.292434e-001
7.205056e+003,1.293280e-001
7.208913e+003,1.251642e-001
7.212770e+003,1.215604e-001
7.216627e+003,1.182720e-001
7.220484e+003,1.199153e-001
7.224341e+003,1.223401e-001
7.228198e+003,1.264340e-001
7.232056e+003,1.304996e-001
7.235913e+003,1.236153e-001
7.239770e+003,1.273541e-001
7.243627e+003,1.306955e-001
7.247484e+003,1.317093e-001
7.251341e+003,1.292825e-001
7.255198e+003,1.272763e-001
7.259055e+003,1.360053e-001
7.262912e+003,1.434753e-001
7.266770e+003,1.408157e-001
7.270626e+003,1.305952e-001
7.274483e+003,1.302006e-001
7.278341e+003,1.476990e-001
7.282198e+003,1.544042e-001
7.286055e+003,1.418136e-001
7.289912e+003,1.313694e-001
7.293769e+003,1.277188e-001
7.297626e+003,1.350165e-001
7.301483e+003,1.354968e-001
7.305340e+003,1.331659e-001
7.309197e+003,1.248479e-001
7.313055e+003,1.274770e-001
7.316912e+003,1.277005e-001
7.320769e+003,1.202135e-001
7.324626e+003,1.194130e-001
7.328483e+003,1.099343e-001
7.332340e+003,1.078095e-001
7.336197e+003,1.162205e-001
7.340054e+003,1.233175e-001
7.343911e+003,1.236257e-001
7.347769e+003,1.327863e-001
7.351625e+003,1.424255e-001
7.355482e+003,1.370686e-001
7.359340e+003,1.299518e-001
7.363197e+003,1.277327e-001
7.367054e+003,1.122157e-001
7.370911e+003,1.121478e-001
7.374768e+003,1.264675e-001
7.378625e+003,1.317129e-001
7.382482e+003,1.304088e-001
7.386339e+003,1.250364e-001
7.390196e+003,1.246014e-001
7.394054e+003,1.294383e-001
7.397911e+003,1.299247e-001
7.401768e+003,1.205816e-001
7.405625e+003,1.168340e-001
7.409482e+003,1.225845e-001
7.413339e+003,1.358219e-001
7.417196e+003,1.408985e-001
7.421053e+003,1.313565e-001
7.424910e+003,1.282426e-001
7.428768e+003,1.289535e-001
7.432625e+003,1.315762e-001
7.436481e+003,1.248355e-001
7.440339e+003,1.259908e-001
7.444196e+003,1.378215e-001
7.448053e+003,1.349453e-001
7.451910e+003,1.252758e-001
7.455767e+003,1.349873e-001
7.459624e+003,1.419196e-001
7.463481e+003,1.316404e-001
7.467338e+003,1.348187e-001
7.471195e+003,1.452072e-001
7.475053e+003,1.448071e-001
7.478910e+003,1.404308e-001
7.482767e+003,1.298223e-001
7.486624e+003,1.302886e-001
7.490481e+003,1.351979e-001
7.494338e+003,1.312547e-001
7.498195e+003,1.327963e-001
7.502052e+003,1.325642e-001
7.505909e+003,1.357338e-001
7.509767e+003,1.355399e-001
7.513624e+003,1.277398e-001
7.517480e+003,1.312767e-001
7.521338e+003,1.364824e-001
7.525195e+003,1.373925e-001
7.529052e+003,1.386501e-001
7.532909e+003,1.332319e-001
7.536766e+003,1.230220e-001
7.540623e+003,1.289175e-001
7.544480e+003,1.305023e-001
7.548337e+003,1.249210e-001
7.552194e+003,1.367678e-001
7.556052e+003,1.422161e-001
7.559909e+003,1.290445e-001
7.563766e+003,1.207937e-001
7.567623e+003,1.213966e-001
7.571480e+003,1.332208e-001
7.575337e+003,1.467891e-001
7.579194e+003,1.410736e-001
7.583051e+003,1.385750e-001
7.586908e+003,1.365680e-001
7.590766e+003,1.338086e-001
7.594623e+003,1.423290e-001
7.598479e+003,1.549940e-001
7.602337e+003,1.481754e-001
7.606194e+003,1.310299e-001
7.610051e+003,1.358051e-001
7.613908e+003,1.459980e-001
7.617765e+003,1.525916e-001
7.621622e+003,1.464978e-001
7.625479e+003,1.458548e-001
7.629336e+003,1.504687e-001
7.633193e+003,1.462802e-001
7.637051e+003,1.385134e-001
7.640908e+003,1.220541e-001
7.644765e+003,1.158404e-001
7.648622e+003,1.214736e-001
7.652479e+003,1.325962e-001
7.656336e+003,1.344650e-001
7.660193e+003,1.355893e-001
7.664050e+003,1.431091e-001
7.667907e+003,1.447947e-001
7.671765e+003,1.443977e-001
7.675622e+003,1.403951e-001
7.679479e+003,1.261573e-001
7.683336e+003,1.264932e-001
7.687193e+003,1.327612e-001
7.691050e+003,1.478031e-001
7.694907e+003,1.552942e-001
7.698764e+003,1.491175e-001
7.702621e+003,1.418405e-001
7.706479e+003,1.281253e-001
7.710335e+003,1.360716e-001
7.714192e+003,1.328103e-001
7.718050e+003,1.362133e-001
7.721907e+003,1.413506e-001
7.725764e+003,1.481890e-001
7.729621e+003,1.469075e-001
7.733478e+003,1.461623e-001
7.737335e+003,1.426930e-001
7.741192e+003,1.370818e-001
7.745049e+003,1.433145e-001
7.748906e+003,1.457744e-001
7.752764e+003,1.408374e-001
7.756621e+003,1.202321e-001
7.760478e+003,1.149978e-001
7.764335e+003,1.375833e-001
7.768192e+003,1.417057e-001
7.772049e+003,1.312453e-001
7.775906e+003,1.293155e-001
7.779763e+003,1.324163e-001
7.783620e+003,1.402435e-001
7.787478e+003,1.579072e-001
7.791334e+003,1.492712e-001
7.795191e+003,1.359111e-001
7.799049e+003,1.336081e-001
7.802906e+003,1.432354e-001
7.806763e+003,1.451549e-001
7.810620e+003,1.170068e-001
7.814477e+003,1.154881e-001
7.818334e+003,1.433093e-001
7.822191e+003,1.606076e-001
7.826048e+003,1.498896e-001
7.829905e+003,1.438245e-001
7.833763e+003,1.561041e-001
7.837620e+003,1.564962e-001
7.841477e+003,1.492388e-001
7.845334e+003,1.409954e-001
7.849191e+003,1.472595e-001
7.853048e+003,1.608922e-001
7.856905e+003,1.606361e-001
7.860762e+003,1.579884e-001
7.864619e+003,1.587326e-001
7.868477e+003,1.620570e-001
7.872333e+003,1.463459e-001
7.876190e+003,1.462856e-001
7.880048e+003,1.466155e-001
7.883905e+003,1.492299e-001
7.887762e+003,1.359592e-001
7.891619e+003,1.275435e-001
7.895476e+003,1.337517e-001
7.899333e+003,1.260945e-001
7.903190e+003,1.256348e-001
7.907047e+003,1.534615e-001
7.910904e+003,1.549747e-001
7.914762e+003,1.390426e-001
7.918619e+003,1.431859e-001
7.922476e+003,1.264515e-001
7.926333e+003,1.185371e-001
7.930190e+003,1.550552e-001
7.934047e+003,1.755840e-001
7.937904e+003,1.539093e-001
7.941761e+003,1.207124e-001
7.945618e+003,1.072889e-001
7.949476e+003,1.153074e-001
7.953333e+003,1.502097e-001
7.957189e+003,1.427119e-001
7.961047e+003,1.281260e-001
7.964904e+003,1.374863e-001
7.968761e+003,1.329062e-001
7.972618e+003,1.394649e-001
7.976475e+003,1.610130e-001
7.980332e+003,1.599162e-001
7.984189e+003,1.243729e-001
7.988046e+003,1.177623e-001
7.991903e+003,1.266397e-001
7.995761e+003,1.519348e-001
7.999618e+003,1.684670e-001
