4.011380e+002,6.000000e+000
4.049951e+002,6.000000e+000
4.088522e+002,3.452215e-001
4.127093e+002,7.082745e-001
4.165664e+002,6.000000e+000
4.204235e+002,6.000000e+000
4.242806e+002,1.418985e-001
4.281377e+002,6.000000e+000
4.319948e+002,6.557564e-002
4.358519e+002,-1.088673e+000
4.397090e+002,6.000000e+000
4.435661e+002,6.000000e+000
4.474232e+002,-2.329939e+000
4.512803e+002,-3.274285e-001
4.551374e+002,6.000000e+000
4.589945e+002,-5.424332e-001
4.628516e+002,-2.331299e-001
4.667087e+002,6.000000e+000
4.705658e+002,6.000000e+000
4.744229e+002,6.000000e+000
4.782800e+002,6.000000e+000
4.821371e+002,6.000000e+000
4.859941e+002,8.596844e-001
4.898513e+002,-7.070900e-002
4.937083e+002,6.000000e+000
4.975654e+002,3.505915e-001
5.014225e+002,-1.134050e-001
5.052796e+002,6.000000e+000
5.091367e+002,6.000000e+000
5.129938e+002,1.855216e-001
5.168509e+002,-7.360513e-001
5.207080e+002,6.000000e+000
5.245651e+002,6.000000e+000
5.284222e+002,6.000000e+000
5.322793e+002,6.000000e+000
5.361364e+002,-6.481671e-001
5.399935e+002,8.984737e-002
5.438506e+002,6.000000e+000
5.477077e+002,6.000000e+000
5.515648e+002,6.000000e+000
5.554219e+002,6.000000e+000
5.592790e+002,-3.158384e-002
5.631361e+002,9.714375e-002
5.669932e+002,3.618576e-001
5.708503e+002,-8.566614e-003
5.747074e+002,6.000000e+000
5.785645e+002,6.000000e+000
5.824216e+002,-6.099896e-001
5.862787e+002,6.000000e+000
5.901357e+002,6.000000e+000
5.939929e+002,-1.865758e+000
5.978499e+002,1.523173e-001
6.017070e+002,1.105618e-001
6.055641e+002,-2.183260e-001
6.094212e+002,6.000000e+000
6.132783e+002,2.463367e-001
6.171354e+002,-5.041342e-001
6.209925e+002,1.348198e-001
6.248496e+002,6.000000e+000
6.287067e+002,6.000000e+000
6.325638e+002,6.000000e+000
6.364209e+002,6.000000e+000
6.402780e+002,-6.643866e-001
6.441351e+002,6.000000e+000
6.479922e+002,6.000000e+000
6.518493e+002,6.000000e+000
6.557064e+002,6.000000e+000
6.595635e+002,-1.548253e-001
6.634205e+002,6.000000e+000
6.672777e+002,-7.205860e-002
6.711348e+002,4.447256e-001
6.749918e+002,6.000000e+000
6.788490e+002,6.000000e+000
6.827061e+002,6.000000e+000
6.865631e+002,2.404863e-001
6.904203e+002,-7.270147e-001
6.942773e+002,-1.911659e-001
6.981344e+002,8.297849e-001
7.019916e+002,-1.993143e+000
7.058486e+002,-4.897045e-002
7.097057e+002,3.623140e-001
7.135629e+002,6.000000e+000
7.174199e+002,6.000000e+000
7.212770e+002,6.000000e+000
7.251342e+002,6.000000e+000
7.289912e+002,6.000000e+000
7.328483e+002,6.000000e+000
7.367054e+002,2.675799e+000
7.405625e+002,3.277308e-001
7.444196e+002,6.000000e+000
7.482767e+002,1.010967e+000
7.521338e+002,3.547757e-001
7.559908e+002,-2.880043e-001
7.598480e+002,-4.113771e-001
7.637051e+002,1.530823e+000
7.675621e+002,6.000000e+000
7.714193e+002,6.000000e+000
7.752764e+002,-3.637978e-001
7.791334e+002,1.065857e-002
7.829905e+002,6.000000e+000
7.868477e+002,-1.220307e+000
7.907047e+002,6.000000e+000
7.945618e+002,-6.030419e-001
7.984189e+002,-7.068819e-002
8.022760e+002,-2.823572e-001
8.061331e+002,-9.741984e-002
8.099902e+002,-2.269398e-001
8.138473e+002,6.000000e+000
8.177044e+002,4.181426e-001
8.215615e+002,5.977956e-002
8.254186e+002,6.108678e-001
8.292757e+002,6.000000e+000
8.331328e+002,6.000000e+000
8.369899e+002,6.000000e+000
8.408470e+002,1.135728e+000
8.447041e+002,8.837339e-001
8.485612e+002,8.611490e-001
8.524183e+002,6.241298e-001
8.562754e+002,7.972441e-001
8.601324e+002,1.039229e+000
8.639896e+002,8.630659e-001
8.678467e+002,9.253587e-001
8.717037e+002,1.070751e+000
8.755609e+002,8.339114e-001
8.794180e+002,8.721996e-001
8.832750e+002,1.172104e+000
8.871321e+002,9.936637e-001
8.909893e+002,9.808519e-001
8.948463e+002,9.390291e-001
8.987034e+002,9.777268e-001
9.025605e+002,1.133649e+000
9.064176e+002,1.309601e+000
9.102747e+002,1.345935e+000
9.141318e+002,1.091398e+000
9.179889e+002,9.878044e-001
9.218461e+002,1.068689e+000
9.257031e+002,1.090157e+000
9.295602e+002,1.148908e+000
9.334174e+002,1.186835e+000
9.372744e+002,1.140207e+000
9.411315e+002,1.070398e+000
9.449886e+002,1.151674e+000
9.488457e+002,1.233532e+000
9.527028e+002,1.213274e+000
9.565599e+002,1.317366e+000
9.604170e+002,1.495430e+000
9.642740e+002,1.329369e+000
9.681312e+002,1.276850e+000
9.719883e+002,1.271810e+000
9.758453e+002,1.205028e+000
9.797025e+002,1.140796e+000
9.835596e+002,1.106627e+000
9.874166e+002,1.132526e+000
9.912738e+002,1.167972e+000
9.951309e+002,1.208013e+000
9.989879e+002,1.228756e+000
1.002845e+003,1.185175e+000
1.006702e+003,1.211015e+000
1.010559e+003,1.350309e+000
1.014416e+003,1.284583e+000
1.018273e+003,1.153253e+000
1.022130e+003,1.181186e+000
1.025988e+003,1.177831e+000
1.029845e+003,1.144579e+000
1.033702e+003,1.172940e+000
1.037559e+003,1.246796e+000
1.041416e+003,1.204310e+000
1.045273e+003,1.095808e+000
1.049130e+003,1.078976e+000
1.052987e+003,1.118105e+000
1.056844e+003,1.154240e+000
1.060702e+003,1.179381e+000
1.064559e+003,1.194754e+000
1.068416e+003,1.198517e+000
1.072273e+003,1.167339e+000
1.076130e+003,1.174603e+000
1.079987e+003,1.194043e+000
1.083844e+003,1.156068e+000
1.087701e+003,1.166521e+000
1.091558e+003,1.208289e+000
1.095415e+003,1.142174e+000
1.099272e+003,1.127727e+000
1.103130e+003,1.143009e+000
1.106987e+003,1.124728e+000
1.110844e+003,1.107287e+000
1.114701e+003,1.136168e+000
1.118558e+003,1.145634e+000
1.122415e+003,1.115573e+000
1.126272e+003,1.107204e+000
1.130129e+003,1.091291e+000
1.133986e+003,1.091695e+000
1.137843e+003,1.154604e+000
1.141701e+003,1.167837e+000
1.145558e+003,1.119594e+000
1.149415e+003,1.107561e+000
1.153272e+003,1.127069e+000
1.157129e+003,1.144486e+000
1.160986e+003,1.131578e+000
1.164843e+003,1.144536e+000
1.168700e+003,1.141863e+000
1.172557e+003,1.118310e+000
1.176414e+003,1.103358e+000
1.180271e+003,1.089513e+000
1.184129e+003,1.093126e+000
1.187986e+003,1.109373e+000
1.191843e+003,1.110857e+000
1.195700e+003,1.093692e+000
1.199557e+003,1.046957e+000
1.203414e+003,9.979396e-001
1.207271e+003,9.915032e-001
1.211128e+003,9.865572e-001
1.214985e+003,9.516658e-001
1.218842e+003,8.969948e-001
1.222699e+003,8.458094e-001
1.226557e+003,8.022204e-001
1.230414e+003,7.768182e-001
1.234271e+003,7.560691e-001
1.238128e+003,7.236740e-001
1.241985e+003,6.983598e-001
1.245842e+003,6.747290e-001
1.249699e+003,6.441412e-001
1.253556e+003,6.290479e-001
1.257413e+003,6.092371e-001
1.261271e+003,5.863731e-001
1.265128e+003,5.715724e-001
1.268985e+003,5.533681e-001
1.272842e+003,5.379267e-001
1.276699e+003,5.209125e-001
1.280556e+003,4.944367e-001
1.284413e+003,4.733246e-001
1.288270e+003,4.624416e-001
1.292127e+003,4.463946e-001
1.295984e+003,4.340059e-001
1.299841e+003,4.280770e-001
1.303698e+003,4.198165e-001
1.307556e+003,4.108670e-001
1.311413e+003,4.001638e-001
1.315270e+003,3.872228e-001
1.319127e+003,3.832941e-001
1.322984e+003,3.857149e-001
1.326841e+003,3.840728e-001
1.330698e+003,3.792343e-001
1.334555e+003,3.770059e-001
1.338412e+003,3.750305e-001
1.342270e+003,3.772569e-001
1.346127e+003,3.802995e-001
1.349984e+003,3.848845e-001
1.353841e+003,3.889625e-001
1.357698e+003,3.937507e-001
1.361555e+003,4.027255e-001
1.365412e+003,4.130610e-001
1.369269e+003,4.182639e-001
1.373126e+003,4.220936e-001
1.376983e+003,4.315677e-001
1.380840e+003,4.467291e-001
1.384698e+003,4.609511e-001
1.388555e+003,4.765873e-001
1.392412e+003,4.908654e-001
1.396269e+003,5.033165e-001
1.400126e+003,5.142629e-001
1.403983e+003,5.296425e-001
1.407840e+003,5.422519e-001
1.411697e+003,5.604784e-001
1.415554e+003,5.756985e-001
1.419411e+003,5.907544e-001
1.423269e+003,6.060435e-001
1.427126e+003,6.132339e-001
1.430983e+003,6.182413e-001
1.434840e+003,6.183957e-001
1.438697e+003,6.150974e-001
1.442554e+003,6.102851e-001
1.446411e+003,5.997682e-001
1.450268e+003,5.927473e-001
1.454125e+003,5.869913e-001
1.457982e+003,5.716242e-001
1.461839e+003,5.666176e-001
1.465697e+003,5.763406e-001
1.469554e+003,5.759706e-001
1.473411e+003,5.718955e-001
1.477268e+003,5.748049e-001
1.481125e+003,5.789682e-001
1.484982e+003,5.874569e-001
1.488839e+003,5.975237e-001
1.492696e+003,6.020933e-001
1.496553e+003,6.047829e-001
1.500411e+003,6.118455e-001
1.504268e+003,6.235562e-001
1.508125e+003,6.282572e-001
1.511982e+003,6.183075e-001
1.515839e+003,6.091521e-001
1.519696e+003,6.012325e-001
1.523553e+003,5.904102e-001
1.527410e+003,5.764589e-001
1.531267e+003,5.676762e-001
1.535124e+003,5.616236e-001
1.538981e+003,5.534508e-001
1.542839e+003,5.429517e-001
1.546696e+003,5.274581e-001
1.550553e+003,5.106727e-001
1.554410e+003,4.954815e-001
1.558267e+003,4.881213e-001
1.562124e+003,4.802911e-001
1.565981e+003,4.720785e-001
1.569838e+003,4.631562e-001
1.573695e+003,4.534490e-001
1.577552e+003,4.442437e-001
1.581410e+003,4.394989e-001
1.585267e+003,4.403363e-001
1.589124e+003,4.424793e-001
1.592981e+003,4.463499e-001
1.596838e+003,4.481614e-001
1.600695e+003,4.526352e-001
1.604552e+003,4.678155e-001
1.608409e+003,4.856854e-001
1.612266e+003,5.001736e-001
1.616123e+003,5.119145e-001
1.619980e+003,5.262236e-001
1.623838e+003,5.467744e-001
1.627695e+003,5.629474e-001
1.631552e+003,5.668377e-001
1.635409e+003,5.719187e-001
1.639266e+003,5.766396e-001
1.643123e+003,5.715194e-001
1.646980e+003,5.629032e-001
1.650837e+003,5.479485e-001
1.654694e+003,5.321557e-001
1.658551e+003,5.156155e-001
1.662409e+003,5.010370e-001
1.666266e+003,4.878798e-001
1.670123e+003,4.733270e-001
1.673980e+003,4.541776e-001
1.677837e+003,4.360050e-001
1.681694e+003,4.220340e-001
1.685551e+003,4.125020e-001
1.689408e+003,4.028136e-001
1.693265e+003,3.960296e-001
1.697122e+003,3.943853e-001
1.700979e+003,3.911341e-001
1.704837e+003,3.854093e-001
1.708694e+003,3.796977e-001
1.712551e+003,3.750469e-001
1.716408e+003,3.710473e-001
1.720265e+003,3.698977e-001
1.724122e+003,3.710218e-001
1.727979e+003,3.699600e-001
1.731836e+003,3.675232e-001
1.735693e+003,3.684086e-001
1.739550e+003,3.685958e-001
1.743408e+003,3.679927e-001
1.747265e+003,3.665883e-001
1.751122e+003,3.677087e-001
1.754979e+003,3.704325e-001
1.758836e+003,3.709270e-001
1.762693e+003,3.689152e-001
1.766550e+003,3.718879e-001
1.770407e+003,3.743678e-001
1.774264e+003,3.730936e-001
1.778121e+003,3.734700e-001
1.781979e+003,3.740812e-001
1.785836e+003,3.763851e-001
1.789693e+003,3.763766e-001
1.793550e+003,3.771383e-001
1.797407e+003,3.803961e-001
1.801264e+003,3.820177e-001
1.805121e+003,3.851742e-001
1.808978e+003,3.857097e-001
1.812835e+003,3.837310e-001
1.816692e+003,3.871966e-001
1.820549e+003,3.895887e-001
1.824407e+003,3.879100e-001
1.828264e+003,3.922453e-001
1.832121e+003,3.956636e-001
1.835978e+003,3.916657e-001
1.839835e+003,3.916411e-001
1.843692e+003,3.960045e-001
1.847549e+003,3.981524e-001
1.851406e+003,3.994450e-001
1.855263e+003,4.007794e-001
1.859120e+003,4.037500e-001
1.862978e+003,4.048400e-001
1.866835e+003,4.060197e-001
1.870692e+003,4.063630e-001
1.874549e+003,4.079733e-001
1.878406e+003,4.087532e-001
1.882263e+003,4.082423e-001
1.886120e+003,4.098131e-001
1.889977e+003,4.100497e-001
1.893834e+003,4.078794e-001
1.897691e+003,4.056952e-001
1.901548e+003,4.035923e-001
1.905406e+003,4.068465e-001
1.909263e+003,4.089838e-001
1.913120e+003,4.098566e-001
1.916977e+003,4.112850e-001
1.920834e+003,4.098585e-001
1.924691e+003,4.084499e-001
1.928548e+003,4.062139e-001
1.932405e+003,4.026506e-001
1.936262e+003,4.016540e-001
1.940119e+003,4.002728e-001
1.943977e+003,4.000766e-001
1.947834e+003,4.023679e-001
1.951691e+003,4.036427e-001
1.955548e+003,4.043195e-001
1.959405e+003,4.046593e-001
1.963262e+003,4.027885e-001
1.967119e+003,4.002257e-001
1.970976e+003,3.998546e-001
1.974833e+003,3.982121e-001
1.978690e+003,3.946697e-001
1.982547e+003,3.937335e-001
1.986405e+003,3.945520e-001
1.990262e+003,3.929489e-001
1.994119e+003,3.896644e-001
1.997976e+003,3.894250e-001
2.001833e+003,3.885955e-001
2.005690e+003,3.916617e-001
2.009547e+003,3.891965e-001
2.013404e+003,3.845631e-001
2.017261e+003,3.816009e-001
2.021118e+003,3.768052e-001
2.024976e+003,3.707240e-001
2.028833e+003,3.689102e-001
2.032690e+003,3.664624e-001
2.036547e+003,3.615139e-001
2.040404e+003,3.604478e-001
2.044261e+003,3.614965e-001
2.048118e+003,3.588795e-001
2.051975e+003,3.563873e-001
2.055832e+003,3.570250e-001
2.059689e+003,3.548085e-001
2.063546e+003,3.519888e-001
2.067404e+003,3.502291e-001
2.071261e+003,3.502498e-001
2.075118e+003,3.492896e-001
2.078975e+003,3.466807e-001
2.082832e+003,3.470706e-001
2.086689e+003,3.473807e-001
2.090546e+003,3.434887e-001
2.094403e+003,3.411976e-001
2.098260e+003,3.391072e-001
2.102117e+003,3.385874e-001
2.105975e+003,3.386524e-001
2.109832e+003,3.378768e-001
2.113689e+003,3.356675e-001
2.117546e+003,3.321831e-001
2.121403e+003,3.304889e-001
2.125260e+003,3.313945e-001
2.129117e+003,3.295670e-001
2.132974e+003,3.271326e-001
2.136831e+003,3.250921e-001
2.140688e+003,3.226230e-001
2.144545e+003,3.199071e-001
2.148403e+003,3.170164e-001
2.152260e+003,3.163604e-001
2.156117e+003,3.163752e-001
2.159974e+003,3.197215e-001
2.163831e+003,3.211834e-001
2.167688e+003,3.199724e-001
2.171545e+003,3.162485e-001
2.175402e+003,3.170343e-001
2.179259e+003,3.181201e-001
2.183116e+003,3.180012e-001
2.186974e+003,3.180722e-001
2.190831e+003,3.176588e-001
2.194688e+003,3.165463e-001
2.198545e+003,3.148607e-001
2.202402e+003,3.158766e-001
2.206259e+003,3.154007e-001
2.210116e+003,3.151197e-001
2.213973e+003,3.171098e-001
2.217830e+003,3.204576e-001
2.221688e+003,3.212093e-001
2.225544e+003,3.163246e-001
2.229402e+003,3.138169e-001
2.233259e+003,3.142317e-001
2.237116e+003,3.141747e-001
2.240973e+003,3.127942e-001
2.244830e+003,3.120686e-001
2.248687e+003,3.149616e-001
2.252544e+003,3.166878e-001
2.256401e+003,3.156646e-001
2.260258e+003,3.148287e-001
2.264115e+003,3.165463e-001
2.267973e+003,3.168719e-001
2.271830e+003,3.161075e-001
2.275687e+003,3.170503e-001
2.279544e+003,3.189287e-001
2.283401e+003,3.185653e-001
2.287258e+003,3.183711e-001
2.291115e+003,3.184758e-001
2.294972e+003,3.220615e-001
2.298829e+003,3.251105e-001
2.302687e+003,3.243284e-001
2.306543e+003,3.244087e-001
2.310401e+003,3.278971e-001
2.314258e+003,3.313138e-001
2.318115e+003,3.325119e-001
2.321972e+003,3.338546e-001
2.325829e+003,3.370285e-001
2.329686e+003,3.389247e-001
2.333543e+003,3.397438e-001
2.337400e+003,3.407022e-001
2.341257e+003,3.429382e-001
2.345115e+003,3.462068e-001
2.348972e+003,3.483994e-001
2.352829e+003,3.447103e-001
2.356686e+003,3.412142e-001
2.360543e+003,3.411687e-001
2.364400e+003,3.403047e-001
2.368257e+003,3.458944e-001
2.372114e+003,3.482508e-001
2.375971e+003,3.443187e-001
2.379828e+003,3.464127e-001
2.383686e+003,3.471628e-001
2.387542e+003,3.470220e-001
2.391400e+003,3.472837e-001
2.395257e+003,3.447947e-001
2.399114e+003,3.436044e-001
2.402971e+003,3.466380e-001
2.406828e+003,3.462079e-001
2.410685e+003,3.449646e-001
2.414542e+003,3.461302e-001
2.418399e+003,3.467815e-001
2.422256e+003,3.463978e-001
2.426114e+003,3.442866e-001
2.429971e+003,3.448535e-001
2.433828e+003,3.504219e-001
2.437685e+003,3.524193e-001
2.441542e+003,3.515257e-001
2.445399e+003,3.503972e-001
2.449256e+003,3.531302e-001
2.453113e+003,3.556977e-001
2.456970e+003,3.569896e-001
2.460827e+003,3.594836e-001
2.464684e+003,3.567720e-001
2.468542e+003,3.510908e-001
2.472399e+003,3.514740e-001
2.476256e+003,3.548731e-001
2.480113e+003,3.565597e-001
2.483970e+003,3.561891e-001
2.487827e+003,3.583210e-001
2.491684e+003,3.580396e-001
2.495541e+003,3.551553e-001
2.499398e+003,3.545905e-001
2.503255e+003,3.563120e-001
2.507113e+003,3.548962e-001
2.510969e+003,3.543724e-001
2.514827e+003,3.574029e-001
2.518684e+003,3.576078e-001
2.522541e+003,3.537270e-001
2.526398e+003,3.543626e-001
2.530255e+003,3.559659e-001
2.534112e+003,3.544765e-001
2.537969e+003,3.575340e-001
2.541826e+003,3.578441e-001
2.545683e+003,3.514006e-001
2.549541e+003,3.511044e-001
2.553398e+003,3.546107e-001
2.557255e+003,3.559313e-001
2.561112e+003,3.550879e-001
2.564969e+003,3.552573e-001
2.568826e+003,3.576279e-001
2.572683e+003,3.615845e-001
2.576540e+003,3.608344e-001
2.580397e+003,3.595612e-001
2.584254e+003,3.624901e-001
2.588112e+003,3.663453e-001
2.591969e+003,3.644491e-001
2.595826e+003,3.618472e-001
2.599683e+003,3.623737e-001
2.603540e+003,3.628732e-001
2.607397e+003,3.662899e-001
2.611254e+003,3.658712e-001
2.615111e+003,3.651341e-001
2.618968e+003,3.655546e-001
2.622825e+003,3.669103e-001
2.626682e+003,3.668482e-001
2.630540e+003,3.652868e-001
2.634397e+003,3.640747e-001
2.638254e+003,3.645158e-001
2.642111e+003,3.662803e-001
2.645968e+003,3.660552e-001
2.649825e+003,3.660958e-001
2.653682e+003,3.644382e-001
2.657539e+003,3.628535e-001
2.661396e+003,3.669624e-001
2.665253e+003,3.701126e-001
2.669111e+003,3.720221e-001
2.672968e+003,3.735054e-001
2.676825e+003,3.752767e-001
2.680682e+003,3.752933e-001
2.684539e+003,3.746800e-001
2.688396e+003,3.749968e-001
2.692253e+003,3.774487e-001
2.696110e+003,3.793454e-001
2.699967e+003,3.822438e-001
2.703824e+003,3.839501e-001
2.707681e+003,3.836423e-001
2.711539e+003,3.831854e-001
2.715396e+003,3.859407e-001
2.719253e+003,3.907412e-001
2.723110e+003,3.936407e-001
2.726967e+003,3.935668e-001
2.730824e+003,3.947988e-001
2.734681e+003,3.935606e-001
2.738538e+003,3.929007e-001
2.742395e+003,3.974212e-001
2.746252e+003,4.034334e-001
2.750110e+003,4.056002e-001
2.753967e+003,4.042337e-001
2.757824e+003,4.040819e-001
2.761681e+003,4.050980e-001
2.765538e+003,4.024686e-001
2.769395e+003,4.027952e-001
2.773252e+003,4.084963e-001
2.777109e+003,4.111921e-001
2.780966e+003,4.139605e-001
2.784823e+003,4.187032e-001
2.788680e+003,4.205448e-001
2.792538e+003,4.232561e-001
2.796395e+003,4.252523e-001
2.800252e+003,4.274303e-001
2.804109e+003,4.314818e-001
2.807966e+003,4.343611e-001
2.811823e+003,4.382909e-001
2.815680e+003,4.425772e-001
2.819537e+003,4.444129e-001
2.823394e+003,4.463543e-001
2.827251e+003,4.501366e-001
2.831109e+003,4.528615e-001
2.834966e+003,4.546297e-001
2.838823e+003,4.529100e-001
2.842680e+003,4.587112e-001
2.846537e+003,4.695280e-001
2.850394e+003,4.761833e-001
2.854251e+003,4.767826e-001
2.858108e+003,4.774873e-001
2.861965e+003,4.777569e-001
2.865823e+003,4.784670e-001
2.869679e+003,4.838558e-001
2.873537e+003,4.885038e-001
2.877394e+003,4.927911e-001
2.881251e+003,4.929809e-001
2.885108e+003,4.978073e-001
2.888965e+003,5.028400e-001
2.892822e+003,5.045301e-001
2.896679e+003,5.059975e-001
2.900536e+003,5.105702e-001
2.904393e+003,5.183932e-001
2.908250e+003,5.227005e-001
2.912108e+003,5.216242e-001
2.915965e+003,5.280699e-001
2.919822e+003,5.380212e-001
2.923679e+003,5.408295e-001
2.927536e+003,5.425211e-001
2.931393e+003,5.434601e-001
2.935250e+003,5.481409e-001
2.939107e+003,5.596035e-001
2.942964e+003,5.651994e-001
2.946822e+003,5.631729e-001
2.950678e+003,5.646237e-001
2.954536e+003,5.738489e-001
2.958393e+003,5.770296e-001
2.962250e+003,5.796166e-001
2.966107e+003,5.838513e-001
2.969964e+003,5.861849e-001
2.973821e+003,5.896390e-001
2.977678e+003,5.913426e-001
2.981535e+003,5.950466e-001
2.985392e+003,6.011152e-001
2.989250e+003,6.062039e-001
2.993107e+003,6.048740e-001
2.996964e+003,6.083883e-001
3.000821e+003,6.198913e-001
3.004678e+003,6.218355e-001
3.008535e+003,6.250355e-001
3.012392e+003,6.305074e-001
3.016249e+003,6.314120e-001
3.020106e+003,6.334099e-001
3.023963e+003,6.366046e-001
3.027821e+003,6.468585e-001
3.031677e+003,6.579352e-001
3.035535e+003,6.649834e-001
3.039392e+003,6.653929e-001
3.043249e+003,6.645352e-001
3.047106e+003,6.671025e-001
3.050963e+003,6.662626e-001
3.054820e+003,6.700847e-001
3.058677e+003,6.744578e-001
3.062534e+003,6.819463e-001
3.066391e+003,6.895328e-001
3.070249e+003,6.944900e-001
3.074106e+003,6.945920e-001
3.077963e+003,7.015391e-001
3.081820e+003,7.119105e-001
3.085677e+003,7.188102e-001
3.089534e+003,7.199934e-001
3.093391e+003,7.180530e-001
3.097248e+003,7.250053e-001
3.101105e+003,7.334151e-001
3.104962e+003,7.322637e-001
3.108820e+003,7.324872e-001
3.112677e+003,7.379523e-001
3.116534e+003,7.427128e-001
3.120391e+003,7.444590e-001
3.124248e+003,7.449351e-001
3.128105e+003,7.497527e-001
3.131962e+003,7.543735e-001
3.135819e+003,7.634211e-001
3.139676e+003,7.743276e-001
3.143533e+003,7.820264e-001
3.147390e+003,7.853187e-001
3.151248e+003,7.831218e-001
3.155105e+003,7.828953e-001
3.158962e+003,7.818400e-001
3.162819e+003,7.899175e-001
3.166676e+003,7.884675e-001
3.170533e+003,7.931373e-001
3.174390e+003,8.042969e-001
3.178247e+003,8.132316e-001
3.182104e+003,8.232175e-001
3.185961e+003,8.204126e-001
3.189819e+003,8.211271e-001
3.193676e+003,8.287756e-001
3.197533e+003,8.335152e-001
3.201390e+003,8.333891e-001
3.205247e+003,8.363976e-001
3.209104e+003,8.439088e-001
3.212961e+003,8.485133e-001
3.216818e+003,8.446630e-001
3.220675e+003,8.558414e-001
3.224532e+003,8.702148e-001
3.228389e+003,8.755154e-001
3.232247e+003,8.802250e-001
3.236104e+003,8.740364e-001
3.239961e+003,8.712652e-001
3.243818e+003,8.790261e-001
3.247675e+003,8.808962e-001
3.251532e+003,8.734500e-001
3.255389e+003,8.711282e-001
3.259246e+003,8.720087e-001
3.263103e+003,8.760669e-001
3.266960e+003,8.787756e-001
3.270818e+003,8.766969e-001
3.274675e+003,8.760229e-001
3.278532e+003,8.812057e-001
3.282389e+003,8.858950e-001
3.286246e+003,8.918087e-001
3.290103e+003,9.015353e-001
3.293960e+003,9.057221e-001
3.297817e+003,9.062762e-001
3.301674e+003,9.085001e-001
3.305531e+003,9.148127e-001
3.309388e+003,9.200562e-001
3.313246e+003,9.169606e-001
3.317103e+003,9.148278e-001
3.320960e+003,9.211616e-001
3.324817e+003,9.250899e-001
3.328674e+003,9.388940e-001
3.332531e+003,9.443491e-001
3.336388e+003,9.472443e-001
3.340245e+003,9.555698e-001
3.344102e+003,9.585904e-001
3.347959e+003,9.554895e-001
3.351817e+003,9.620799e-001
3.355674e+003,9.693655e-001
3.359531e+003,9.708045e-001
3.363388e+003,9.636952e-001
3.367245e+003,9.553122e-001
3.371102e+003,9.598472e-001
3.374959e+003,9.659752e-001
3.378816e+003,9.753171e-001
3.382673e+003,9.669173e-001
3.386530e+003,9.689557e-001
3.390387e+003,9.889651e-001
3.394245e+003,9.879752e-001
3.398102e+003,9.758523e-001
3.401959e+003,9.925178e-001
3.405816e+003,9.959677e-001
3.409673e+003,9.916355e-001
3.413530e+003,9.992852e-001
3.417387e+003,1.007555e+000
3.421244e+003,1.010777e+000
3.425101e+003,1.009139e+000
3.428958e+003,1.005261e+000
3.432815e+003,1.002797e+000
3.436673e+003,9.965323e-001
3.440530e+003,9.920276e-001
3.444387e+003,9.851399e-001
3.448244e+003,9.874494e-001
3.452101e+003,1.006683e+000
3.455958e+003,1.012516e+000
3.459815e+003,1.012518e+000
3.463672e+003,1.027313e+000
3.467529e+003,1.033621e+000
3.471386e+003,1.035365e+000
3.475244e+003,1.030433e+000
3.479101e+003,1.015036e+000
3.482958e+003,1.021217e+000
3.486815e+003,1.032744e+000
3.490672e+003,1.039349e+000
3.494529e+003,1.036096e+000
3.498386e+003,1.026385e+000
3.502243e+003,1.035323e+000
3.506100e+003,1.033814e+000
3.509958e+003,1.019862e+000
3.513814e+003,1.011927e+000
3.517672e+003,1.018461e+000
3.521529e+003,1.025122e+000
3.525386e+003,1.025662e+000
3.529243e+003,1.027305e+000
3.533100e+003,1.011252e+000
3.536957e+003,1.006442e+000
3.540814e+003,1.023386e+000
3.544671e+003,1.031144e+000
3.548528e+003,1.014805e+000
3.552385e+003,1.000281e+000
3.556243e+003,9.981941e-001
3.560100e+003,9.932761e-001
3.563957e+003,9.811851e-001
3.567814e+003,9.824412e-001
3.571671e+003,9.833118e-001
3.575528e+003,9.599394e-001
3.579385e+003,9.482458e-001
3.583242e+003,9.538603e-001
3.587099e+003,9.374252e-001
3.590957e+003,9.111492e-001
3.594813e+003,8.983074e-001
3.598671e+003,8.829834e-001
3.602528e+003,8.665916e-001
3.606385e+003,8.561773e-001
3.610242e+003,8.310726e-001
3.614099e+003,7.991251e-001
3.617956e+003,7.567185e-001
3.621813e+003,7.154553e-001
3.625670e+003,6.897534e-001
3.629527e+003,6.699978e-001
3.633385e+003,6.371394e-001
3.637242e+003,5.979711e-001
3.641099e+003,5.625877e-001
3.644956e+003,5.385327e-001
3.648813e+003,5.111946e-001
3.652670e+003,4.713637e-001
3.656527e+003,4.429159e-001
3.660384e+003,4.201858e-001
3.664241e+003,3.921326e-001
3.668098e+003,3.661482e-001
3.671956e+003,3.518488e-001
3.675813e+003,3.389200e-001
3.679670e+003,3.240751e-001
3.683527e+003,3.104816e-001
3.687384e+003,2.985464e-001
3.691241e+003,2.887082e-001
3.695098e+003,2.838688e-001
3.698955e+003,2.790358e-001
3.702812e+003,2.726106e-001
3.706669e+003,2.668176e-001
3.710526e+003,2.613444e-001
3.714384e+003,2.584980e-001
3.718241e+003,2.586130e-001
3.722098e+003,2.544386e-001
3.725955e+003,2.487632e-001
3.729812e+003,2.459111e-001
3.733669e+003,2.461617e-001
3.737526e+003,2.444354e-001
3.741383e+003,2.438417e-001
3.745240e+003,2.449278e-001
3.749097e+003,2.424720e-001
3.752955e+003,2.390005e-001
3.756812e+003,2.364067e-001
3.760669e+003,2.350966e-001
3.764526e+003,2.356366e-001
3.768383e+003,2.363962e-001
3.772240e+003,2.349811e-001
3.776097e+003,2.343031e-001
3.779954e+003,2.342018e-001
3.783811e+003,2.333160e-001
3.787668e+003,2.333864e-001
3.791525e+003,2.337133e-001
3.795383e+003,2.398046e-001
3.799240e+003,2.446276e-001
3.803097e+003,2.406663e-001
3.806954e+003,2.360335e-001
3.810811e+003,2.357731e-001
3.814668e+003,2.371302e-001
3.818525e+003,2.390587e-001
3.822382e+003,2.406223e-001
3.826239e+003,2.416182e-001
3.830096e+003,2.428624e-001
3.833954e+003,2.446764e-001
3.837811e+003,2.411467e-001
3.841668e+003,2.402470e-001
3.845525e+003,2.394506e-001
3.849382e+003,2.366072e-001
3.853239e+003,2.350175e-001
3.857096e+003,2.355382e-001
3.860953e+003,2.383078e-001
3.864810e+003,2.386847e-001
3.868667e+003,2.366979e-001
3.872524e+003,2.345663e-001
3.876382e+003,2.357982e-001
3.880239e+003,2.336372e-001
3.884096e+003,2.324345e-001
3.887953e+003,2.330062e-001
3.891810e+003,2.303733e-001
3.895667e+003,2.310728e-001
3.899524e+003,2.336207e-001
3.903381e+003,2.325841e-001
3.907238e+003,2.314264e-001
3.911095e+003,2.330850e-001
3.914953e+003,2.350086e-001
3.918810e+003,2.358117e-001
3.922667e+003,2.357455e-001
3.926524e+003,2.358053e-001
3.930381e+003,2.358884e-001
3.934238e+003,2.346263e-001
3.938095e+003,2.357142e-001
3.941952e+003,2.347322e-001
3.945809e+003,2.343656e-001
3.949667e+003,2.389010e-001
3.953523e+003,2.395559e-001
3.957381e+003,2.379779e-001
3.961238e+003,2.373657e-001
3.965095e+003,2.347816e-001
3.968952e+003,2.343405e-001
3.972809e+003,2.351737e-001
3.976666e+003,2.347221e-001
3.980523e+003,2.339639e-001
3.984380e+003,2.336635e-001
3.988237e+003,2.305411e-001
3.992094e+003,2.278447e-001
3.995952e+003,2.300607e-001
3.999809e+003,2.300658e-001
4.003666e+003,2.310471e-001
4.007523e+003,2.335804e-001
4.011380e+003,2.324070e-001
4.015237e+003,2.329348e-001
4.019094e+003,2.319784e-001
4.022951e+003,2.268901e-001
4.026808e+003,2.236855e-001
4.030666e+003,2.244065e-001
4.034522e+003,2.281172e-001
4.038380e+003,2.319909e-001
4.042237e+003,2.340069e-001
4.046094e+003,2.327631e-001
4.049951e+003,2.311235e-001
4.053808e+003,2.293712e-001
4.057665e+003,2.276464e-001
4.061522e+003,2.264116e-001
4.065379e+003,2.276851e-001
4.069236e+003,2.283877e-001
4.073094e+003,2.274584e-001
4.076951e+003,2.244325e-001
4.080808e+003,2.261762e-001
4.084665e+003,2.279962e-001
4.088522e+003,2.253578e-001
4.092379e+003,2.231451e-001
4.096236e+003,2.231386e-001
4.100093e+003,2.219365e-001
4.103950e+003,2.186308e-001
4.107808e+003,2.166215e-001
4.111665e+003,2.197102e-001
4.115521e+003,2.212100e-001
4.119379e+003,2.187808e-001
4.123236e+003,2.152721e-001
4.127093e+003,2.185421e-001
4.130950e+003,2.219870e-001
4.134807e+003,2.222318e-001
4.138664e+003,2.168196e-001
4.142521e+003,2.120713e-001
4.146378e+003,2.155236e-001
4.150235e+003,2.196364e-001
4.154093e+003,2.147613e-001
4.157950e+003,2.101717e-001
4.161807e+003,2.121287e-001
4.165664e+003,2.171899e-001
4.169521e+003,2.204156e-001
4.173378e+003,2.178517e-001
4.177235e+003,2.130422e-001
4.181092e+003,2.154037e-001
4.184949e+003,2.197354e-001
4.188807e+003,2.200092e-001
4.192664e+003,2.192597e-001
4.196521e+003,2.180497e-001
4.200378e+003,2.198789e-001
4.204235e+003,2.191455e-001
4.208092e+003,2.170484e-001
4.211949e+003,2.185133e-001
4.215806e+003,2.166822e-001
4.219663e+003,2.166882e-001
4.223521e+003,2.198345e-001
4.227377e+003,2.150994e-001
4.231234e+003,2.129356e-001
4.235092e+003,2.147963e-001
4.238949e+003,2.160337e-001
4.242806e+003,2.151700e-001
4.246663e+003,2.140461e-001
4.250520e+003,2.129328e-001
4.254377e+003,2.124413e-001
4.258234e+003,2.104480e-001
4.262091e+003,2.099962e-001
4.265948e+003,2.130876e-001
4.269806e+003,2.158665e-001
4.273663e+003,2.167678e-001
4.277520e+003,2.152699e-001
4.281377e+003,2.136479e-001
4.285234e+003,2.116840e-001
4.289091e+003,2.160032e-001
4.292948e+003,2.217600e-001
4.296805e+003,2.188074e-001
4.300662e+003,2.165125e-001
4.304520e+003,2.179119e-001
4.308376e+003,2.197461e-001
4.312233e+003,2.162649e-001
4.316091e+003,2.144337e-001
4.319948e+003,2.189470e-001
4.323805e+003,2.215970e-001
4.327662e+003,2.201596e-001
4.331519e+003,2.181553e-001
4.335376e+003,2.173340e-001
4.339233e+003,2.160085e-001
4.343090e+003,2.160495e-001
4.346947e+003,2.145360e-001
4.350805e+003,2.197544e-001
4.354662e+003,2.234399e-001
4.358519e+003,2.244919e-001
4.362376e+003,2.248814e-001
4.366233e+003,2.191821e-001
4.370090e+003,2.150289e-001
4.373947e+003,2.126750e-001
4.377804e+003,2.171813e-001
4.381661e+003,2.209595e-001
4.385519e+003,2.170260e-001
4.389375e+003,2.146150e-001
4.393232e+003,2.138666e-001
4.397090e+003,2.141552e-001
4.400947e+003,2.158856e-001
4.404804e+003,2.218771e-001
4.408661e+003,2.260663e-001
4.412518e+003,2.258045e-001
4.416375e+003,2.227934e-001
4.420232e+003,2.206623e-001
4.424089e+003,2.220588e-001
4.427946e+003,2.246582e-001
4.431804e+003,2.239489e-001
4.435661e+003,2.247975e-001
4.439518e+003,2.246368e-001
4.443375e+003,2.251617e-001
4.447232e+003,2.247582e-001
4.451089e+003,2.248922e-001
4.454946e+003,2.229425e-001
4.458803e+003,2.261482e-001
4.462660e+003,2.282460e-001
4.466518e+003,2.278970e-001
4.470375e+003,2.241260e-001
4.474231e+003,2.268128e-001
4.478089e+003,2.308586e-001
4.481946e+003,2.246851e-001
4.485803e+003,2.231352e-001
4.489660e+003,2.226552e-001
4.493517e+003,2.208488e-001
4.497375e+003,2.239130e-001
4.501231e+003,2.213767e-001
4.505088e+003,2.190006e-001
4.508946e+003,2.218528e-001
4.512803e+003,2.180702e-001
4.516660e+003,2.162940e-001
4.520517e+003,2.205203e-001
4.524374e+003,2.219030e-001
4.528231e+003,2.248081e-001
4.532088e+003,2.271006e-001
4.535945e+003,2.273232e-001
4.539802e+003,2.254582e-001
4.543660e+003,2.232822e-001
4.547517e+003,2.252604e-001
4.551374e+003,2.257545e-001
4.555231e+003,2.247980e-001
4.559088e+003,2.233334e-001
4.562945e+003,2.213849e-001
4.566802e+003,2.247612e-001
4.570659e+003,2.277532e-001
4.574516e+003,2.281703e-001
4.578374e+003,2.279250e-001
4.582230e+003,2.227354e-001
4.586087e+003,2.230782e-001
4.589945e+003,2.237753e-001
4.593802e+003,2.236408e-001
4.597659e+003,2.222529e-001
4.601516e+003,2.221073e-001
4.605373e+003,2.247007e-001
4.609230e+003,2.270564e-001
4.613087e+003,2.251154e-001
4.616944e+003,2.202815e-001
4.620801e+003,2.194374e-001
4.624659e+003,2.225740e-001
4.628516e+003,2.278625e-001
4.632373e+003,2.310247e-001
4.636230e+003,2.290773e-001
4.640087e+003,2.284984e-001
4.643944e+003,2.275565e-001
4.647801e+003,2.234122e-001
4.651658e+003,2.203489e-001
4.655515e+003,2.181325e-001
4.659373e+003,2.158432e-001
4.663229e+003,2.176132e-001
4.667086e+003,2.177473e-001
4.670944e+003,2.154846e-001
4.674801e+003,2.158234e-001
4.678658e+003,2.129344e-001
4.682515e+003,2.126434e-001
4.686372e+003,2.160229e-001
4.690229e+003,2.181606e-001
4.694086e+003,2.189047e-001
4.697943e+003,2.260292e-001
4.701800e+003,2.290549e-001
4.705658e+003,2.277492e-001
4.709515e+003,2.224182e-001
4.713372e+003,2.161567e-001
4.717229e+003,2.213813e-001
4.721086e+003,2.234520e-001
4.724943e+003,2.184092e-001
4.728800e+003,2.176084e-001
4.732657e+003,2.187945e-001
4.736514e+003,2.173861e-001
4.740372e+003,2.160759e-001
4.744229e+003,2.159830e-001
4.748085e+003,2.231515e-001
4.751943e+003,2.266774e-001
4.755800e+003,2.138434e-001
4.759657e+003,2.081067e-001
4.763514e+003,2.187760e-001
4.767371e+003,2.221785e-001
4.771228e+003,2.167919e-001
4.775085e+003,2.144206e-001
4.778942e+003,2.093453e-001
4.782799e+003,2.117052e-001
4.786657e+003,2.183040e-001
4.790514e+003,2.163919e-001
4.794371e+003,2.122576e-001
4.798228e+003,2.108022e-001
4.802085e+003,2.092068e-001
4.805942e+003,2.100530e-001
4.809799e+003,2.146802e-001
4.813656e+003,2.152148e-001
4.817513e+003,2.175346e-001
4.821371e+003,2.201744e-001
4.825228e+003,2.171468e-001
4.829084e+003,2.187685e-001
4.832942e+003,2.265740e-001
4.836799e+003,2.279836e-001
4.840656e+003,2.203320e-001
4.844513e+003,2.154665e-001
4.848370e+003,2.181344e-001
4.852227e+003,2.220850e-001
4.856084e+003,2.242834e-001
4.859941e+003,2.231563e-001
4.863798e+003,2.300972e-001
4.867656e+003,2.312739e-001
4.871513e+003,2.220467e-001
4.875370e+003,2.227077e-001
4.879227e+003,2.309005e-001
4.883084e+003,2.302174e-001
4.886941e+003,2.198058e-001
4.890798e+003,2.102686e-001
4.894655e+003,2.148028e-001
4.898512e+003,2.201161e-001
4.902370e+003,2.228678e-001
4.906227e+003,2.247774e-001
4.910083e+003,2.163701e-001
4.913941e+003,2.143995e-001
4.917798e+003,2.209894e-001
4.921655e+003,2.210927e-001
4.925512e+003,2.188340e-001
4.929369e+003,2.176756e-001
4.933226e+003,2.137332e-001
4.937083e+003,2.147029e-001
4.940940e+003,2.196677e-001
4.944797e+003,2.209876e-001
4.948655e+003,2.217047e-001
4.952512e+003,2.274772e-001
4.956369e+003,2.311551e-001
4.960226e+003,2.315415e-001
4.964083e+003,2.288334e-001
4.967940e+003,2.249109e-001
4.971797e+003,2.256382e-001
4.975654e+003,2.245506e-001
4.979511e+003,2.246080e-001
4.983369e+003,2.244015e-001
4.987226e+003,2.274082e-001
4.991083e+003,2.280707e-001
4.994940e+003,2.338282e-001
4.998797e+003,2.335557e-001
5.002654e+003,2.254495e-001
5.006511e+003,2.290632e-001
5.010368e+003,2.330102e-001
5.014225e+003,2.309011e-001
5.018083e+003,2.261096e-001
5.021939e+003,2.251387e-001
5.025796e+003,2.309797e-001
5.029654e+003,2.345726e-001
5.033511e+003,2.360238e-001
5.037368e+003,2.301166e-001
5.041225e+003,2.274828e-001
5.045082e+003,2.312964e-001
5.048939e+003,2.360509e-001
5.052796e+003,2.279094e-001
5.056653e+003,2.206360e-001
5.060510e+003,2.266324e-001
5.064368e+003,2.281250e-001
5.068225e+003,2.314271e-001
5.072082e+003,2.335963e-001
5.075939e+003,2.369067e-001
5.079796e+003,2.384470e-001
5.083653e+003,2.397041e-001
5.087510e+003,2.384799e-001
5.091367e+003,2.340198e-001
5.095224e+003,2.311304e-001
5.099082e+003,2.357918e-001
5.102938e+003,2.325665e-001
5.106795e+003,2.322951e-001
5.110653e+003,2.364214e-001
5.114510e+003,2.398547e-001
5.118367e+003,2.385006e-001
5.122224e+003,2.370895e-001
5.126081e+003,2.386731e-001
5.129938e+003,2.467603e-001
5.133795e+003,2.483950e-001
5.137652e+003,2.407625e-001
5.141509e+003,2.387544e-001
5.145367e+003,2.378990e-001
5.149224e+003,2.424924e-001
5.153081e+003,2.371351e-001
5.156938e+003,2.312165e-001
5.160795e+003,2.381367e-001
5.164652e+003,2.419411e-001
5.168509e+003,2.389178e-001
5.172366e+003,2.390784e-001
5.176223e+003,2.338075e-001
5.180081e+003,2.332494e-001
5.183938e+003,2.340525e-001
5.187794e+003,2.373527e-001
5.191652e+003,2.427211e-001
5.195509e+003,2.406462e-001
5.199366e+003,2.347024e-001
5.203223e+003,2.360856e-001
5.207080e+003,2.390778e-001
5.210937e+003,2.415935e-001
5.214794e+003,2.407412e-001
5.218651e+003,2.394385e-001
5.222508e+003,2.391041e-001
5.226366e+003,2.425452e-001
5.230223e+003,2.424591e-001
5.234080e+003,2.397010e-001
5.237937e+003,2.397339e-001
5.241794e+003,2.383948e-001
5.245651e+003,2.428060e-001
5.249508e+003,2.430997e-001
5.253365e+003,2.418821e-001
5.257222e+003,2.412687e-001
5.261080e+003,2.296108e-001
5.264937e+003,2.191491e-001
5.268793e+003,2.286564e-001
5.272651e+003,2.393142e-001
5.276508e+003,2.359766e-001
5.280365e+003,2.346531e-001
5.284222e+003,2.342103e-001
5.288079e+003,2.336694e-001
5.291936e+003,2.380759e-001
5.295793e+003,2.363616e-001
5.299650e+003,2.378523e-001
5.303507e+003,2.464375e-001
5.307365e+003,2.445734e-001
5.311222e+003,2.375381e-001
5.315079e+003,2.320728e-001
5.318936e+003,2.261166e-001
5.322793e+003,2.278651e-001
5.326650e+003,2.311289e-001
5.330507e+003,2.261022e-001
5.334364e+003,2.234188e-001
5.338221e+003,2.240564e-001
5.342079e+003,2.232560e-001
5.345936e+003,2.268546e-001
5.349792e+003,2.229053e-001
5.353650e+003,2.263146e-001
5.357507e+003,2.294564e-001
5.361364e+003,2.310188e-001
5.365221e+003,2.320900e-001
5.369078e+003,2.307410e-001
5.372935e+003,2.233149e-001
5.376792e+003,2.202349e-001
5.380649e+003,2.332505e-001
5.384506e+003,2.365229e-001
5.388364e+003,2.300473e-001
5.392221e+003,2.338805e-001
5.396078e+003,2.378101e-001
5.399935e+003,2.393109e-001
5.403792e+003,2.377651e-001
5.407649e+003,2.324834e-001
5.411506e+003,2.251091e-001
5.415363e+003,2.232924e-001
5.419220e+003,2.280861e-001
5.423078e+003,2.327289e-001
5.426935e+003,2.350577e-001
5.430792e+003,2.287750e-001
5.434649e+003,2.295462e-001
5.438506e+003,2.257366e-001
5.442363e+003,2.223879e-001
5.446220e+003,2.262459e-001
5.450077e+003,2.297930e-001
5.453934e+003,2.296944e-001
5.457792e+003,2.221489e-001
5.461648e+003,2.182074e-001
5.465505e+003,2.186674e-001
5.469363e+003,2.272410e-001
5.473220e+003,2.349846e-001
5.477077e+003,2.317815e-001
5.480934e+003,2.267006e-001
5.484791e+003,2.262423e-001
5.488648e+003,2.310416e-001
5.492505e+003,2.389010e-001
5.496362e+003,2.359008e-001
5.500219e+003,2.328895e-001
5.504077e+003,2.290745e-001
5.507934e+003,2.235007e-001
5.511791e+003,2.269033e-001
5.515648e+003,2.208382e-001
5.519505e+003,2.178528e-001
5.523362e+003,2.230380e-001
5.527219e+003,2.259156e-001
5.531076e+003,2.277476e-001
5.534933e+003,2.362343e-001
5.538791e+003,2.405578e-001
5.542647e+003,2.342111e-001
5.546504e+003,2.297535e-001
5.550362e+003,2.295476e-001
5.554219e+003,2.279002e-001
5.558076e+003,2.312786e-001
5.561933e+003,2.275850e-001
5.565790e+003,2.221777e-001
5.569647e+003,2.218199e-001
5.573504e+003,2.240851e-001
5.577361e+003,2.215335e-001
5.581218e+003,2.188392e-001
5.585076e+003,2.275609e-001
5.588933e+003,2.328537e-001
5.592790e+003,2.300927e-001
5.596647e+003,2.241486e-001
5.600504e+003,2.187339e-001
5.604361e+003,2.214851e-001
5.608218e+003,2.210085e-001
5.612075e+003,2.247648e-001
5.615932e+003,2.358029e-001
5.619790e+003,2.379736e-001
5.623646e+003,2.384986e-001
5.627503e+003,2.336103e-001
5.631361e+003,2.251749e-001
5.635218e+003,2.244769e-001
5.639075e+003,2.290540e-001
5.642932e+003,2.348513e-001
5.646789e+003,2.359172e-001
5.650646e+003,2.391209e-001
5.654503e+003,2.382527e-001
5.658360e+003,2.371170e-001
5.662217e+003,2.378494e-001
5.666075e+003,2.360769e-001
5.669932e+003,2.323291e-001
5.673789e+003,2.250290e-001
5.677646e+003,2.257680e-001
5.681503e+003,2.326998e-001
5.685360e+003,2.358442e-001
5.689217e+003,2.360200e-001
5.693074e+003,2.395272e-001
5.696931e+003,2.339878e-001
5.700789e+003,2.188515e-001
5.704646e+003,2.189134e-001
5.708502e+003,2.372707e-001
5.712360e+003,2.470862e-001
5.716217e+003,2.371500e-001
5.720074e+003,2.257041e-001
5.723931e+003,2.198357e-001
5.727788e+003,2.348585e-001
5.731645e+003,2.404301e-001
5.735502e+003,2.304160e-001
5.739359e+003,2.323189e-001
5.743216e+003,2.426410e-001
5.747074e+003,2.352287e-001
5.750931e+003,2.285842e-001
5.754788e+003,2.366453e-001
5.758645e+003,2.468232e-001
5.762502e+003,2.454193e-001
5.766359e+003,2.397864e-001
5.770216e+003,2.366620e-001
5.774073e+003,2.369418e-001
5.777930e+003,2.337316e-001
5.781788e+003,2.382975e-001
5.785645e+003,2.460729e-001
5.789501e+003,2.464588e-001
5.793359e+003,2.328698e-001
5.797216e+003,2.247337e-001
5.801073e+003,2.311447e-001
5.804930e+003,2.341466e-001
5.808787e+003,2.383125e-001
5.812644e+003,2.440272e-001
5.816501e+003,2.385444e-001
5.820358e+003,2.304941e-001
5.824215e+003,2.310677e-001
5.828073e+003,2.363196e-001
5.831930e+003,2.302727e-001
5.835787e+003,2.263933e-001
5.839644e+003,2.245947e-001
5.843501e+003,2.288870e-001
5.847358e+003,2.360316e-001
5.851215e+003,2.354081e-001
5.855072e+003,2.351994e-001
5.858929e+003,2.330542e-001
5.862787e+003,2.311154e-001
5.866644e+003,2.294084e-001
5.870500e+003,2.270147e-001
5.874358e+003,2.339760e-001
5.878215e+003,2.390872e-001
5.882072e+003,2.426892e-001
5.885929e+003,2.369480e-001
5.889786e+003,2.404881e-001
5.893643e+003,2.511581e-001
5.897500e+003,2.455055e-001
5.901357e+003,2.337631e-001
5.905214e+003,2.274541e-001
5.909072e+003,2.256685e-001
5.912929e+003,2.295025e-001
5.916786e+003,2.363763e-001
5.920643e+003,2.372464e-001
5.924500e+003,2.356428e-001
5.928357e+003,2.388021e-001
5.932214e+003,2.486128e-001
5.936071e+003,2.443577e-001
5.939928e+003,2.439505e-001
5.943786e+003,2.399847e-001
5.947643e+003,2.262497e-001
5.951500e+003,2.204240e-001
5.955357e+003,2.274197e-001
5.959214e+003,2.300032e-001
5.963071e+003,2.286700e-001
5.966928e+003,2.344983e-001
5.970785e+003,2.356676e-001
5.974642e+003,2.285941e-001
5.978500e+003,2.283061e-001
5.982356e+003,2.259853e-001
5.986213e+003,2.191710e-001
5.990071e+003,2.130363e-001
5.993928e+003,2.182170e-001
5.997785e+003,2.261587e-001
6.001642e+003,2.234251e-001
6.005499e+003,2.270233e-001
6.009356e+003,2.320758e-001
6.013213e+003,2.353993e-001
6.017070e+003,2.231216e-001
6.020927e+003,2.175189e-001
6.024785e+003,2.257728e-001
6.028642e+003,2.273073e-001
6.032499e+003,2.315385e-001
6.036356e+003,2.288342e-001
6.040213e+003,2.236032e-001
6.044070e+003,2.353000e-001
6.047927e+003,2.353792e-001
6.051784e+003,2.271380e-001
6.055641e+003,2.304208e-001
6.059499e+003,2.397106e-001
6.063355e+003,2.502926e-001
6.067212e+003,2.507955e-001
6.071070e+003,2.463467e-001
6.074927e+003,2.241700e-001
6.078784e+003,2.125966e-001
6.082641e+003,2.270823e-001
6.086498e+003,2.396239e-001
6.090355e+003,2.266695e-001
6.094212e+003,2.144949e-001
6.098069e+003,2.089057e-001
6.101926e+003,2.044395e-001
6.105784e+003,2.073284e-001
6.109641e+003,2.157284e-001
6.113498e+003,2.233749e-001
6.117355e+003,2.301449e-001
6.121212e+003,2.303254e-001
6.125069e+003,2.268334e-001
6.128926e+003,2.331346e-001
6.132783e+003,2.282180e-001
6.136640e+003,2.218037e-001
6.140498e+003,2.326876e-001
6.144354e+003,2.364359e-001
6.148211e+003,2.307114e-001
6.152069e+003,2.295504e-001
6.155926e+003,2.254148e-001
6.159783e+003,2.165890e-001
6.163640e+003,2.215202e-001
6.167497e+003,2.349437e-001
6.171354e+003,2.353138e-001
6.175211e+003,2.281822e-001
6.179068e+003,2.332076e-001
6.182925e+003,2.385146e-001
6.186783e+003,2.286943e-001
6.190640e+003,2.292965e-001
6.194497e+003,2.321074e-001
6.198354e+003,2.429487e-001
6.202211e+003,2.583783e-001
6.206068e+003,2.491294e-001
6.209925e+003,2.366069e-001
6.213782e+003,2.267670e-001
6.217639e+003,2.248307e-001
6.221497e+003,2.298139e-001
6.225354e+003,2.258437e-001
6.229210e+003,2.243025e-001
6.233068e+003,2.251658e-001
6.236925e+003,2.296626e-001
6.240782e+003,2.266033e-001
6.244639e+003,2.268767e-001
6.248496e+003,2.398715e-001
6.252353e+003,2.422341e-001
6.256210e+003,2.425898e-001
6.260067e+003,2.482545e-001
6.263924e+003,2.547128e-001
6.267782e+003,2.346850e-001
6.271639e+003,2.182912e-001
6.275496e+003,2.278554e-001
6.279353e+003,2.267065e-001
6.283210e+003,2.313818e-001
6.287067e+003,2.403851e-001
6.290924e+003,2.362893e-001
6.294781e+003,2.413018e-001
6.298638e+003,2.406741e-001
6.302496e+003,2.287309e-001
6.306353e+003,2.232249e-001
6.310209e+003,2.322505e-001
6.314067e+003,2.428748e-001
6.317924e+003,2.331712e-001
6.321781e+003,2.223980e-001
6.325638e+003,2.198224e-001
6.329495e+003,2.215907e-001
6.333352e+003,2.302917e-001
6.337209e+003,2.368090e-001
6.341066e+003,2.395591e-001
6.344923e+003,2.378051e-001
6.348780e+003,2.261200e-001
6.352638e+003,2.290708e-001
6.356495e+003,2.322086e-001
6.360352e+003,2.379983e-001
6.364209e+003,2.394080e-001
6.368066e+003,2.400881e-001
6.371923e+003,2.403341e-001
6.375780e+003,2.376782e-001
6.379637e+003,2.428026e-001
6.383494e+003,2.381714e-001
6.387352e+003,2.282012e-001
6.391208e+003,2.321032e-001
6.395065e+003,2.381151e-001
6.398923e+003,2.458332e-001
6.402780e+003,2.467404e-001
6.406637e+003,2.422387e-001
6.410494e+003,2.319926e-001
6.414351e+003,2.273517e-001
6.418208e+003,2.379432e-001
6.422065e+003,2.395534e-001
6.425922e+003,2.279553e-001
6.429779e+003,2.232630e-001
6.433637e+003,2.231708e-001
6.437494e+003,2.376052e-001
6.441351e+003,2.346823e-001
6.445208e+003,2.287971e-001
6.449065e+003,2.337622e-001
6.452922e+003,2.310243e-001
6.456779e+003,2.299713e-001
6.460636e+003,2.312137e-001
6.464493e+003,2.260920e-001
6.468351e+003,2.308694e-001
6.472208e+003,2.443619e-001
6.476064e+003,2.256873e-001
6.479922e+003,2.171631e-001
6.483779e+003,2.391524e-001
6.487636e+003,2.454878e-001
6.491493e+003,2.455870e-001
6.495350e+003,2.316378e-001
6.499207e+003,2.225112e-001
6.503064e+003,2.181269e-001
6.506921e+003,2.146382e-001
6.510778e+003,2.192223e-001
6.514636e+003,2.290176e-001
6.518493e+003,2.227767e-001
6.522350e+003,2.149054e-001
6.526207e+003,2.372178e-001
6.530064e+003,2.537624e-001
6.533921e+003,2.443723e-001
6.537778e+003,2.423505e-001
6.541635e+003,2.349120e-001
6.545492e+003,2.312445e-001
6.549350e+003,2.384622e-001
6.553207e+003,2.384275e-001
6.557063e+003,2.275849e-001
6.560921e+003,2.197699e-001
6.564778e+003,2.301230e-001
6.568635e+003,2.319464e-001
6.572492e+003,2.346689e-001
6.576349e+003,2.515503e-001
6.580206e+003,2.548504e-001
6.584063e+003,2.550686e-001
6.587920e+003,2.616637e-001
6.591777e+003,2.488304e-001
6.595635e+003,2.330769e-001
6.599492e+003,2.239856e-001
6.603349e+003,2.237192e-001
6.607206e+003,2.268469e-001
6.611063e+003,2.314958e-001
6.614920e+003,2.278189e-001
6.618777e+003,2.288650e-001
6.622634e+003,2.325051e-001
6.626491e+003,2.477653e-001
6.630349e+003,2.531648e-001
6.634206e+003,2.393710e-001
6.638063e+003,2.270155e-001
6.641920e+003,2.473036e-001
6.645777e+003,2.556884e-001
6.649634e+003,2.523735e-001
6.653491e+003,2.467725e-001
6.657348e+003,2.433845e-001
6.661205e+003,2.311764e-001
6.665063e+003,2.247871e-001
6.668919e+003,2.203609e-001
6.672776e+003,2.207102e-001
6.676634e+003,2.238777e-001
6.680491e+003,2.312186e-001
6.684348e+003,2.458253e-001
6.688205e+003,2.488513e-001
6.692062e+003,2.452359e-001
6.695919e+003,2.372597e-001
6.699776e+003,2.361329e-001
6.703633e+003,2.474423e-001
6.707490e+003,2.354617e-001
6.711348e+003,2.327591e-001
6.715205e+003,2.481104e-001
6.719062e+003,2.569508e-001
6.722919e+003,2.276909e-001
6.726776e+003,1.961739e-001
6.730633e+003,2.186284e-001
6.734490e+003,2.478400e-001
6.738347e+003,2.515996e-001
6.742204e+003,2.380775e-001
6.746062e+003,2.298140e-001
6.749918e+003,2.249861e-001
6.753775e+003,2.246892e-001
6.757633e+003,2.305323e-001
6.761490e+003,2.361840e-001
6.765347e+003,2.407439e-001
6.769204e+003,2.454099e-001
6.773061e+003,2.351495e-001
6.776918e+003,2.279973e-001
6.780775e+003,2.313073e-001
6.784632e+003,2.325437e-001
6.788489e+003,2.372492e-001
6.792347e+003,2.649519e-001
6.796204e+003,2.561677e-001
6.800061e+003,2.338047e-001
6.803918e+003,2.324861e-001
6.807775e+003,2.195584e-001
6.811632e+003,2.218400e-001
6.815489e+003,2.437906e-001
6.819346e+003,2.749256e-001
6.823203e+003,2.720417e-001
6.827061e+003,2.481834e-001
6.830917e+003,2.444146e-001
6.834774e+003,2.271506e-001
6.838632e+003,2.237262e-001
6.842489e+003,2.189989e-001
6.846346e+003,2.210336e-001
6.850203e+003,2.347364e-001
6.854060e+003,2.438330e-001
6.857917e+003,2.626671e-001
6.861774e+003,2.745121e-001
6.865631e+003,2.685483e-001
6.869488e+003,2.594871e-001
6.873346e+003,2.490452e-001
6.877203e+003,2.431339e-001
6.881060e+003,2.399986e-001
6.884917e+003,2.391796e-001
6.888774e+003,2.315951e-001
6.892631e+003,2.418900e-001
6.896488e+003,2.637096e-001
6.900345e+003,2.598605e-001
6.904202e+003,2.470559e-001
6.908060e+003,2.513983e-001
6.911917e+003,2.437825e-001
6.915773e+003,2.280387e-001
6.919631e+003,2.527747e-001
6.923488e+003,2.889109e-001
6.927345e+003,2.744691e-001
6.931202e+003,2.459093e-001
6.935059e+003,2.451738e-001
6.938916e+003,2.403871e-001
6.942773e+003,2.292527e-001
6.946630e+003,2.335472e-001
6.950487e+003,2.499033e-001
6.954345e+003,2.303527e-001
6.958202e+003,2.149564e-001
6.962059e+003,2.231441e-001
6.965916e+003,2.398016e-001
6.969773e+003,2.808529e-001
6.973630e+003,2.927734e-001
6.977487e+003,2.576293e-001
6.981344e+003,2.205145e-001
6.985201e+003,2.281547e-001
6.989059e+003,2.762149e-001
6.992916e+003,2.767755e-001
6.996772e+003,2.268175e-001
7.000630e+003,2.098342e-001
7.004487e+003,2.400568e-001
7.008344e+003,2.610315e-001
7.012201e+003,2.624028e-001
7.016058e+003,2.770252e-001
7.019915e+003,2.529199e-001
7.023772e+003,2.425321e-001
7.027629e+003,2.674597e-001
7.031486e+003,2.734241e-001
7.035344e+003,2.755963e-001
7.039201e+003,2.549351e-001
7.043058e+003,2.454379e-001
7.046915e+003,2.433627e-001
7.050772e+003,2.476465e-001
7.054629e+003,2.360703e-001
7.058486e+003,2.526400e-001
7.062343e+003,2.463623e-001
7.066200e+003,2.254737e-001
7.070058e+003,2.336170e-001
7.073915e+003,2.497190e-001
7.077771e+003,2.630019e-001
7.081629e+003,2.808363e-001
7.085486e+003,2.592437e-001
7.089343e+003,2.219670e-001
7.093200e+003,2.263895e-001
7.097057e+003,2.535717e-001
7.100914e+003,2.557752e-001
7.104771e+003,2.059146e-001
7.108628e+003,2.171972e-001
7.112485e+003,2.746265e-001
7.116343e+003,2.893680e-001
7.120200e+003,2.609041e-001
7.124057e+003,2.517508e-001
7.127914e+003,2.421777e-001
7.131771e+003,2.472737e-001
7.135628e+003,2.664958e-001
7.139485e+003,2.455354e-001
7.143342e+003,2.484921e-001
7.147199e+003,2.441284e-001
7.151057e+003,2.058595e-001
7.154914e+003,2.123749e-001
7.158771e+003,2.387798e-001
7.162628e+003,2.552429e-001
7.166485e+003,2.785287e-001
7.170342e+003,2.765904e-001
7.174199e+003,2.688760e-001
7.178056e+003,2.864041e-001
7.181913e+003,2.895823e-001
7.185771e+003,2.656208e-001
7.189627e+003,2.481504e-001
7.193484e+003,2.370697e-001
7.197342e+003,2.406326e-001
7.201199e+003,2.691316e-001
7.205056e+003,2.757056e-001
7.208913e+003,2.524602e-001
7.212770e+003,2.449549e-001
7.216627e+003,2.210900e-001
7.220484e+003,2.005979e-001
7.224341e+003,2.303189e-001
7.228198e+003,2.730133e-001
7.232056e+003,2.907791e-001
7.235913e+003,2.621942e-001
7.239770e+003,2.333399e-001
7.243627e+003,2.437747e-001
7.247484e+003,2.277309e-001
7.251341e+003,2.137569e-001
7.255198e+003,2.393281e-001
7.259055e+003,2.392429e-001
7.262912e+003,2.235908e-001
7.266770e+003,2.418600e-001
7.270626e+003,2.673672e-001
7.274483e+003,2.920407e-001
7.278341e+003,2.576335e-001
7.282198e+003,2.330254e-001
7.286055e+003,2.531136e-001
7.289912e+003,2.575190e-001
7.293769e+003,2.348949e-001
7.297626e+003,1.927119e-001
7.301483e+003,2.075806e-001
7.305340e+003,2.324838e-001
7.309197e+003,2.006065e-001
7.313055e+003,1.775496e-001
7.316912e+003,1.892293e-001
7.320769e+003,2.116906e-001
7.324626e+003,2.030761e-001
7.328483e+003,2.145806e-001
7.332340e+003,2.244889e-001
7.336197e+003,1.898525e-001
7.340054e+003,2.280521e-001
7.343911e+003,2.539110e-001
7.347769e+003,2.501079e-001
7.351625e+003,2.447029e-001
7.355482e+003,2.071345e-001
7.359340e+003,2.162681e-001
7.363197e+003,2.360701e-001
7.367054e+003,2.368106e-001
7.370911e+003,2.887725e-001
7.374768e+003,2.887025e-001
7.378625e+003,2.554815e-001
7.382482e+003,2.340967e-001
7.386339e+003,2.726603e-001
7.390196e+003,2.890797e-001
7.394054e+003,2.896322e-001
7.397911e+003,2.775601e-001
7.401768e+003,2.456265e-001
7.405625e+003,2.333550e-001
7.409482e+003,2.213929e-001
7.413339e+003,2.436675e-001
7.417196e+003,2.806854e-001
7.421053e+003,2.995432e-001
7.424910e+003,2.343533e-001
7.428768e+003,2.027377e-001
7.432625e+003,2.561455e-001
7.436481e+003,2.822639e-001
7.440339e+003,2.453899e-001
7.444196e+003,2.356229e-001
7.448053e+003,2.594723e-001
7.451910e+003,2.619377e-001
7.455767e+003,2.375474e-001
7.459624e+003,2.347668e-001
7.463481e+003,2.678123e-001
7.467338e+003,2.651900e-001
7.471195e+003,2.132855e-001
7.475053e+003,1.949958e-001
7.478910e+003,2.308085e-001
7.482767e+003,2.676330e-001
7.486624e+003,2.737271e-001
7.490481e+003,2.087116e-001
7.494338e+003,1.986332e-001
7.498195e+003,2.333892e-001
7.502052e+003,2.217068e-001
7.505909e+003,2.016923e-001
7.509767e+003,2.143147e-001
7.513624e+003,2.243819e-001
7.517480e+003,2.634991e-001
7.521338e+003,3.084314e-001
7.525195e+003,2.811209e-001
7.529052e+003,2.033677e-001
7.532909e+003,2.089214e-001
7.536766e+003,2.280387e-001
7.540623e+003,2.323052e-001
7.544480e+003,2.550982e-001
7.548337e+003,2.504090e-001
7.552194e+003,2.811997e-001
7.556052e+003,2.855074e-001
7.559909e+003,2.691057e-001
7.563766e+003,2.898306e-001
7.567623e+003,3.313528e-001
7.571480e+003,2.783581e-001
7.575337e+003,2.146309e-001
7.579194e+003,2.027764e-001
7.583051e+003,2.045293e-001
7.586908e+003,2.485104e-001
7.590766e+003,2.833214e-001
7.594623e+003,3.088437e-001
7.598479e+003,2.863209e-001
7.602337e+003,2.549860e-001
7.606194e+003,2.271573e-001
7.610051e+003,2.079740e-001
7.613908e+003,2.423523e-001
7.617765e+003,3.134950e-001
7.621622e+003,2.661460e-001
7.625479e+003,1.966471e-001
7.629336e+003,1.886441e-001
7.633193e+003,2.457817e-001
7.637051e+003,3.143111e-001
7.640908e+003,2.922305e-001
7.644765e+003,2.569246e-001
7.648622e+003,2.821085e-001
7.652479e+003,2.731154e-001
7.656336e+003,2.847047e-001
7.660193e+003,2.598990e-001
7.664050e+003,2.563441e-001
7.667907e+003,2.711217e-001
7.671765e+003,2.453843e-001
7.675622e+003,2.459813e-001
7.679479e+003,2.090770e-001
7.683336e+003,1.885965e-001
7.687193e+003,2.021198e-001
7.691050e+003,2.321146e-001
7.694907e+003,2.402796e-001
7.698764e+003,2.282762e-001
7.702621e+003,2.447155e-001
7.706479e+003,2.716911e-001
7.710335e+003,2.574223e-001
7.714192e+003,2.412232e-001
7.718050e+003,2.541015e-001
7.721907e+003,2.586976e-001
7.725764e+003,1.865511e-001
7.729621e+003,1.398526e-001
7.733478e+003,1.483411e-001
7.737335e+003,2.128722e-001
7.741192e+003,2.530231e-001
7.745049e+003,2.193021e-001
7.748906e+003,1.761115e-001
7.752764e+003,1.587093e-001
7.756621e+003,1.590122e-001
7.760478e+003,2.261506e-001
7.764335e+003,2.367914e-001
7.768192e+003,1.784858e-001
7.772049e+003,1.920133e-001
7.775906e+003,2.573089e-001
7.779763e+003,2.574603e-001
7.783620e+003,2.387944e-001
7.787478e+003,2.634406e-001
7.791334e+003,2.662440e-001
7.795191e+003,2.578986e-001
7.799049e+003,2.396860e-001
7.802906e+003,1.825542e-001
7.806763e+003,1.616271e-001
7.810620e+003,2.344909e-001
7.814477e+003,2.642160e-001
7.818334e+003,2.376516e-001
7.822191e+003,2.218056e-001
7.826048e+003,1.809601e-001
7.829905e+003,1.247592e-001
7.833763e+003,9.472474e-002
7.837620e+003,1.583769e-001
7.841477e+003,1.972151e-001
7.845334e+003,1.903190e-001
7.849191e+003,2.485668e-001
7.853048e+003,2.767184e-001
7.856905e+003,2.767031e-001
7.860762e+003,2.695104e-001
7.864619e+003,2.943283e-001
7.868477e+003,3.434768e-001
7.872333e+003,3.319423e-001
7.876190e+003,2.560178e-001
7.880048e+003,2.031170e-001
7.883905e+003,2.291327e-001
7.887762e+003,2.381308e-001
7.891619e+003,2.249992e-001
7.895476e+003,2.439394e-001
7.899333e+003,3.231485e-001
7.903190e+003,3.183497e-001
7.907047e+003,2.856599e-001
7.910904e+003,3.831283e-001
7.914762e+003,4.475006e-001
7.918619e+003,3.214870e-001
7.922476e+003,2.835861e-001
7.926333e+003,2.262809e-001
7.930190e+003,1.909268e-001
7.934047e+003,1.842180e-001
7.937904e+003,2.527102e-001
7.941761e+003,3.061933e-001
7.945618e+003,3.024484e-001
7.949476e+003,3.469109e-001
7.953333e+003,3.719706e-001
7.957189e+003,3.204105e-001
7.961047e+003,2.257795e-001
7.964904e+003,2.255251e-001
7.968761e+003,2.056195e-001
7.972618e+003,2.134379e-001
7.976475e+003,1.945913e-001
7.980332e+003,2.212420e-001
7.984189e+003,2.931699e-001
7.988046e+003,2.357519e-001
7.991903e+003,1.810968e-001
7.995761e+003,1.978440e-001
7.999618e+003,2.964463e-001
