4.011380e+002,6.000000e+000
4.049951e+002,6.000000e+000
4.088522e+002,6.000000e+000
4.127093e+002,6.000000e+000
4.165664e+002,2.950736e-001
4.204235e+002,6.209643e-001
4.242806e+002,6.000000e+000
4.281377e+002,6.000000e+000
4.319948e+002,6.000000e+000
4.358519e+002,6.000000e+000
4.397090e+002,6.000000e+000
4.435661e+002,6.000000e+000
4.474232e+002,6.000000e+000
4.512803e+002,-2.717261e+000
4.551374e+002,-1.206329e+000
4.589945e+002,6.000000e+000
4.628516e+002,6.000000e+000
4.667087e+002,7.049146e-001
4.705658e+002,3.228074e-001
4.744229e+002,6.000000e+000
4.782800e+002,6.000000e+000
4.821371e+002,6.000000e+000
4.859941e+002,4.002748e-001
4.898513e+002,6.000000e+000
4.937083e+002,5.783634e-001
4.975654e+002,6.000000e+000
5.014225e+002,6.000000e+000
5.052796e+002,6.000000e+000
5.091367e+002,7.876112e-002
5.129938e+002,6.000000e+000
5.168509e+002,6.000000e+000
5.207080e+002,4.521386e-001
5.245651e+002,3.746844e-001
5.284222e+002,8.922027e-001
5.322793e+002,6.000000e+000
5.361364e+002,6.000000e+000
5.399935e+002,6.000000e+000
5.438506e+002,2.606658e-001
5.477077e+002,2.195891e-001
5.515648e+002,2.707321e-001
5.554219e+002,-1.965129e-001
5.592790e+002,-3.682123e-001
5.631361e+002,-1.697485e-001
5.669932e+002,3.380874e-001
5.708503e+002,6.000000e+000
5.747074e+002,6.000000e+000
5.785645e+002,6.000000e+000
5.824216e+002,6.000000e+000
5.862787e+002,5.140482e-001
5.901357e+002,1.105376e+000
5.939929e+002,1.068508e-001
5.978499e+002,-4.365220e-002
6.017070e+002,7.983815e-001
6.055641e+002,6.000000e+000
6.094212e+002,6.961428e-001
6.132783e+002,6.000000e+000
6.171354e+002,6.000000e+000
6.209925e+002,6.000000e+000
6.248496e+002,6.000000e+000
6.287067e+002,6.000000e+000
6.325638e+002,6.000000e+000
6.364209e+002,-1.138306e+000
6.402780e+002,6.000000e+000
6.441351e+002,5.049136e-001
6.479922e+002,6.000000e+000
6.518493e+002,1.930405e-001
6.557064e+002,1.335203e+000
6.595635e+002,6.000000e+000
6.634205e+002,-1.852288e-001
6.672777e+002,-4.824038e-001
6.711348e+002,-1.953110e-001
6.749918e+002,2.160859e-001
6.788490e+002,6.000000e+000
6.827061e+002,7.856771e-001
6.865631e+002,9.377891e-003
6.904203e+002,-8.240205e-002
6.942773e+002,6.000000e+000
6.981344e+002,6.000000e+000
7.019916e+002,4.021221e-001
7.058486e+002,6.000000e+000
7.097057e+002,-1.258101e-001
7.135629e+002,6.000000e+000
7.174199e+002,6.000000e+000
7.212770e+002,-3.817962e-001
7.251342e+002,-6.466685e-002
7.289912e+002,6.000000e+000
7.328483e+002,6.000000e+000
7.367054e+002,6.000000e+000
7.405625e+002,-3.211946e-001
7.444196e+002,6.000000e+000
7.482767e+002,1.634977e-001
7.521338e+002,3.273190e-003
7.559908e+002,1.338887e+000
7.598480e+002,9.180019e-001
7.637051e+002,1.933814e-001
7.675621e+002,-1.810502e-002
7.714193e+002,5.783475e-001
7.752764e+002,1.714324e+000
7.791334e+002,9.166746e-001
7.829905e+002,3.080808e-001
7.868477e+002,6.000000e+000
7.907047e+002,6.000000e+000
7.945618e+002,6.000000e+000
7.984189e+002,3.563935e-001
8.022760e+002,6.000000e+000
8.061331e+002,6.000000e+000
8.099902e+002,3.828693e+000
8.138473e+002,7.323139e-001
8.177044e+002,6.000000e+000
8.215615e+002,6.000000e+000
8.254186e+002,8.075301e-001
8.292757e+002,6.655051e-001
8.331328e+002,1.124362e+000
8.369899e+002,6.000000e+000
8.408470e+002,6.000000e+000
8.447041e+002,1.852226e+000
8.485612e+002,7.721021e-001
8.524183e+002,8.610103e-001
8.562754e+002,1.080637e+000
8.601324e+002,2.839286e+000
8.639896e+002,1.549280e+000
8.678467e+002,1.208341e+000
8.717037e+002,1.528939e+000
8.755609e+002,6.000000e+000
8.794180e+002,1.370682e+000
8.832750e+002,1.231130e+000
8.871321e+002,1.401732e+000
8.909893e+002,1.405882e+000
8.948463e+002,1.860377e+000
8.987034e+002,6.000000e+000
9.025605e+002,6.000000e+000
9.064176e+002,1.763107e+000
9.102747e+002,1.727031e+000
9.141318e+002,6.000000e+000
9.179889e+002,6.000000e+000
9.218461e+002,2.068743e+000
9.257031e+002,1.702124e+000
9.295602e+002,2.612658e+000
9.334174e+002,6.000000e+000
9.372744e+002,6.000000e+000
9.411315e+002,2.357448e+000
9.449886e+002,1.960563e+000
9.488457e+002,1.911337e+000
9.527028e+002,2.080835e+000
9.565599e+002,1.940692e+000
9.604170e+002,1.684297e+000
9.642740e+002,1.734238e+000
9.681312e+002,2.292204e+000
9.719883e+002,2.365211e+000
9.758453e+002,1.914291e+000
9.797025e+002,2.139006e+000
9.835596e+002,2.987227e+000
9.874166e+002,2.457539e+000
9.912738e+002,2.050209e+000
9.951309e+002,1.968499e+000
9.989879e+002,2.211355e+000
1.002845e+003,2.316791e+000
1.006702e+003,2.020116e+000
1.010559e+003,1.869984e+000
1.014416e+003,1.957778e+000
1.018273e+003,2.014923e+000
1.022130e+003,1.909544e+000
1.025988e+003,1.870604e+000
1.029845e+003,1.755286e+000
1.033702e+003,1.659431e+000
1.037559e+003,1.743043e+000
1.041416e+003,1.752179e+000
1.045273e+003,1.696674e+000
1.049130e+003,1.725958e+000
1.052987e+003,1.704411e+000
1.056844e+003,1.618229e+000
1.060702e+003,1.656855e+000
1.064559e+003,1.722986e+000
1.068416e+003,1.676972e+000
1.072273e+003,1.578896e+000
1.076130e+003,1.511620e+000
1.079987e+003,1.523619e+000
1.083844e+003,1.533876e+000
1.087701e+003,1.576445e+000
1.091558e+003,1.601524e+000
1.095415e+003,1.528936e+000
1.099272e+003,1.472843e+000
1.103130e+003,1.451677e+000
1.106987e+003,1.415042e+000
1.110844e+003,1.389876e+000
1.114701e+003,1.354335e+000
1.118558e+003,1.329800e+000
1.122415e+003,1.317074e+000
1.126272e+003,1.328758e+000
1.130129e+003,1.361599e+000
1.133986e+003,1.365940e+000
1.137843e+003,1.333751e+000
1.141701e+003,1.311898e+000
1.145558e+003,1.298401e+000
1.149415e+003,1.261041e+000
1.153272e+003,1.268175e+000
1.157129e+003,1.284351e+000
1.160986e+003,1.281718e+000
1.164843e+003,1.263626e+000
1.168700e+003,1.239390e+000
1.172557e+003,1.247154e+000
1.176414e+003,1.245268e+000
1.180271e+003,1.229029e+000
1.184129e+003,1.210311e+000
1.187986e+003,1.191262e+000
1.191843e+003,1.174638e+000
1.195700e+003,1.148039e+000
1.199557e+003,1.101668e+000
1.203414e+003,1.054903e+000
1.207271e+003,9.914433e-001
1.211128e+003,9.198293e-001
1.214985e+003,8.499798e-001
1.218842e+003,7.859015e-001
1.222699e+003,7.245184e-001
1.226557e+003,6.655819e-001
1.230414e+003,6.157159e-001
1.234271e+003,5.716230e-001
1.238128e+003,5.370884e-001
1.241985e+003,5.102808e-001
1.245842e+003,4.824215e-001
1.249699e+003,4.587069e-001
1.253556e+003,4.379047e-001
1.257413e+003,4.148180e-001
1.261271e+003,4.007461e-001
1.265128e+003,3.913138e-001
1.268985e+003,3.807838e-001
1.272842e+003,3.695719e-001
1.276699e+003,3.588575e-001
1.280556e+003,3.497346e-001
1.284413e+003,3.437233e-001
1.288270e+003,3.377641e-001
1.292127e+003,3.293777e-001
1.295984e+003,3.232411e-001
1.299841e+003,3.164631e-001
1.303698e+003,3.080075e-001
1.307556e+003,3.024978e-001
1.311413e+003,2.962230e-001
1.315270e+003,2.906622e-001
1.319127e+003,2.870637e-001
1.322984e+003,2.855699e-001
1.326841e+003,2.851835e-001
1.330698e+003,2.805932e-001
1.334555e+003,2.777938e-001
1.338412e+003,2.785971e-001
1.342270e+003,2.784375e-001
1.346127e+003,2.788795e-001
1.349984e+003,2.808018e-001
1.353841e+003,2.821805e-001
1.357698e+003,2.860118e-001
1.361555e+003,2.897373e-001
1.365412e+003,2.915138e-001
1.369269e+003,2.938734e-001
1.373126e+003,2.954325e-001
1.376983e+003,3.010435e-001
1.380840e+003,3.080631e-001
1.384698e+003,3.116921e-001
1.388555e+003,3.181173e-001
1.392412e+003,3.243071e-001
1.396269e+003,3.294341e-001
1.400126e+003,3.372578e-001
1.403983e+003,3.455232e-001
1.407840e+003,3.545870e-001
1.411697e+003,3.660052e-001
1.415554e+003,3.752892e-001
1.419411e+003,3.812525e-001
1.423269e+003,3.860219e-001
1.427126e+003,3.916542e-001
1.430983e+003,3.957543e-001
1.434840e+003,3.976007e-001
1.438697e+003,3.958757e-001
1.442554e+003,3.929893e-001
1.446411e+003,3.892359e-001
1.450268e+003,3.839788e-001
1.454125e+003,3.780225e-001
1.457982e+003,3.715280e-001
1.461839e+003,3.687436e-001
1.465697e+003,3.672362e-001
1.469554e+003,3.666121e-001
1.473411e+003,3.677250e-001
1.477268e+003,3.701630e-001
1.481125e+003,3.760493e-001
1.484982e+003,3.830415e-001
1.488839e+003,3.899703e-001
1.492696e+003,3.967708e-001
1.496553e+003,4.015107e-001
1.500411e+003,4.044121e-001
1.504268e+003,4.077539e-001
1.508125e+003,4.059939e-001
1.511982e+003,4.029329e-001
1.515839e+003,4.003958e-001
1.519696e+003,3.970213e-001
1.523553e+003,3.922714e-001
1.527410e+003,3.851061e-001
1.531267e+003,3.766425e-001
1.535124e+003,3.703696e-001
1.538981e+003,3.628090e-001
1.542839e+003,3.524513e-001
1.546696e+003,3.442287e-001
1.550553e+003,3.352319e-001
1.554410e+003,3.275766e-001
1.558267e+003,3.223914e-001
1.562124e+003,3.180436e-001
1.565981e+003,3.139672e-001
1.569838e+003,3.115079e-001
1.573695e+003,3.122403e-001
1.577552e+003,3.132796e-001
1.581410e+003,3.146639e-001
1.585267e+003,3.167889e-001
1.589124e+003,3.189951e-001
1.592981e+003,3.235648e-001
1.596838e+003,3.311126e-001
1.600695e+003,3.405659e-001
1.604552e+003,3.534684e-001
1.608409e+003,3.681985e-001
1.612266e+003,3.840533e-001
1.616123e+003,3.991410e-001
1.619980e+003,4.143440e-001
1.623838e+003,4.295882e-001
1.627695e+003,4.440941e-001
1.631552e+003,4.568694e-001
1.635409e+003,4.620648e-001
1.639266e+003,4.611537e-001
1.643123e+003,4.571477e-001
1.646980e+003,4.499841e-001
1.650837e+003,4.385802e-001
1.654694e+003,4.250872e-001
1.658551e+003,4.103658e-001
1.662409e+003,3.954313e-001
1.666266e+003,3.795358e-001
1.670123e+003,3.635031e-001
1.673980e+003,3.471669e-001
1.677837e+003,3.338457e-001
1.681694e+003,3.205770e-001
1.685551e+003,3.054722e-001
1.689408e+003,2.941632e-001
1.693265e+003,2.872328e-001
1.697122e+003,2.814973e-001
1.700979e+003,2.762807e-001
1.704837e+003,2.712063e-001
1.708694e+003,2.671219e-001
1.712551e+003,2.642884e-001
1.716408e+003,2.618511e-001
1.720265e+003,2.611956e-001
1.724122e+003,2.626093e-001
1.727979e+003,2.632488e-001
1.731836e+003,2.626111e-001
1.735693e+003,2.625121e-001
1.739550e+003,2.629912e-001
1.743408e+003,2.654721e-001
1.747265e+003,2.665671e-001
1.751122e+003,2.670751e-001
1.754979e+003,2.680069e-001
1.758836e+003,2.684193e-001
1.762693e+003,2.684937e-001
1.766550e+003,2.692556e-001
1.770407e+003,2.678223e-001
1.774264e+003,2.662242e-001
1.778121e+003,2.653716e-001
1.781979e+003,2.616694e-001
1.785836e+003,2.583197e-001
1.789693e+003,2.564700e-001
1.793550e+003,2.529958e-001
1.797407e+003,2.473730e-001
1.801264e+003,2.426439e-001
1.805121e+003,2.398525e-001
1.808978e+003,2.368005e-001
1.812835e+003,2.337013e-001
1.816692e+003,2.311931e-001
1.820549e+003,2.281833e-001
1.824407e+003,2.263104e-001
1.828264e+003,2.278773e-001
1.832121e+003,2.281715e-001
1.835978e+003,2.274603e-001
1.839835e+003,2.279556e-001
1.843692e+003,2.283160e-001
1.847549e+003,2.276271e-001
1.851406e+003,2.275050e-001
1.855263e+003,2.295267e-001
1.859120e+003,2.300511e-001
1.862978e+003,2.312756e-001
1.866835e+003,2.337490e-001
1.870692e+003,2.354021e-001
1.874549e+003,2.372161e-001
1.878406e+003,2.407238e-001
1.882263e+003,2.412328e-001
1.886120e+003,2.422666e-001
1.889977e+003,2.437387e-001
1.893834e+003,2.442505e-001
1.897691e+003,2.432826e-001
1.901548e+003,2.416558e-001
1.905406e+003,2.412210e-001
1.909263e+003,2.414285e-001
1.913120e+003,2.430664e-001
1.916977e+003,2.428920e-001
1.920834e+003,2.406190e-001
1.924691e+003,2.382035e-001
1.928548e+003,2.353552e-001
1.932405e+003,2.313152e-001
1.936262e+003,2.281067e-001
1.940119e+003,2.263305e-001
1.943977e+003,2.234624e-001
1.947834e+003,2.198044e-001
1.951691e+003,2.164486e-001
1.955548e+003,2.135507e-001
1.959405e+003,2.119699e-001
1.963262e+003,2.109779e-001
1.967119e+003,2.093441e-001
1.970976e+003,2.073174e-001
1.974833e+003,2.050186e-001
1.978690e+003,2.048847e-001
1.982547e+003,2.050282e-001
1.986405e+003,2.048725e-001
1.990262e+003,2.070052e-001
1.994119e+003,2.072234e-001
1.997976e+003,2.057521e-001
2.001833e+003,2.066447e-001
2.005690e+003,2.091222e-001
2.009547e+003,2.107628e-001
2.013404e+003,2.131778e-001
2.017261e+003,2.158670e-001
2.021118e+003,2.184321e-001
2.024976e+003,2.204120e-001
2.028833e+003,2.217933e-001
2.032690e+003,2.221534e-001
2.036547e+003,2.223695e-001
2.040404e+003,2.232064e-001
2.044261e+003,2.244210e-001
2.048118e+003,2.247609e-001
2.051975e+003,2.239089e-001
2.055832e+003,2.244975e-001
2.059689e+003,2.245546e-001
2.063546e+003,2.238671e-001
2.067404e+003,2.221120e-001
2.071261e+003,2.191898e-001
2.075118e+003,2.178084e-001
2.078975e+003,2.175314e-001
2.082832e+003,2.160524e-001
2.086689e+003,2.128471e-001
2.090546e+003,2.087062e-001
2.094403e+003,2.061565e-001
2.098260e+003,2.035573e-001
2.102117e+003,2.024590e-001
2.105975e+003,2.021128e-001
2.109832e+003,2.001246e-001
2.113689e+003,1.990704e-001
2.117546e+003,1.977035e-001
2.121403e+003,1.951527e-001
2.125260e+003,1.946980e-001
2.129117e+003,1.964068e-001
2.132974e+003,1.970476e-001
2.136831e+003,1.969722e-001
2.140688e+003,1.978622e-001
2.144545e+003,1.995890e-001
2.148403e+003,2.000107e-001
2.152260e+003,2.014429e-001
2.156117e+003,2.038353e-001
2.159974e+003,2.060074e-001
2.163831e+003,2.090906e-001
2.167688e+003,2.114980e-001
2.171545e+003,2.126576e-001
2.175402e+003,2.133780e-001
2.179259e+003,2.145140e-001
2.183116e+003,2.161190e-001
2.186974e+003,2.180175e-001
2.190831e+003,2.208880e-001
2.194688e+003,2.228807e-001
2.198545e+003,2.233676e-001
2.202402e+003,2.247539e-001
2.206259e+003,2.252343e-001
2.210116e+003,2.246719e-001
2.213973e+003,2.246095e-001
2.217830e+003,2.237065e-001
2.221688e+003,2.232028e-001
2.225544e+003,2.217228e-001
2.229402e+003,2.198182e-001
2.233259e+003,2.193487e-001
2.237116e+003,2.192303e-001
2.240973e+003,2.178343e-001
2.244830e+003,2.143842e-001
2.248687e+003,2.129539e-001
2.252544e+003,2.124576e-001
2.256401e+003,2.102691e-001
2.260258e+003,2.081022e-001
2.264115e+003,2.084641e-001
2.267973e+003,2.081055e-001
2.271830e+003,2.076266e-001
2.275687e+003,2.067551e-001
2.279544e+003,2.053285e-001
2.283401e+003,2.054085e-001
2.287258e+003,2.071776e-001
2.291115e+003,2.075061e-001
2.294972e+003,2.085759e-001
2.298829e+003,2.110817e-001
2.302687e+003,2.120471e-001
2.306543e+003,2.147193e-001
2.310401e+003,2.186065e-001
2.314258e+003,2.205755e-001
2.318115e+003,2.234231e-001
2.321972e+003,2.270863e-001
2.325829e+003,2.288635e-001
2.329686e+003,2.300832e-001
2.333543e+003,2.307544e-001
2.337400e+003,2.316266e-001
2.341257e+003,2.331967e-001
2.345115e+003,2.338357e-001
2.348972e+003,2.339885e-001
2.352829e+003,2.350489e-001
2.356686e+003,2.365852e-001
2.360543e+003,2.367191e-001
2.364400e+003,2.355277e-001
2.368257e+003,2.358883e-001
2.372114e+003,2.346282e-001
2.375971e+003,2.320547e-001
2.379828e+003,2.301908e-001
2.383686e+003,2.290497e-001
2.387542e+003,2.282016e-001
2.391400e+003,2.250936e-001
2.395257e+003,2.236354e-001
2.399114e+003,2.222328e-001
2.402971e+003,2.200113e-001
2.406828e+003,2.189499e-001
2.410685e+003,2.170906e-001
2.414542e+003,2.136995e-001
2.418399e+003,2.114758e-001
2.422256e+003,2.111839e-001
2.426114e+003,2.105075e-001
2.429971e+003,2.097367e-001
2.433828e+003,2.092420e-001
2.437685e+003,2.091743e-001
2.441542e+003,2.090056e-001
2.445399e+003,2.102351e-001
2.449256e+003,2.111553e-001
2.453113e+003,2.112266e-001
2.456970e+003,2.113897e-001
2.460827e+003,2.124489e-001
2.464684e+003,2.143105e-001
2.468542e+003,2.163484e-001
2.472399e+003,2.188416e-001
2.476256e+003,2.208321e-001
2.480113e+003,2.222432e-001
2.483970e+003,2.231854e-001
2.487827e+003,2.238329e-001
2.491684e+003,2.249127e-001
2.495541e+003,2.273028e-001
2.499398e+003,2.285906e-001
2.503255e+003,2.288023e-001
2.507113e+003,2.289657e-001
2.510969e+003,2.297257e-001
2.514827e+003,2.316368e-001
2.518684e+003,2.315131e-001
2.522541e+003,2.306098e-001
2.526398e+003,2.299660e-001
2.530255e+003,2.291717e-001
2.534112e+003,2.283155e-001
2.537969e+003,2.279963e-001
2.541826e+003,2.278388e-001
2.545683e+003,2.268463e-001
2.549541e+003,2.252345e-001
2.553398e+003,2.241802e-001
2.557255e+003,2.227055e-001
2.561112e+003,2.223721e-001
2.564969e+003,2.222753e-001
2.568826e+003,2.229044e-001
2.572683e+003,2.219454e-001
2.576540e+003,2.218050e-001
2.580397e+003,2.226483e-001
2.584254e+003,2.222753e-001
2.588112e+003,2.225053e-001
2.591969e+003,2.225750e-001
2.595826e+003,2.233234e-001
2.599683e+003,2.261826e-001
2.603540e+003,2.286794e-001
2.607397e+003,2.298077e-001
2.611254e+003,2.315611e-001
2.615111e+003,2.338255e-001
2.618968e+003,2.364992e-001
2.622825e+003,2.394367e-001
2.626682e+003,2.420055e-001
2.630540e+003,2.453469e-001
2.634397e+003,2.481987e-001
2.638254e+003,2.507080e-001
2.642111e+003,2.530721e-001
2.645968e+003,2.553225e-001
2.649825e+003,2.579233e-001
2.653682e+003,2.603368e-001
2.657539e+003,2.625508e-001
2.661396e+003,2.641703e-001
2.665253e+003,2.663392e-001
2.669111e+003,2.674817e-001
2.672968e+003,2.672251e-001
2.676825e+003,2.672584e-001
2.680682e+003,2.680393e-001
2.684539e+003,2.699936e-001
2.688396e+003,2.712592e-001
2.692253e+003,2.723403e-001
2.696110e+003,2.740104e-001
2.699967e+003,2.742269e-001
2.703824e+003,2.742870e-001
2.707681e+003,2.741327e-001
2.711539e+003,2.746070e-001
2.715396e+003,2.764065e-001
2.719253e+003,2.772543e-001
2.723110e+003,2.779521e-001
2.726967e+003,2.798084e-001
2.730824e+003,2.817878e-001
2.734681e+003,2.824210e-001
2.738538e+003,2.828588e-001
2.742395e+003,2.853140e-001
2.746252e+003,2.879775e-001
2.750110e+003,2.905432e-001
2.753967e+003,2.930529e-001
2.757824e+003,2.943486e-001
2.761681e+003,2.967471e-001
2.765538e+003,3.001882e-001
2.769395e+003,3.054737e-001
2.773252e+003,3.089468e-001
2.777109e+003,3.112691e-001
2.780966e+003,3.147972e-001
2.784823e+003,3.184812e-001
2.788680e+003,3.195098e-001
2.792538e+003,3.215255e-001
2.796395e+003,3.257324e-001
2.800252e+003,3.288093e-001
2.804109e+003,3.302873e-001
2.807966e+003,3.331576e-001
2.811823e+003,3.358806e-001
2.815680e+003,3.382938e-001
2.819537e+003,3.417907e-001
2.823394e+003,3.435011e-001
2.827251e+003,3.456825e-001
2.831109e+003,3.479888e-001
2.834966e+003,3.512776e-001
2.838823e+003,3.540179e-001
2.842680e+003,3.553190e-001
2.846537e+003,3.594605e-001
2.850394e+003,3.604478e-001
2.854251e+003,3.606101e-001
2.858108e+003,3.635097e-001
2.861965e+003,3.666296e-001
2.865823e+003,3.680237e-001
2.869679e+003,3.689423e-001
2.873537e+003,3.709797e-001
2.877394e+003,3.725650e-001
2.881251e+003,3.748606e-001
2.885108e+003,3.787932e-001
2.888965e+003,3.808841e-001
2.892822e+003,3.822802e-001
2.896679e+003,3.849708e-001
2.900536e+003,3.895341e-001
2.904393e+003,3.949743e-001
2.908250e+003,3.993985e-001
2.912108e+003,4.051362e-001
2.915965e+003,4.075600e-001
2.919822e+003,4.100527e-001
2.923679e+003,4.158112e-001
2.927536e+003,4.183280e-001
2.931393e+003,4.201934e-001
2.935250e+003,4.249246e-001
2.939107e+003,4.292945e-001
2.942964e+003,4.308185e-001
2.946822e+003,4.342880e-001
2.950678e+003,4.376981e-001
2.954536e+003,4.401178e-001
2.958393e+003,4.450037e-001
2.962250e+003,4.501255e-001
2.966107e+003,4.519190e-001
2.969964e+003,4.543430e-001
2.973821e+003,4.578024e-001
2.977678e+003,4.615707e-001
2.981535e+003,4.652812e-001
2.985392e+003,4.667101e-001
2.989250e+003,4.658079e-001
2.993107e+003,4.674243e-001
2.996964e+003,4.733346e-001
3.000821e+003,4.781391e-001
3.004678e+003,4.811358e-001
3.008535e+003,4.844140e-001
3.012392e+003,4.866042e-001
3.016249e+003,4.893828e-001
3.020106e+003,4.956617e-001
3.023963e+003,4.989837e-001
3.027821e+003,5.000346e-001
3.031677e+003,5.022112e-001
3.035535e+003,5.064826e-001
3.039392e+003,5.121916e-001
3.043249e+003,5.155336e-001
3.047106e+003,5.198512e-001
3.050963e+003,5.243036e-001
3.054820e+003,5.283117e-001
3.058677e+003,5.335901e-001
3.062534e+003,5.399378e-001
3.066391e+003,5.440136e-001
3.070249e+003,5.482599e-001
3.074106e+003,5.545261e-001
3.077963e+003,5.593390e-001
3.081820e+003,5.601951e-001
3.085677e+003,5.633150e-001
3.089534e+003,5.691265e-001
3.093391e+003,5.740699e-001
3.097248e+003,5.812694e-001
3.101105e+003,5.846188e-001
3.104962e+003,5.876530e-001
3.108820e+003,5.935637e-001
3.112677e+003,5.988835e-001
3.116534e+003,6.028879e-001
3.120391e+003,6.079464e-001
3.124248e+003,6.088061e-001
3.128105e+003,6.122956e-001
3.131962e+003,6.182530e-001
3.135819e+003,6.234252e-001
3.139676e+003,6.266009e-001
3.143533e+003,6.315709e-001
3.147390e+003,6.393763e-001
3.151248e+003,6.412417e-001
3.155105e+003,6.441286e-001
3.158962e+003,6.507211e-001
3.162819e+003,6.558983e-001
3.166676e+003,6.617594e-001
3.170533e+003,6.685449e-001
3.174390e+003,6.699226e-001
3.178247e+003,6.741612e-001
3.182104e+003,6.782044e-001
3.185961e+003,6.804209e-001
3.189819e+003,6.891447e-001
3.193676e+003,6.980171e-001
3.197533e+003,7.034939e-001
3.201390e+003,7.068017e-001
3.205247e+003,7.088602e-001
3.209104e+003,7.138054e-001
3.212961e+003,7.193270e-001
3.216818e+003,7.235017e-001
3.220675e+003,7.273101e-001
3.224532e+003,7.336257e-001
3.228389e+003,7.433184e-001
3.232247e+003,7.433981e-001
3.236104e+003,7.413309e-001
3.239961e+003,7.501662e-001
3.243818e+003,7.573045e-001
3.247675e+003,7.584090e-001
3.251532e+003,7.592396e-001
3.255389e+003,7.602301e-001
3.259246e+003,7.636765e-001
3.263103e+003,7.690147e-001
3.266960e+003,7.714071e-001
3.270818e+003,7.709581e-001
3.274675e+003,7.743239e-001
3.278532e+003,7.792313e-001
3.282389e+003,7.797599e-001
3.286246e+003,7.815006e-001
3.290103e+003,7.889512e-001
3.293960e+003,7.953072e-001
3.297817e+003,7.963198e-001
3.301674e+003,8.035135e-001
3.305531e+003,8.079726e-001
3.309388e+003,8.103627e-001
3.313246e+003,8.114607e-001
3.317103e+003,8.160711e-001
3.320960e+003,8.272409e-001
3.324817e+003,8.273425e-001
3.328674e+003,8.255807e-001
3.332531e+003,8.301103e-001
3.336388e+003,8.379454e-001
3.340245e+003,8.446250e-001
3.344102e+003,8.541762e-001
3.347959e+003,8.628119e-001
3.351817e+003,8.719261e-001
3.355674e+003,8.732262e-001
3.359531e+003,8.725315e-001
3.363388e+003,8.738382e-001
3.367245e+003,8.823428e-001
3.371102e+003,8.923605e-001
3.374959e+003,8.986158e-001
3.378816e+003,9.034780e-001
3.382673e+003,9.046891e-001
3.386530e+003,9.007741e-001
3.390387e+003,9.040794e-001
3.394245e+003,9.152637e-001
3.398102e+003,9.166011e-001
3.401959e+003,9.148248e-001
3.405816e+003,9.168662e-001
3.409673e+003,9.175770e-001
3.413530e+003,9.191813e-001
3.417387e+003,9.250088e-001
3.421244e+003,9.278655e-001
3.425101e+003,9.269425e-001
3.428958e+003,9.318271e-001
3.432815e+003,9.385977e-001
3.436673e+003,9.396994e-001
3.440530e+003,9.409193e-001
3.444387e+003,9.406669e-001
3.448244e+003,9.348094e-001
3.452101e+003,9.321266e-001
3.455958e+003,9.341258e-001
3.459815e+003,9.396465e-001
3.463672e+003,9.423358e-001
3.467529e+003,9.317364e-001
3.471386e+003,9.369984e-001
3.475244e+003,9.473338e-001
3.479101e+003,9.413362e-001
3.482958e+003,9.340190e-001
3.486815e+003,9.318473e-001
3.490672e+003,9.460075e-001
3.494529e+003,9.570423e-001
3.498386e+003,9.503484e-001
3.502243e+003,9.442409e-001
3.506100e+003,9.433991e-001
3.509958e+003,9.422312e-001
3.513814e+003,9.422109e-001
3.517672e+003,9.460564e-001
3.521529e+003,9.469355e-001
3.525386e+003,9.384792e-001
3.529243e+003,9.354166e-001
3.533100e+003,9.402588e-001
3.536957e+003,9.398417e-001
3.540814e+003,9.333849e-001
3.544671e+003,9.311588e-001
3.548528e+003,9.343973e-001
3.552385e+003,9.328612e-001
3.556243e+003,9.216003e-001
3.560100e+003,9.127005e-001
3.563957e+003,9.026552e-001
3.567814e+003,8.905934e-001
3.571671e+003,8.829224e-001
3.575528e+003,8.732596e-001
3.579385e+003,8.591933e-001
3.583242e+003,8.485661e-001
3.587099e+003,8.298888e-001
3.590957e+003,8.052886e-001
3.594813e+003,7.825177e-001
3.598671e+003,7.571697e-001
3.602528e+003,7.308999e-001
3.606385e+003,7.097861e-001
3.610242e+003,6.827346e-001
3.614099e+003,6.454933e-001
3.617956e+003,6.130445e-001
3.621813e+003,5.847636e-001
3.625670e+003,5.566347e-001
3.629527e+003,5.261999e-001
3.633385e+003,4.908812e-001
3.637242e+003,4.547849e-001
3.641099e+003,4.225225e-001
3.644956e+003,3.923617e-001
3.648813e+003,3.625068e-001
3.652670e+003,3.349930e-001
3.656527e+003,3.114195e-001
3.660384e+003,2.890902e-001
3.664241e+003,2.678362e-001
3.668098e+003,2.478409e-001
3.671956e+003,2.303061e-001
3.675813e+003,2.164457e-001
3.679670e+003,2.061709e-001
3.683527e+003,1.976932e-001
3.687384e+003,1.895488e-001
3.691241e+003,1.814679e-001
3.695098e+003,1.734617e-001
3.698955e+003,1.672611e-001
3.702812e+003,1.620903e-001
3.706669e+003,1.556821e-001
3.710526e+003,1.509917e-001
3.714384e+003,1.472900e-001
3.718241e+003,1.429752e-001
3.722098e+003,1.412994e-001
3.725955e+003,1.397046e-001
3.729812e+003,1.346795e-001
3.733669e+003,1.310164e-001
3.737526e+003,1.290043e-001
3.741383e+003,1.279640e-001
3.745240e+003,1.270033e-001
3.749097e+003,1.238312e-001
3.752955e+003,1.209021e-001
3.756812e+003,1.201178e-001
3.760669e+003,1.204184e-001
3.764526e+003,1.208068e-001
3.768383e+003,1.208157e-001
3.772240e+003,1.195215e-001
3.776097e+003,1.164619e-001
3.779954e+003,1.145156e-001
3.783811e+003,1.159750e-001
3.787668e+003,1.175260e-001
3.791525e+003,1.178885e-001
3.795383e+003,1.173155e-001
3.799240e+003,1.162937e-001
3.803097e+003,1.154326e-001
3.806954e+003,1.162012e-001
3.810811e+003,1.161395e-001
3.814668e+003,1.169397e-001
3.818525e+003,1.172926e-001
3.822382e+003,1.175751e-001
3.826239e+003,1.157332e-001
3.830096e+003,1.149784e-001
3.833954e+003,1.166914e-001
3.837811e+003,1.178263e-001
3.841668e+003,1.172251e-001
3.845525e+003,1.165659e-001
3.849382e+003,1.164252e-001
3.853239e+003,1.168537e-001
3.857096e+003,1.160242e-001
3.860953e+003,1.153839e-001
3.864810e+003,1.161408e-001
3.868667e+003,1.155634e-001
3.872524e+003,1.129719e-001
3.876382e+003,1.113539e-001
3.880239e+003,1.125338e-001
3.884096e+003,1.127186e-001
3.887953e+003,1.105344e-001
3.891810e+003,1.089698e-001
3.895667e+003,1.080999e-001
3.899524e+003,1.075754e-001
3.903381e+003,1.088003e-001
3.907238e+003,1.088492e-001
3.911095e+003,1.090249e-001
3.914953e+003,1.086493e-001
3.918810e+003,1.079915e-001
3.922667e+003,1.069910e-001
3.926524e+003,1.070469e-001
3.930381e+003,1.088558e-001
3.934238e+003,1.076999e-001
3.938095e+003,1.055594e-001
3.941952e+003,1.075230e-001
3.945809e+003,1.091393e-001
3.949667e+003,1.089013e-001
3.953523e+003,1.091052e-001
3.957381e+003,1.088087e-001
3.961238e+003,1.077926e-001
3.965095e+003,1.073094e-001
3.968952e+003,1.085480e-001
3.972809e+003,1.089356e-001
3.976666e+003,1.072447e-001
3.980523e+003,1.054823e-001
3.984380e+003,1.067209e-001
3.988237e+003,1.090571e-001
3.992094e+003,1.109783e-001
3.995952e+003,1.103622e-001
3.999809e+003,1.100161e-001
4.003666e+003,1.090587e-001
4.007523e+003,1.066186e-001
4.011380e+003,1.050083e-001
4.015237e+003,1.043575e-001
4.019094e+003,1.054474e-001
4.022951e+003,1.067891e-001
4.026808e+003,1.067349e-001
4.030666e+003,1.070045e-001
4.034522e+003,1.058475e-001
4.038380e+003,1.022423e-001
4.042237e+003,1.002986e-001
4.046094e+003,1.009112e-001
4.049951e+003,1.015195e-001
4.053808e+003,9.987742e-002
4.057665e+003,9.949227e-002
4.061522e+003,1.008444e-001
4.065379e+003,1.015204e-001
4.069236e+003,1.001941e-001
4.073094e+003,9.852161e-002
4.076951e+003,9.785370e-002
4.080808e+003,9.903171e-002
4.084665e+003,1.012312e-001
4.088522e+003,9.961557e-002
4.092379e+003,9.641424e-002
4.096236e+003,9.659970e-002
4.100093e+003,9.710228e-002
4.103950e+003,9.716841e-002
4.107808e+003,9.649280e-002
4.111665e+003,9.724090e-002
4.115521e+003,9.864414e-002
4.119379e+003,9.757502e-002
4.123236e+003,9.779186e-002
4.127093e+003,9.925689e-002
4.130950e+003,1.009701e-001
4.134807e+003,1.003675e-001
4.138664e+003,9.969018e-002
4.142521e+003,9.692372e-002
4.146378e+003,9.455717e-002
4.150235e+003,9.586266e-002
4.154093e+003,9.664937e-002
4.157950e+003,9.691568e-002
4.161807e+003,9.685571e-002
4.165664e+003,9.751920e-002
4.169521e+003,9.760004e-002
4.173378e+003,9.539446e-002
4.177235e+003,9.529298e-002
4.181092e+003,9.508118e-002
4.184949e+003,9.541906e-002
4.188807e+003,9.695383e-002
4.192664e+003,9.605211e-002
4.196521e+003,9.467203e-002
4.200378e+003,9.281003e-002
4.204235e+003,9.141776e-002
4.208092e+003,9.097617e-002
4.211949e+003,9.021370e-002
4.215806e+003,9.047447e-002
4.219663e+003,9.104036e-002
4.223521e+003,9.142990e-002
4.227377e+003,9.162360e-002
4.231234e+003,9.172554e-002
4.235092e+003,9.172721e-002
4.238949e+003,8.889866e-002
4.242806e+003,8.743042e-002
4.246663e+003,8.780096e-002
4.250520e+003,8.558397e-002
4.254377e+003,8.551413e-002
4.258234e+003,8.722290e-002
4.262091e+003,8.897837e-002
4.265948e+003,8.942513e-002
4.269806e+003,8.957618e-002
4.273663e+003,8.900732e-002
4.277520e+003,8.852097e-002
4.281377e+003,8.980785e-002
4.285234e+003,9.161300e-002
4.289091e+003,9.023703e-002
4.292948e+003,8.814815e-002
4.296805e+003,8.831984e-002
4.300662e+003,8.951975e-002
4.304520e+003,9.117752e-002
4.308376e+003,9.006535e-002
4.312233e+003,8.923852e-002
4.316091e+003,9.021048e-002
4.319948e+003,9.064704e-002
4.323805e+003,9.027696e-002
4.327662e+003,8.844554e-002
4.331519e+003,8.627582e-002
4.335376e+003,8.622304e-002
4.339233e+003,8.692805e-002
4.343090e+003,8.625836e-002
4.346947e+003,8.591595e-002
4.350805e+003,8.572728e-002
4.354662e+003,8.757093e-002
4.358519e+003,8.921251e-002
4.362376e+003,8.886288e-002
4.366233e+003,8.912585e-002
4.370090e+003,8.912280e-002
4.373947e+003,8.903213e-002
4.377804e+003,8.959366e-002
4.381661e+003,8.835720e-002
4.385519e+003,8.820924e-002
4.389375e+003,9.151306e-002
4.393232e+003,9.130138e-002
4.397090e+003,8.895486e-002
4.400947e+003,9.061401e-002
4.404804e+003,9.076227e-002
4.408661e+003,9.050108e-002
4.412518e+003,8.939199e-002
4.416375e+003,8.779231e-002
4.420232e+003,8.910067e-002
4.424089e+003,9.058099e-002
4.427946e+003,8.979306e-002
4.431804e+003,8.949076e-002
4.435661e+003,8.968954e-002
4.439518e+003,8.961923e-002
4.443375e+003,9.030123e-002
4.447232e+003,9.050716e-002
4.451089e+003,8.939964e-002
4.454946e+003,8.890180e-002
4.458803e+003,8.985581e-002
4.462660e+003,8.909892e-002
4.466518e+003,8.803418e-002
4.470375e+003,8.740148e-002
4.474231e+003,9.136219e-002
4.478089e+003,9.296704e-002
4.481946e+003,9.057630e-002
4.485803e+003,8.969357e-002
4.489660e+003,9.117665e-002
4.493517e+003,8.967292e-002
4.497375e+003,8.702954e-002
4.501231e+003,8.737527e-002
4.505088e+003,8.846308e-002
4.508946e+003,8.978800e-002
4.512803e+003,8.895478e-002
4.516660e+003,8.708448e-002
4.520517e+003,8.531447e-002
4.524374e+003,8.478546e-002
4.528231e+003,8.504751e-002
4.532088e+003,8.630820e-002
4.535945e+003,8.823697e-002
4.539802e+003,8.703922e-002
4.543660e+003,8.287626e-002
4.547517e+003,8.131826e-002
4.551374e+003,8.345084e-002
4.555231e+003,8.778267e-002
4.559088e+003,8.804307e-002
4.562945e+003,8.712542e-002
4.566802e+003,8.427071e-002
4.570659e+003,8.104524e-002
4.574516e+003,8.314008e-002
4.578374e+003,8.685399e-002
4.582230e+003,8.797279e-002
4.586087e+003,8.525684e-002
4.589945e+003,8.351646e-002
4.593802e+003,8.377532e-002
4.597659e+003,8.306605e-002
4.601516e+003,8.256699e-002
4.605373e+003,8.168482e-002
4.609230e+003,8.209968e-002
4.613087e+003,8.350685e-002
4.616944e+003,8.339214e-002
4.620801e+003,8.384074e-002
4.624659e+003,8.419769e-002
4.628516e+003,8.360092e-002
4.632373e+003,8.066227e-002
4.636230e+003,7.957855e-002
4.640087e+003,8.233091e-002
4.643944e+003,8.235614e-002
4.647801e+003,8.111692e-002
4.651658e+003,7.945722e-002
4.655515e+003,7.695102e-002
4.659373e+003,7.796217e-002
4.663229e+003,7.984531e-002
4.667086e+003,7.930522e-002
4.670944e+003,7.918072e-002
4.674801e+003,8.084335e-002
4.678658e+003,8.109528e-002
4.682515e+003,8.191735e-002
4.686372e+003,8.341257e-002
4.690229e+003,8.688604e-002
4.694086e+003,8.668130e-002
4.697943e+003,8.590169e-002
4.701800e+003,8.128014e-002
4.705658e+003,7.786790e-002
4.709515e+003,7.899193e-002
4.713372e+003,8.269452e-002
4.717229e+003,8.310806e-002
4.721086e+003,8.152161e-002
4.724943e+003,8.219416e-002
4.728800e+003,8.210677e-002
4.732657e+003,8.202995e-002
4.736514e+003,8.099501e-002
4.740372e+003,7.942674e-002
4.744229e+003,8.319293e-002
4.748085e+003,8.250035e-002
4.751943e+003,7.931036e-002
4.755800e+003,8.000726e-002
4.759657e+003,7.854398e-002
4.763514e+003,7.740759e-002
4.767371e+003,8.049843e-002
4.771228e+003,8.241735e-002
4.775085e+003,8.338612e-002
4.778942e+003,8.168638e-002
4.782799e+003,8.023745e-002
4.786657e+003,7.618184e-002
4.790514e+003,7.744355e-002
4.794371e+003,7.910109e-002
4.798228e+003,8.025726e-002
4.802085e+003,8.170713e-002
4.805942e+003,8.355601e-002
4.809799e+003,8.531132e-002
4.813656e+003,8.164264e-002
4.817513e+003,7.804310e-002
4.821371e+003,7.840250e-002
4.825228e+003,8.302490e-002
4.829084e+003,8.426970e-002
4.832942e+003,8.591256e-002
4.836799e+003,8.460739e-002
4.840656e+003,8.429524e-002
4.844513e+003,8.329242e-002
4.848370e+003,8.313213e-002
4.852227e+003,8.488980e-002
4.856084e+003,8.569007e-002
4.859941e+003,8.614796e-002
4.863798e+003,8.607201e-002
4.867656e+003,8.082224e-002
4.871513e+003,7.944378e-002
4.875370e+003,8.384299e-002
4.879227e+003,8.365045e-002
4.883084e+003,8.319674e-002
4.886941e+003,8.410837e-002
4.890798e+003,8.432832e-002
4.894655e+003,8.395670e-002
4.898512e+003,8.368415e-002
4.902370e+003,8.393195e-002
4.906227e+003,8.262879e-002
4.910083e+003,8.245709e-002
4.913941e+003,8.423240e-002
4.917798e+003,8.284161e-002
4.921655e+003,7.776952e-002
4.925512e+003,7.723505e-002
4.929369e+003,8.096471e-002
4.933226e+003,8.577342e-002
4.937083e+003,8.500076e-002
4.940940e+003,7.953815e-002
4.944797e+003,8.072359e-002
4.948655e+003,8.597277e-002
4.952512e+003,8.935837e-002
4.956369e+003,8.402851e-002
4.960226e+003,8.061686e-002
4.964083e+003,8.259536e-002
4.967940e+003,8.329515e-002
4.971797e+003,8.620049e-002
4.975654e+003,8.564749e-002
4.979511e+003,8.123364e-002
4.983369e+003,8.065744e-002
4.987226e+003,8.166119e-002
4.991083e+003,8.450909e-002
4.994940e+003,8.453207e-002
4.998797e+003,8.385132e-002
5.002654e+003,8.371573e-002
5.006511e+003,8.331859e-002
5.010368e+003,8.567566e-002
5.014225e+003,8.899109e-002
5.018083e+003,8.429653e-002
5.021939e+003,8.449500e-002
5.025796e+003,8.648199e-002
5.029654e+003,8.521426e-002
5.033511e+003,8.623112e-002
5.037368e+003,8.653133e-002
5.041225e+003,8.249442e-002
5.045082e+003,8.101413e-002
5.048939e+003,8.191483e-002
5.052796e+003,8.287730e-002
5.056653e+003,8.330575e-002
5.060510e+003,8.214932e-002
5.064368e+003,8.140805e-002
5.068225e+003,7.844929e-002
5.072082e+003,7.928721e-002
5.075939e+003,8.068509e-002
5.079796e+003,7.896423e-002
5.083653e+003,8.144426e-002
5.087510e+003,8.395796e-002
5.091367e+003,8.311677e-002
5.095224e+003,8.463953e-002
5.099082e+003,8.432932e-002
5.102938e+003,8.347071e-002
5.106795e+003,8.515622e-002
5.110653e+003,8.597039e-002
5.114510e+003,8.276459e-002
5.118367e+003,8.276255e-002
5.122224e+003,8.285172e-002
5.126081e+003,8.318927e-002
5.129938e+003,8.234537e-002
5.133795e+003,8.099880e-002
5.137652e+003,8.248293e-002
5.141509e+003,8.373626e-002
5.145367e+003,8.494568e-002
5.149224e+003,8.724814e-002
5.153081e+003,8.995737e-002
5.156938e+003,8.766475e-002
5.160795e+003,8.793883e-002
5.164652e+003,8.670982e-002
5.168509e+003,8.761407e-002
5.172366e+003,8.613350e-002
5.176223e+003,8.412071e-002
5.180081e+003,8.491691e-002
5.183938e+003,8.514424e-002
5.187794e+003,8.518129e-002
5.191652e+003,8.790143e-002
5.195509e+003,9.191277e-002
5.199366e+003,9.162471e-002
5.203223e+003,8.890594e-002
5.207080e+003,8.612130e-002
5.210937e+003,8.585712e-002
5.214794e+003,8.778064e-002
5.218651e+003,8.573624e-002
5.222508e+003,8.404073e-002
5.226366e+003,8.162615e-002
5.230223e+003,8.190563e-002
5.234080e+003,8.559361e-002
5.237937e+003,8.783133e-002
5.241794e+003,8.410966e-002
5.245651e+003,7.801217e-002
5.249508e+003,7.843346e-002
5.253365e+003,7.869455e-002
5.257222e+003,7.946645e-002
5.261080e+003,8.136190e-002
5.264937e+003,8.237220e-002
5.268793e+003,8.413998e-002
5.272651e+003,8.398143e-002
5.276508e+003,8.585949e-002
5.280365e+003,8.624122e-002
5.284222e+003,8.343160e-002
5.288079e+003,8.261540e-002
5.291936e+003,8.199310e-002
5.295793e+003,8.268341e-002
5.299650e+003,8.436240e-002
5.303507e+003,8.144774e-002
5.307365e+003,7.968072e-002
5.311222e+003,8.018348e-002
5.315079e+003,8.187598e-002
5.318936e+003,8.297528e-002
5.322793e+003,8.346176e-002
5.326650e+003,8.409172e-002
5.330507e+003,8.257589e-002
5.334364e+003,8.254054e-002
5.338221e+003,8.169433e-002
5.342079e+003,8.107115e-002
5.345936e+003,8.088538e-002
5.349792e+003,8.370645e-002
5.353650e+003,8.605719e-002
5.357507e+003,8.597923e-002
5.361364e+003,8.349437e-002
5.365221e+003,8.374590e-002
5.369078e+003,8.559652e-002
5.372935e+003,8.560777e-002
5.376792e+003,8.427352e-002
5.380649e+003,8.233663e-002
5.384506e+003,8.159461e-002
5.388364e+003,8.253846e-002
5.392221e+003,8.623327e-002
5.396078e+003,8.402296e-002
5.399935e+003,7.924418e-002
5.403792e+003,7.978120e-002
5.407649e+003,7.615080e-002
5.411506e+003,7.721747e-002
5.415363e+003,8.165055e-002
5.419220e+003,8.508318e-002
5.423078e+003,8.295470e-002
5.426935e+003,7.924386e-002
5.430792e+003,8.346815e-002
5.434649e+003,8.557034e-002
5.438506e+003,8.449327e-002
5.442363e+003,8.392286e-002
5.446220e+003,8.476795e-002
5.450077e+003,8.738612e-002
5.453934e+003,8.564802e-002
5.457792e+003,8.375338e-002
5.461648e+003,8.673879e-002
5.465505e+003,8.654584e-002
5.469363e+003,8.481527e-002
5.473220e+003,8.284675e-002
5.477077e+003,8.208095e-002
5.480934e+003,8.211109e-002
5.484791e+003,8.528595e-002
5.488648e+003,8.919884e-002
5.492505e+003,8.847141e-002
5.496362e+003,8.669930e-002
5.500219e+003,8.389585e-002
5.504077e+003,8.200578e-002
5.507934e+003,8.383351e-002
5.511791e+003,8.375929e-002
5.515648e+003,8.281623e-002
5.519505e+003,8.409293e-002
5.523362e+003,8.564007e-002
5.527219e+003,8.531430e-002
5.531076e+003,8.965483e-002
5.534933e+003,8.758869e-002
5.538791e+003,8.515573e-002
5.542647e+003,8.353995e-002
5.546504e+003,8.069195e-002
5.550362e+003,8.038682e-002
5.554219e+003,7.724483e-002
5.558076e+003,7.823080e-002
5.561933e+003,8.163291e-002
5.565790e+003,8.158210e-002
5.569647e+003,8.138747e-002
5.573504e+003,8.157158e-002
5.577361e+003,8.005761e-002
5.581218e+003,7.968522e-002
5.585076e+003,7.971893e-002
5.588933e+003,8.264975e-002
5.592790e+003,8.220989e-002
5.596647e+003,8.402578e-002
5.600504e+003,8.588651e-002
5.604361e+003,8.424150e-002
5.608218e+003,8.248365e-002
5.612075e+003,8.549888e-002
5.615932e+003,8.887248e-002
5.619790e+003,8.443479e-002
5.623646e+003,8.375008e-002
5.627503e+003,8.804023e-002
5.631361e+003,9.098855e-002
5.635218e+003,9.172570e-002
5.639075e+003,9.141682e-002
5.642932e+003,8.767796e-002
5.646789e+003,8.490015e-002
5.650646e+003,8.488947e-002
5.654503e+003,8.618090e-002
5.658360e+003,8.584847e-002
5.662217e+003,8.702651e-002
5.666075e+003,8.583184e-002
5.669932e+003,8.660319e-002
5.673789e+003,8.904392e-002
5.677646e+003,8.741631e-002
5.681503e+003,8.607755e-002
5.685360e+003,8.672556e-002
5.689217e+003,8.665076e-002
5.693074e+003,8.455369e-002
5.696931e+003,8.418752e-002
5.700789e+003,8.617633e-002
5.704646e+003,8.554136e-002
5.708502e+003,8.714385e-002
5.712360e+003,8.554661e-002
5.716217e+003,8.083214e-002
5.720074e+003,8.451505e-002
5.723931e+003,8.861462e-002
5.727788e+003,8.504017e-002
5.731645e+003,7.745622e-002
5.735502e+003,7.691107e-002
5.739359e+003,8.283119e-002
5.743216e+003,8.543224e-002
5.747074e+003,8.384705e-002
5.750931e+003,8.499238e-002
5.754788e+003,8.830380e-002
5.758645e+003,8.845016e-002
5.762502e+003,8.369090e-002
5.766359e+003,8.522358e-002
5.770216e+003,8.810894e-002
5.774073e+003,8.646448e-002
5.777930e+003,8.407748e-002
5.781788e+003,8.353955e-002
5.785645e+003,8.430635e-002
5.789501e+003,8.936142e-002
5.793359e+003,9.081115e-002
5.797216e+003,9.227671e-002
5.801073e+003,9.043966e-002
5.804930e+003,9.036687e-002
5.808787e+003,8.830217e-002
5.812644e+003,9.200454e-002
5.816501e+003,9.653998e-002
5.820358e+003,9.287614e-002
5.824215e+003,9.029919e-002
5.828073e+003,9.041110e-002
5.831930e+003,9.056675e-002
5.835787e+003,9.244012e-002
5.839644e+003,9.050307e-002
5.843501e+003,8.859605e-002
5.847358e+003,8.544954e-002
5.851215e+003,8.880337e-002
5.855072e+003,9.239818e-002
5.858929e+003,9.158661e-002
5.862787e+003,9.008712e-002
5.866644e+003,8.986539e-002
5.870500e+003,8.888020e-002
5.874358e+003,8.791709e-002
5.878215e+003,8.986453e-002
5.882072e+003,8.638273e-002
5.885929e+003,8.609027e-002
5.889786e+003,8.841714e-002
5.893643e+003,8.623654e-002
5.897500e+003,8.733431e-002
5.901357e+003,9.149923e-002
5.905214e+003,9.096216e-002
5.909072e+003,8.629991e-002
5.912929e+003,8.818371e-002
5.916786e+003,9.371031e-002
5.920643e+003,9.559720e-002
5.924500e+003,9.473463e-002
5.928357e+003,9.481528e-002
5.932214e+003,9.614629e-002
5.936071e+003,9.387998e-002
5.939928e+003,8.776498e-002
5.943786e+003,8.922435e-002
5.947643e+003,9.337294e-002
5.951500e+003,8.842173e-002
5.955357e+003,8.896376e-002
5.959214e+003,9.959186e-002
5.963071e+003,9.630802e-002
5.966928e+003,8.976625e-002
5.970785e+003,8.996919e-002
5.974642e+003,9.510238e-002
5.978500e+003,8.985059e-002
5.982356e+003,9.077071e-002
5.986213e+003,9.867883e-002
5.990071e+003,9.346846e-002
5.993928e+003,9.332739e-002
5.997785e+003,9.715925e-002
6.001642e+003,9.560888e-002
6.005499e+003,9.613231e-002
6.009356e+003,9.428567e-002
6.013213e+003,9.467027e-002
6.017070e+003,9.687468e-002
6.020927e+003,9.418832e-002
6.024785e+003,8.733884e-002
6.028642e+003,8.946364e-002
6.032499e+003,9.573670e-002
6.036356e+003,9.513534e-002
6.040213e+003,9.321181e-002
6.044070e+003,9.760340e-002
6.047927e+003,1.019376e-001
6.051784e+003,1.026596e-001
6.055641e+003,1.002016e-001
6.059499e+003,9.495038e-002
6.063355e+003,9.649752e-002
6.067212e+003,9.496011e-002
6.071070e+003,8.704213e-002
6.074927e+003,8.897389e-002
6.078784e+003,9.239749e-002
6.082641e+003,9.089325e-002
6.086498e+003,8.769345e-002
6.090355e+003,8.661241e-002
6.094212e+003,9.121724e-002
6.098069e+003,8.791494e-002
6.101926e+003,8.529466e-002
6.105784e+003,9.151347e-002
6.109641e+003,9.332229e-002
6.113498e+003,8.968954e-002
6.117355e+003,9.464332e-002
6.121212e+003,9.814734e-002
6.125069e+003,9.692331e-002
6.128926e+003,9.876080e-002
6.132783e+003,1.014414e-001
6.136640e+003,9.846213e-002
6.140498e+003,9.388257e-002
6.144354e+003,9.271281e-002
6.148211e+003,9.385144e-002
6.152069e+003,9.894744e-002
6.155926e+003,1.006518e-001
6.159783e+003,1.001421e-001
6.163640e+003,9.908398e-002
6.167497e+003,9.343925e-002
6.171354e+003,8.753072e-002
6.175211e+003,8.548012e-002
6.179068e+003,9.039102e-002
6.182925e+003,9.117384e-002
6.186783e+003,8.914660e-002
6.190640e+003,8.893380e-002
6.194497e+003,9.315239e-002
6.198354e+003,9.629631e-002
6.202211e+003,9.673038e-002
6.206068e+003,9.755333e-002
6.209925e+003,9.964229e-002
6.213782e+003,9.449378e-002
6.217639e+003,8.701104e-002
6.221497e+003,9.508634e-002
6.225354e+003,9.936759e-002
6.229210e+003,9.524705e-002
6.233068e+003,9.711429e-002
6.236925e+003,1.025534e-001
6.240782e+003,9.904794e-002
6.244639e+003,9.286957e-002
6.248496e+003,1.003884e-001
6.252353e+003,1.058760e-001
6.256210e+003,1.078106e-001
6.260067e+003,1.060898e-001
6.263924e+003,1.065223e-001
6.267782e+003,1.113915e-001
6.271639e+003,1.079122e-001
6.275496e+003,1.031448e-001
6.279353e+003,1.062505e-001
6.283210e+003,1.086985e-001
6.287067e+003,9.933977e-002
6.290924e+003,9.921825e-002
6.294781e+003,1.023075e-001
6.298638e+003,9.547524e-002
6.302496e+003,9.412440e-002
6.306353e+003,1.022820e-001
6.310209e+003,1.061235e-001
6.314067e+003,1.076171e-001
6.317924e+003,1.042747e-001
6.321781e+003,9.493199e-002
6.325638e+003,9.028994e-002
6.329495e+003,9.662069e-002
6.333352e+003,1.056895e-001
6.337209e+003,1.059341e-001
6.341066e+003,1.041971e-001
6.344923e+003,1.041528e-001
6.348780e+003,9.634466e-002
6.352638e+003,9.778514e-002
6.356495e+003,9.949077e-002
6.360352e+003,1.020584e-001
6.364209e+003,1.043831e-001
6.368066e+003,1.052915e-001
6.371923e+003,1.026212e-001
6.375780e+003,1.070791e-001
6.379637e+003,1.108664e-001
6.383494e+003,1.007245e-001
6.387352e+003,9.303275e-002
6.391208e+003,9.681095e-002
6.395065e+003,1.031444e-001
6.398923e+003,1.015643e-001
6.402780e+003,9.924381e-002
6.406637e+003,9.603690e-002
6.410494e+003,1.016924e-001
6.414351e+003,1.050205e-001
6.418208e+003,1.041230e-001
6.422065e+003,1.029905e-001
6.425922e+003,1.019428e-001
6.429779e+003,1.150439e-001
6.433637e+003,1.148233e-001
6.437494e+003,1.130568e-001
6.441351e+003,1.115666e-001
6.445208e+003,1.058561e-001
6.449065e+003,1.023852e-001
6.452922e+003,1.009011e-001
6.456779e+003,1.067439e-001
6.460636e+003,1.100182e-001
6.464493e+003,1.079314e-001
6.468351e+003,1.040767e-001
6.472208e+003,1.005761e-001
6.476064e+003,1.026136e-001
6.479922e+003,1.082703e-001
6.483779e+003,1.110340e-001
6.487636e+003,1.029946e-001
6.491493e+003,9.444736e-002
6.495350e+003,1.005305e-001
6.499207e+003,1.083482e-001
6.503064e+003,1.066917e-001
6.506921e+003,9.784237e-002
6.510778e+003,9.733073e-002
6.514636e+003,9.739225e-002
6.518493e+003,1.046263e-001
6.522350e+003,1.077273e-001
6.526207e+003,1.026175e-001
6.530064e+003,1.047481e-001
6.533921e+003,1.049920e-001
6.537778e+003,1.049150e-001
6.541635e+003,1.135019e-001
6.545492e+003,1.060384e-001
6.549350e+003,9.724044e-002
6.553207e+003,9.546541e-002
6.557063e+003,9.982263e-002
6.560921e+003,1.060103e-001
6.564778e+003,1.151569e-001
6.568635e+003,1.159117e-001
6.572492e+003,1.123981e-001
6.576349e+003,1.070328e-001
6.580206e+003,9.835657e-002
6.584063e+003,9.847813e-002
6.587920e+003,1.092258e-001
6.591777e+003,1.143398e-001
6.595635e+003,1.092308e-001
6.599492e+003,1.083546e-001
6.603349e+003,1.146042e-001
6.607206e+003,1.227430e-001
6.611063e+003,1.194871e-001
6.614920e+003,1.103945e-001
6.618777e+003,1.040055e-001
6.622634e+003,1.047597e-001
6.626491e+003,1.135814e-001
6.630349e+003,1.150084e-001
6.634206e+003,1.125098e-001
6.638063e+003,1.104270e-001
6.641920e+003,1.116252e-001
6.645777e+003,1.186001e-001
6.649634e+003,1.162568e-001
6.653491e+003,1.096838e-001
6.657348e+003,1.153194e-001
6.661205e+003,1.190195e-001
6.665063e+003,1.075279e-001
6.668919e+003,1.017361e-001
6.672776e+003,1.058597e-001
6.676634e+003,1.091166e-001
6.680491e+003,1.038010e-001
6.684348e+003,1.043163e-001
6.688205e+003,1.094480e-001
6.692062e+003,1.121845e-001
6.695919e+003,1.086101e-001
6.699776e+003,1.132483e-001
6.703633e+003,1.172309e-001
6.707490e+003,1.238704e-001
6.711348e+003,1.164349e-001
6.715205e+003,1.178188e-001
6.719062e+003,1.231952e-001
6.722919e+003,1.153842e-001
6.726776e+003,1.132798e-001
6.730633e+003,1.067988e-001
6.734490e+003,1.106358e-001
6.738347e+003,1.168410e-001
6.742204e+003,1.141246e-001
6.746062e+003,1.129853e-001
6.749918e+003,1.086131e-001
6.753775e+003,1.054904e-001
6.757633e+003,1.141659e-001
6.761490e+003,1.295394e-001
6.765347e+003,1.304205e-001
6.769204e+003,1.236146e-001
6.773061e+003,1.191256e-001
6.776918e+003,1.263457e-001
6.780775e+003,1.321357e-001
6.784632e+003,1.238961e-001
6.788489e+003,1.261017e-001
6.792347e+003,1.260785e-001
6.796204e+003,1.170637e-001
6.800061e+003,1.180672e-001
6.803918e+003,1.237390e-001
6.807775e+003,1.238606e-001
6.811632e+003,1.215039e-001
6.815489e+003,1.171597e-001
6.819346e+003,1.140526e-001
6.823203e+003,1.153508e-001
6.827061e+003,1.108914e-001
6.830917e+003,1.102793e-001
6.834774e+003,1.146816e-001
6.838632e+003,1.149442e-001
6.842489e+003,1.037553e-001
6.846346e+003,9.833325e-002
6.850203e+003,1.142158e-001
6.854060e+003,1.212926e-001
6.857917e+003,1.123024e-001
6.861774e+003,1.090629e-001
6.865631e+003,1.155601e-001
6.869488e+003,1.291708e-001
6.873346e+003,1.241768e-001
6.877203e+003,1.131686e-001
6.881060e+003,1.177079e-001
6.884917e+003,1.188296e-001
6.888774e+003,1.169087e-001
6.892631e+003,1.286706e-001
6.896488e+003,1.277914e-001
6.900345e+003,1.309345e-001
6.904202e+003,1.362718e-001
6.908060e+003,1.213628e-001
6.911917e+003,1.030200e-001
6.915773e+003,9.263787e-002
6.919631e+003,1.048820e-001
6.923488e+003,1.125922e-001
6.927345e+003,1.146904e-001
6.931202e+003,1.205620e-001
6.935059e+003,1.287480e-001
6.938916e+003,1.307667e-001
6.942773e+003,1.350510e-001
6.946630e+003,1.380008e-001
6.950487e+003,1.214517e-001
6.954345e+003,1.242011e-001
6.958202e+003,1.372661e-001
6.962059e+003,1.370534e-001
6.965916e+003,1.229900e-001
6.969773e+003,1.108805e-001
6.973630e+003,1.203766e-001
6.977487e+003,1.272296e-001
6.981344e+003,1.151319e-001
6.985201e+003,1.071450e-001
6.989059e+003,1.078666e-001
6.992916e+003,1.128552e-001
6.996772e+003,1.210923e-001
7.000630e+003,1.248754e-001
7.004487e+003,1.220445e-001
7.008344e+003,1.162632e-001
7.012201e+003,1.121802e-001
7.016058e+003,1.240171e-001
7.019915e+003,1.309749e-001
7.023772e+003,1.247830e-001
7.027629e+003,1.296289e-001
7.031486e+003,1.361848e-001
7.035344e+003,1.334720e-001
7.039201e+003,1.229845e-001
7.043058e+003,1.184065e-001
7.046915e+003,1.242134e-001
7.050772e+003,1.261059e-001
7.054629e+003,1.120275e-001
7.058486e+003,1.039483e-001
7.062343e+003,1.309715e-001
7.066200e+003,1.497759e-001
7.070058e+003,1.417661e-001
7.073915e+003,1.360558e-001
7.077771e+003,1.332638e-001
7.081629e+003,1.328279e-001
7.085486e+003,1.401381e-001
7.089343e+003,1.409496e-001
7.093200e+003,1.369372e-001
7.097057e+003,1.477316e-001
7.100914e+003,1.436408e-001
7.104771e+003,1.293830e-001
7.108628e+003,1.198513e-001
7.112485e+003,1.221166e-001
7.116343e+003,1.258767e-001
7.120200e+003,1.206437e-001
7.124057e+003,1.330220e-001
7.127914e+003,1.382628e-001
7.131771e+003,1.353782e-001
7.135628e+003,1.241487e-001
7.139485e+003,1.352138e-001
7.143342e+003,1.304684e-001
7.147199e+003,1.110443e-001
7.151057e+003,1.218830e-001
7.154914e+003,1.375336e-001
7.158771e+003,1.158344e-001
7.162628e+003,1.062094e-001
7.166485e+003,1.248978e-001
7.170342e+003,1.247682e-001
7.174199e+003,1.060453e-001
7.178056e+003,1.137863e-001
7.181913e+003,1.271586e-001
7.185771e+003,1.189022e-001
7.189627e+003,1.297040e-001
7.193484e+003,1.385688e-001
7.197342e+003,1.225847e-001
7.201199e+003,1.189860e-001
7.205056e+003,1.222038e-001
7.208913e+003,1.131060e-001
7.212770e+003,1.285206e-001
7.216627e+003,1.367525e-001
7.220484e+003,1.196465e-001
7.224341e+003,1.182190e-001
7.228198e+003,1.129635e-001
7.232056e+003,1.221429e-001
7.235913e+003,1.547997e-001
7.239770e+003,1.609199e-001
7.243627e+003,1.439159e-001
7.247484e+003,1.383362e-001
7.251341e+003,1.372896e-001
7.255198e+003,1.433761e-001
7.259055e+003,1.540328e-001
7.262912e+003,1.500750e-001
7.266770e+003,1.312348e-001
7.270626e+003,1.291686e-001
7.274483e+003,1.345628e-001
7.278341e+003,1.397701e-001
7.282198e+003,1.451876e-001
7.286055e+003,1.407439e-001
7.289912e+003,1.444927e-001
7.293769e+003,1.432967e-001
7.297626e+003,1.411079e-001
7.301483e+003,1.420766e-001
7.305340e+003,1.278095e-001
7.309197e+003,1.164865e-001
7.313055e+003,1.237734e-001
7.316912e+003,1.343621e-001
7.320769e+003,1.306148e-001
7.324626e+003,1.291308e-001
7.328483e+003,1.251906e-001
7.332340e+003,1.109235e-001
7.336197e+003,1.164986e-001
7.340054e+003,1.183474e-001
7.343911e+003,1.236012e-001
7.347769e+003,1.187104e-001
7.351625e+003,1.270707e-001
7.355482e+003,1.428695e-001
7.359340e+003,1.431530e-001
7.363197e+003,1.317559e-001
7.367054e+003,1.219573e-001
7.370911e+003,1.243006e-001
7.374768e+003,1.264326e-001
7.378625e+003,1.309917e-001
7.382482e+003,1.291733e-001
7.386339e+003,1.324187e-001
7.390196e+003,1.335353e-001
7.394054e+003,1.165485e-001
7.397911e+003,1.202944e-001
7.401768e+003,1.304459e-001
7.405625e+003,1.202599e-001
7.409482e+003,1.162818e-001
7.413339e+003,1.442335e-001
7.417196e+003,1.667358e-001
7.421053e+003,1.505237e-001
7.424910e+003,1.436758e-001
7.428768e+003,1.623515e-001
7.432625e+003,1.576177e-001
7.436481e+003,1.542321e-001
7.440339e+003,1.634801e-001
7.444196e+003,1.589116e-001
7.448053e+003,1.283797e-001
7.451910e+003,1.102555e-001
7.455767e+003,1.140850e-001
7.459624e+003,1.175593e-001
7.463481e+003,1.053067e-001
7.467338e+003,8.730023e-002
7.471195e+003,1.085630e-001
7.475053e+003,1.372886e-001
7.478910e+003,1.212968e-001
7.482767e+003,1.183366e-001
7.486624e+003,1.349680e-001
7.490481e+003,1.201013e-001
7.494338e+003,1.136202e-001
7.498195e+003,1.165370e-001
7.502052e+003,1.037492e-001
7.505909e+003,1.123648e-001
7.509767e+003,1.071711e-001
7.513624e+003,1.234074e-001
7.517480e+003,1.520417e-001
7.521338e+003,1.306738e-001
7.525195e+003,1.114641e-001
7.529052e+003,1.202851e-001
7.532909e+003,1.195081e-001
7.536766e+003,1.044507e-001
7.540623e+003,1.290409e-001
7.544480e+003,1.482273e-001
7.548337e+003,1.250233e-001
7.552194e+003,1.221230e-001
7.556052e+003,1.270130e-001
7.559909e+003,1.157507e-001
7.563766e+003,1.222245e-001
7.567623e+003,1.222614e-001
7.571480e+003,1.406071e-001
7.575337e+003,1.576570e-001
7.579194e+003,1.664090e-001
7.583051e+003,1.300549e-001
7.586908e+003,1.238474e-001
7.590766e+003,1.446223e-001
7.594623e+003,1.558412e-001
7.598479e+003,1.472182e-001
7.602337e+003,1.257204e-001
7.606194e+003,1.490224e-001
7.610051e+003,1.684777e-001
7.613908e+003,1.386915e-001
7.617765e+003,1.233389e-001
7.621622e+003,1.445596e-001
7.625479e+003,1.687266e-001
7.629336e+003,1.586554e-001
7.633193e+003,1.426094e-001
7.637051e+003,1.186602e-001
7.640908e+003,1.263354e-001
7.644765e+003,1.295635e-001
7.648622e+003,1.132316e-001
7.652479e+003,1.088700e-001
7.656336e+003,1.168109e-001
7.660193e+003,1.347118e-001
7.664050e+003,1.565398e-001
7.667907e+003,1.307883e-001
7.671765e+003,1.059382e-001
7.675622e+003,1.025937e-001
7.679479e+003,1.185346e-001
7.683336e+003,1.576552e-001
7.687193e+003,1.732230e-001
7.691050e+003,1.615442e-001
7.694907e+003,1.298609e-001
7.698764e+003,1.063497e-001
7.702621e+003,1.141042e-001
7.706479e+003,1.486343e-001
7.710335e+003,1.711023e-001
7.714192e+003,1.503025e-001
7.718050e+003,1.163130e-001
7.721907e+003,1.409111e-001
7.725764e+003,1.536312e-001
7.729621e+003,1.424843e-001
7.733478e+003,1.240878e-001
7.737335e+003,1.123915e-001
7.741192e+003,1.248505e-001
7.745049e+003,1.623470e-001
7.748906e+003,1.780795e-001
7.752764e+003,1.322609e-001
7.756621e+003,1.181496e-001
7.760478e+003,1.556713e-001
7.764335e+003,1.634681e-001
7.768192e+003,1.296215e-001
7.772049e+003,1.365051e-001
7.775906e+003,1.594341e-001
7.779763e+003,1.371607e-001
7.783620e+003,1.150445e-001
7.787478e+003,1.192658e-001
7.791334e+003,1.119876e-001
7.795191e+003,1.274511e-001
7.799049e+003,1.195853e-001
7.802906e+003,1.025914e-001
7.806763e+003,9.880123e-002
7.810620e+003,8.449130e-002
7.814477e+003,8.252408e-002
7.818334e+003,1.095458e-001
7.822191e+003,1.253426e-001
7.826048e+003,1.321905e-001
7.829905e+003,1.411542e-001
7.833763e+003,1.262363e-001
7.837620e+003,1.245211e-001
7.841477e+003,1.192468e-001
7.845334e+003,1.615315e-001
7.849191e+003,1.353339e-001
7.853048e+003,5.533084e-002
7.856905e+003,5.076977e-002
7.860762e+003,1.220934e-001
7.864619e+003,1.217643e-001
7.868477e+003,9.522944e-002
7.872333e+003,9.485041e-002
7.876190e+003,8.655082e-002
7.880048e+003,4.811041e-002
7.883905e+003,5.005705e-002
7.887762e+003,8.226760e-002
7.891619e+003,1.313764e-001
7.895476e+003,1.673330e-001
7.899333e+003,1.737507e-001
7.903190e+003,1.769493e-001
7.907047e+003,1.525516e-001
7.910904e+003,8.916507e-002
7.914762e+003,9.597933e-002
7.918619e+003,1.514646e-001
7.922476e+003,1.635942e-001
7.926333e+003,1.599986e-001
7.930190e+003,1.314351e-001
7.934047e+003,1.019730e-001
7.937904e+003,1.260083e-001
7.941761e+003,1.221913e-001
7.945618e+003,1.389780e-001
7.949476e+003,1.744331e-001
7.953333e+003,1.544434e-001
7.957189e+003,1.478017e-001
7.961047e+003,1.501665e-001
7.964904e+003,1.249161e-001
7.968761e+003,1.102182e-001
7.972618e+003,1.218186e-001
7.976475e+003,9.358970e-002
7.980332e+003,1.102901e-001
7.984189e+003,1.568356e-001
7.988046e+003,2.285020e-001
7.991903e+003,2.586524e-001
7.995761e+003,2.157369e-001
7.999618e+003,1.032435e-001
