4.011380e+002,6.000000e+000
4.049951e+002,-6.711838e-001
4.088522e+002,-3.712643e-001
4.127093e+002,2.170002e-001
4.165664e+002,6.000000e+000
4.204235e+002,6.000000e+000
4.242806e+002,6.000000e+000
4.281377e+002,-2.115050e-001
4.319948e+002,1.910432e-001
4.358519e+002,-3.366665e-001
4.397090e+002,2.638693e-001
4.435661e+002,3.040216e-001
4.474232e+002,6.000000e+000
4.512803e+002,1.702398e+000
4.551374e+002,8.018137e-001
4.589945e+002,6.000000e+000
4.628516e+002,-3.175255e-001
4.667087e+002,2.109664e-001
4.705658e+002,-1.613573e-001
4.744229e+002,-2.326119e+000
4.782800e+002,1.198500e-001
4.821371e+002,4.066330e-001
4.859941e+002,8.113582e-002
4.898513e+002,4.357684e-001
4.937083e+002,6.000000e+000
4.975654e+002,6.000000e+000
5.014225e+002,6.000000e+000
5.052796e+002,6.000000e+000
5.091367e+002,3.082855e-001
5.129938e+002,2.791092e-001
5.168509e+002,3.271335e-001
5.207080e+002,4.468699e-001
5.245651e+002,5.306207e-001
5.284222e+002,6.000000e+000
5.322793e+002,6.000000e+000
5.361364e+002,6.000000e+000
5.399935e+002,-2.413862e-001
5.438506e+002,3.740748e-001
5.477077e+002,1.327845e+000
5.515648e+002,6.000000e+000
5.554219e+002,6.000000e+000
5.592790e+002,-9.868785e-001
5.631361e+002,1.487372e-001
5.669932e+002,6.000000e+000
5.708503e+002,6.000000e+000
5.747074e+002,6.000000e+000
5.785645e+002,6.000000e+000
5.824216e+002,-8.028728e-001
5.862787e+002,-2.089942e+000
5.901357e+002,6.000000e+000
5.939929e+002,6.000000e+000
5.978499e+002,6.000000e+000
6.017070e+002,6.000000e+000
6.055641e+002,6.000000e+000
6.094212e+002,6.000000e+000
6.132783e+002,6.000000e+000
6.171354e+002,8.938064e-001
6.209925e+002,2.678004e-001
6.248496e+002,6.000000e+000
6.287067e+002,6.000000e+000
6.325638e+002,6.000000e+000
6.364209e+002,6.000000e+000
6.402780e+002,6.000000e+000
6.441351e+002,6.000000e+000
6.479922e+002,6.000000e+000
6.518493e+002,7.237234e-001
6.557064e+002,-7.613360e-001
6.595635e+002,6.000000e+000
6.634205e+002,-4.945619e-001
6.672777e+002,2.268889e-001
6.711348e+002,8.572578e-001
6.749918e+002,6.000000e+000
6.788490e+002,6.000000e+000
6.827061e+002,6.000000e+000
6.865631e+002,6.000000e+000
6.904203e+002,6.000000e+000
6.942773e+002,6.000000e+000
6.981344e+002,-2.875126e-001
7.019916e+002,6.000000e+000
7.058486e+002,6.000000e+000
7.097057e+002,6.000000e+000
7.135629e+002,6.000000e+000
7.174199e+002,6.000000e+000
7.212770e+002,6.000000e+000
7.251342e+002,6.000000e+000
7.289912e+002,-2.868990e-001
7.328483e+002,6.000000e+000
7.367054e+002,6.000000e+000
7.405625e+002,6.000000e+000
7.444196e+002,6.000000e+000
7.482767e+002,6.000000e+000
7.521338e+002,9.434998e-001
7.559908e+002,-5.203266e-001
7.598480e+002,-6.540602e-001
7.637051e+002,6.000000e+000
7.675621e+002,6.000000e+000
7.714193e+002,-3.256613e-001
7.752764e+002,6.000000e+000
7.791334e+002,6.000000e+000
7.829905e+002,6.000000e+000
7.868477e+002,5.545178e-001
7.907047e+002,5.750991e-001
7.945618e+002,4.421766e-001
7.984189e+002,3.797261e-001
8.022760e+002,1.438593e+000
8.061331e+002,6.000000e+000
8.099902e+002,6.000000e+000
8.138473e+002,6.000000e+000
8.177044e+002,6.000000e+000
8.215615e+002,2.957531e-001
8.254186e+002,3.678165e-001
8.292757e+002,1.178424e+000
8.331328e+002,6.000000e+000
8.369899e+002,6.000000e+000
8.408470e+002,6.000000e+000
8.447041e+002,1.402036e+000
8.485612e+002,8.424264e-001
8.524183e+002,6.775997e-001
8.562754e+002,6.851043e-001
8.601324e+002,1.223984e+000
8.639896e+002,2.131455e+000
8.678467e+002,2.098041e+000
8.717037e+002,1.283619e+000
8.755609e+002,1.846288e+000
8.794180e+002,6.000000e+000
8.832750e+002,6.000000e+000
8.871321e+002,6.000000e+000
8.909893e+002,1.248567e+000
8.948463e+002,1.158330e+000
8.987034e+002,1.278926e+000
9.025605e+002,1.188000e+000
9.064176e+002,2.061677e+000
9.102747e+002,1.613034e+000
9.141318e+002,1.133203e+000
9.179889e+002,1.103097e+000
9.218461e+002,1.386075e+000
9.257031e+002,1.651152e+000
9.295602e+002,1.876685e+000
9.334174e+002,2.203115e+000
9.372744e+002,6.000000e+000
9.411315e+002,6.000000e+000
9.449886e+002,2.458308e+000
9.488457e+002,6.000000e+000
9.527028e+002,6.000000e+000
9.565599e+002,2.194238e+000
9.604170e+002,1.820159e+000
9.642740e+002,2.202696e+000
9.681312e+002,4.067105e+000
9.719883e+002,2.070783e+000
9.758453e+002,2.940024e+000
9.797025e+002,6.000000e+000
9.835596e+002,2.363534e+000
9.874166e+002,2.015735e+000
9.912738e+002,2.291665e+000
9.951309e+002,6.000000e+000
9.989879e+002,2.140272e+000
1.002845e+003,1.667613e+000
1.006702e+003,1.821753e+000
1.010559e+003,2.690563e+000
1.014416e+003,6.000000e+000
1.018273e+003,2.842794e+000
1.022130e+003,3.129104e+000
1.025988e+003,6.000000e+000
1.029845e+003,2.931321e+000
1.033702e+003,1.648786e+000
1.037559e+003,1.546137e+000
1.041416e+003,1.552167e+000
1.045273e+003,1.408097e+000
1.049130e+003,1.341776e+000
1.052987e+003,1.362997e+000
1.056844e+003,1.398285e+000
1.060702e+003,1.291087e+000
1.064559e+003,1.357517e+000
1.068416e+003,1.554337e+000
1.072273e+003,1.468972e+000
1.076130e+003,1.548721e+000
1.079987e+003,1.692626e+000
1.083844e+003,1.572402e+000
1.087701e+003,1.510010e+000
1.091558e+003,1.574108e+000
1.095415e+003,1.549816e+000
1.099272e+003,1.636232e+000
1.103130e+003,1.663409e+000
1.106987e+003,1.479388e+000
1.110844e+003,1.436606e+000
1.114701e+003,1.375784e+000
1.118558e+003,1.292654e+000
1.122415e+003,1.340642e+000
1.126272e+003,1.302151e+000
1.130129e+003,1.262757e+000
1.133986e+003,1.307561e+000
1.137843e+003,1.320374e+000
1.141701e+003,1.408634e+000
1.145558e+003,1.466628e+000
1.149415e+003,1.364627e+000
1.153272e+003,1.207503e+000
1.157129e+003,1.174948e+000
1.160986e+003,1.285452e+000
1.164843e+003,1.361054e+000
1.168700e+003,1.299484e+000
1.172557e+003,1.337237e+000
1.176414e+003,1.390821e+000
1.180271e+003,1.337134e+000
1.184129e+003,1.304965e+000
1.187986e+003,1.269953e+000
1.191843e+003,1.263960e+000
1.195700e+003,1.310270e+000
1.199557e+003,1.235027e+000
1.203414e+003,1.152926e+000
1.207271e+003,1.152240e+000
1.211128e+003,1.163044e+000
1.214985e+003,1.130025e+000
1.218842e+003,1.057611e+000
1.222699e+003,9.919850e-001
1.226557e+003,9.303931e-001
1.230414e+003,8.591030e-001
1.234271e+003,8.186988e-001
1.238128e+003,7.812771e-001
1.241985e+003,7.280707e-001
1.245842e+003,6.907619e-001
1.249699e+003,6.587813e-001
1.253556e+003,6.163749e-001
1.257413e+003,5.976847e-001
1.261271e+003,5.794291e-001
1.265128e+003,5.615999e-001
1.268985e+003,5.436293e-001
1.272842e+003,5.213727e-001
1.276699e+003,5.022538e-001
1.280556e+003,4.851777e-001
1.284413e+003,4.800956e-001
1.288270e+003,4.773167e-001
1.292127e+003,4.710379e-001
1.295984e+003,4.611556e-001
1.299841e+003,4.522373e-001
1.303698e+003,4.353032e-001
1.307556e+003,4.220300e-001
1.311413e+003,4.178033e-001
1.315270e+003,4.194911e-001
1.319127e+003,4.130572e-001
1.322984e+003,4.013288e-001
1.326841e+003,4.005309e-001
1.330698e+003,4.010710e-001
1.334555e+003,3.932706e-001
1.338412e+003,3.959718e-001
1.342270e+003,3.999590e-001
1.346127e+003,3.978296e-001
1.349984e+003,3.974148e-001
1.353841e+003,3.963158e-001
1.357698e+003,3.955383e-001
1.361555e+003,4.001355e-001
1.365412e+003,4.014871e-001
1.369269e+003,3.990785e-001
1.373126e+003,4.038147e-001
1.376983e+003,4.180333e-001
1.380840e+003,4.303333e-001
1.384698e+003,4.406226e-001
1.388555e+003,4.603561e-001
1.392412e+003,4.799089e-001
1.396269e+003,4.900719e-001
1.400126e+003,5.001794e-001
1.403983e+003,5.106017e-001
1.407840e+003,5.260593e-001
1.411697e+003,5.377173e-001
1.415554e+003,5.478616e-001
1.419411e+003,5.525286e-001
1.423269e+003,5.610272e-001
1.427126e+003,5.738410e-001
1.430983e+003,5.771886e-001
1.434840e+003,5.661624e-001
1.438697e+003,5.623464e-001
1.442554e+003,5.621828e-001
1.446411e+003,5.497176e-001
1.450268e+003,5.406656e-001
1.454125e+003,5.410274e-001
1.457982e+003,5.330765e-001
1.461839e+003,5.198587e-001
1.465697e+003,5.116529e-001
1.469554e+003,5.144107e-001
1.473411e+003,5.253090e-001
1.477268e+003,5.288248e-001
1.481125e+003,5.352581e-001
1.484982e+003,5.488085e-001
1.488839e+003,5.573314e-001
1.492696e+003,5.641702e-001
1.496553e+003,5.720764e-001
1.500411e+003,5.819750e-001
1.504268e+003,5.808775e-001
1.508125e+003,5.799820e-001
1.511982e+003,5.801049e-001
1.515839e+003,5.795820e-001
1.519696e+003,5.757004e-001
1.523553e+003,5.630341e-001
1.527410e+003,5.588894e-001
1.531267e+003,5.455990e-001
1.535124e+003,5.263345e-001
1.538981e+003,5.167420e-001
1.542839e+003,5.098638e-001
1.546696e+003,4.974162e-001
1.550553e+003,4.920181e-001
1.554410e+003,4.798575e-001
1.558267e+003,4.708691e-001
1.562124e+003,4.653743e-001
1.565981e+003,4.548377e-001
1.569838e+003,4.493320e-001
1.573695e+003,4.384018e-001
1.577552e+003,4.230187e-001
1.581410e+003,4.158136e-001
1.585267e+003,4.187119e-001
1.589124e+003,4.249690e-001
1.592981e+003,4.290592e-001
1.596838e+003,4.380704e-001
1.600695e+003,4.490660e-001
1.604552e+003,4.612577e-001
1.608409e+003,4.846624e-001
1.612266e+003,5.118380e-001
1.616123e+003,5.358964e-001
1.619980e+003,5.673023e-001
1.623838e+003,5.901457e-001
1.627695e+003,5.997520e-001
1.631552e+003,6.287007e-001
1.635409e+003,6.503290e-001
1.639266e+003,6.513985e-001
1.643123e+003,6.458224e-001
1.646980e+003,6.260578e-001
1.650837e+003,6.010774e-001
1.654694e+003,5.819088e-001
1.658551e+003,5.648940e-001
1.662409e+003,5.487725e-001
1.666266e+003,5.302024e-001
1.670123e+003,5.011020e-001
1.673980e+003,4.779930e-001
1.677837e+003,4.601359e-001
1.681694e+003,4.410308e-001
1.685551e+003,4.232689e-001
1.689408e+003,4.069883e-001
1.693265e+003,3.945000e-001
1.697122e+003,3.839445e-001
1.700979e+003,3.771257e-001
1.704837e+003,3.710720e-001
1.708694e+003,3.668814e-001
1.712551e+003,3.663344e-001
1.716408e+003,3.691352e-001
1.720265e+003,3.636451e-001
1.724122e+003,3.548565e-001
1.727979e+003,3.524546e-001
1.731836e+003,3.532385e-001
1.735693e+003,3.539407e-001
1.739550e+003,3.541512e-001
1.743408e+003,3.557498e-001
1.747265e+003,3.512954e-001
1.751122e+003,3.435583e-001
1.754979e+003,3.448581e-001
1.758836e+003,3.457291e-001
1.762693e+003,3.459218e-001
1.766550e+003,3.478410e-001
1.770407e+003,3.426792e-001
1.774264e+003,3.371551e-001
1.778121e+003,3.343982e-001
1.781979e+003,3.354599e-001
1.785836e+003,3.321349e-001
1.789693e+003,3.261107e-001
1.793550e+003,3.267992e-001
1.797407e+003,3.298360e-001
1.801264e+003,3.290936e-001
1.805121e+003,3.292641e-001
1.808978e+003,3.298272e-001
1.812835e+003,3.333271e-001
1.816692e+003,3.343766e-001
1.820549e+003,3.354418e-001
1.824407e+003,3.351893e-001
1.828264e+003,3.371333e-001
1.832121e+003,3.350946e-001
1.835978e+003,3.309439e-001
1.839835e+003,3.212387e-001
1.843692e+003,3.172624e-001
1.847549e+003,3.165301e-001
1.851406e+003,3.141413e-001
1.855263e+003,3.080896e-001
1.859120e+003,3.013211e-001
1.862978e+003,2.994521e-001
1.866835e+003,2.980601e-001
1.870692e+003,2.935464e-001
1.874549e+003,2.895331e-001
1.878406e+003,2.904427e-001
1.882263e+003,2.928559e-001
1.886120e+003,2.969447e-001
1.889977e+003,3.008030e-001
1.893834e+003,3.023400e-001
1.897691e+003,3.036187e-001
1.901548e+003,3.060421e-001
1.905406e+003,3.079450e-001
1.909263e+003,3.099967e-001
1.913120e+003,3.111482e-001
1.916977e+003,3.113132e-001
1.920834e+003,3.102682e-001
1.924691e+003,3.067045e-001
1.928548e+003,3.047341e-001
1.932405e+003,3.074825e-001
1.936262e+003,3.095734e-001
1.940119e+003,3.009010e-001
1.943977e+003,2.916025e-001
1.947834e+003,2.886519e-001
1.951691e+003,2.838162e-001
1.955548e+003,2.779642e-001
1.959405e+003,2.786365e-001
1.963262e+003,2.781244e-001
1.967119e+003,2.755929e-001
1.970976e+003,2.739583e-001
1.974833e+003,2.781354e-001
1.978690e+003,2.809283e-001
1.982547e+003,2.831141e-001
1.986405e+003,2.854142e-001
1.990262e+003,2.863555e-001
1.994119e+003,2.842554e-001
1.997976e+003,2.815099e-001
2.001833e+003,2.845874e-001
2.005690e+003,2.897567e-001
2.009547e+003,2.898157e-001
2.013404e+003,2.894143e-001
2.017261e+003,2.910587e-001
2.021118e+003,2.899785e-001
2.024976e+003,2.843547e-001
2.028833e+003,2.827365e-001
2.032690e+003,2.796950e-001
2.036547e+003,2.733652e-001
2.040404e+003,2.681473e-001
2.044261e+003,2.641538e-001
2.048118e+003,2.614828e-001
2.051975e+003,2.597584e-001
2.055832e+003,2.560408e-001
2.059689e+003,2.522869e-001
2.063546e+003,2.549252e-001
2.067404e+003,2.601892e-001
2.071261e+003,2.619469e-001
2.075118e+003,2.637152e-001
2.078975e+003,2.669252e-001
2.082832e+003,2.694101e-001
2.086689e+003,2.690746e-001
2.090546e+003,2.699683e-001
2.094403e+003,2.710718e-001
2.098260e+003,2.726473e-001
2.102117e+003,2.777686e-001
2.105975e+003,2.775155e-001
2.109832e+003,2.738114e-001
2.113689e+003,2.744018e-001
2.117546e+003,2.752200e-001
2.121403e+003,2.724568e-001
2.125260e+003,2.666013e-001
2.129117e+003,2.579742e-001
2.132974e+003,2.541270e-001
2.136831e+003,2.555037e-001
2.140688e+003,2.548410e-001
2.144545e+003,2.518919e-001
2.148403e+003,2.495934e-001
2.152260e+003,2.508578e-001
2.156117e+003,2.562809e-001
2.159974e+003,2.584977e-001
2.163831e+003,2.588859e-001
2.167688e+003,2.641928e-001
2.171545e+003,2.651166e-001
2.175402e+003,2.645486e-001
2.179259e+003,2.664969e-001
2.183116e+003,2.681649e-001
2.186974e+003,2.733217e-001
2.190831e+003,2.777419e-001
2.194688e+003,2.779368e-001
2.198545e+003,2.781465e-001
2.202402e+003,2.814608e-001
2.206259e+003,2.804599e-001
2.210116e+003,2.783224e-001
2.213973e+003,2.782984e-001
2.217830e+003,2.753283e-001
2.221688e+003,2.702597e-001
2.225544e+003,2.689391e-001
2.229402e+003,2.707422e-001
2.233259e+003,2.663819e-001
2.237116e+003,2.601586e-001
2.240973e+003,2.596780e-001
2.244830e+003,2.622036e-001
2.248687e+003,2.642573e-001
2.252544e+003,2.683023e-001
2.256401e+003,2.661812e-001
2.260258e+003,2.636749e-001
2.264115e+003,2.695306e-001
2.267973e+003,2.723930e-001
2.271830e+003,2.744395e-001
2.275687e+003,2.785878e-001
2.279544e+003,2.817494e-001
2.283401e+003,2.838835e-001
2.287258e+003,2.862576e-001
2.291115e+003,2.891191e-001
2.294972e+003,2.904361e-001
2.298829e+003,2.935238e-001
2.302687e+003,2.933734e-001
2.306543e+003,2.904096e-001
2.310401e+003,2.895993e-001
2.314258e+003,2.903582e-001
2.318115e+003,2.911790e-001
2.321972e+003,2.884958e-001
2.325829e+003,2.853881e-001
2.329686e+003,2.860508e-001
2.333543e+003,2.837020e-001
2.337400e+003,2.784106e-001
2.341257e+003,2.769771e-001
2.345115e+003,2.775323e-001
2.348972e+003,2.804418e-001
2.352829e+003,2.857772e-001
2.356686e+003,2.871457e-001
2.360543e+003,2.881640e-001
2.364400e+003,2.905708e-001
2.368257e+003,2.924205e-001
2.372114e+003,2.939621e-001
2.375971e+003,2.937121e-001
2.379828e+003,2.907508e-001
2.383686e+003,2.863947e-001
2.387542e+003,2.870466e-001
2.391400e+003,2.901631e-001
2.395257e+003,2.888536e-001
2.399114e+003,2.868633e-001
2.402971e+003,2.835393e-001
2.406828e+003,2.809281e-001
2.410685e+003,2.786036e-001
2.414542e+003,2.759908e-001
2.418399e+003,2.741542e-001
2.422256e+003,2.692092e-001
2.426114e+003,2.663912e-001
2.429971e+003,2.674134e-001
2.433828e+003,2.682849e-001
2.437685e+003,2.666045e-001
2.441542e+003,2.632213e-001
2.445399e+003,2.637312e-001
2.449256e+003,2.675375e-001
2.453113e+003,2.697140e-001
2.456970e+003,2.705444e-001
2.460827e+003,2.714168e-001
2.464684e+003,2.712467e-001
2.468542e+003,2.734743e-001
2.472399e+003,2.773638e-001
2.476256e+003,2.821031e-001
2.480113e+003,2.827608e-001
2.483970e+003,2.764355e-001
2.487827e+003,2.713145e-001
2.491684e+003,2.702593e-001
2.495541e+003,2.725795e-001
2.499398e+003,2.731365e-001
2.503255e+003,2.720537e-001
2.507113e+003,2.733546e-001
2.510969e+003,2.714075e-001
2.514827e+003,2.650107e-001
2.518684e+003,2.639625e-001
2.522541e+003,2.642663e-001
2.526398e+003,2.631522e-001
2.530255e+003,2.621187e-001
2.534112e+003,2.644130e-001
2.537969e+003,2.657875e-001
2.541826e+003,2.657388e-001
2.545683e+003,2.670369e-001
2.549541e+003,2.680962e-001
2.553398e+003,2.693886e-001
2.557255e+003,2.737029e-001
2.561112e+003,2.764538e-001
2.564969e+003,2.793200e-001
2.568826e+003,2.820182e-001
2.572683e+003,2.863613e-001
2.576540e+003,2.899682e-001
2.580397e+003,2.903602e-001
2.584254e+003,2.889485e-001
2.588112e+003,2.888337e-001
2.591969e+003,2.894108e-001
2.595826e+003,2.929958e-001
2.599683e+003,2.959788e-001
2.603540e+003,2.931550e-001
2.607397e+003,2.892624e-001
2.611254e+003,2.882941e-001
2.615111e+003,2.875866e-001
2.618968e+003,2.899337e-001
2.622825e+003,2.910670e-001
2.626682e+003,2.891662e-001
2.630540e+003,2.918276e-001
2.634397e+003,2.937830e-001
2.638254e+003,2.982799e-001
2.642111e+003,3.016841e-001
2.645968e+003,3.018512e-001
2.649825e+003,3.029321e-001
2.653682e+003,3.103351e-001
2.657539e+003,3.161998e-001
2.661396e+003,3.165441e-001
2.665253e+003,3.218440e-001
2.669111e+003,3.316771e-001
2.672968e+003,3.347487e-001
2.676825e+003,3.301437e-001
2.680682e+003,3.305346e-001
2.684539e+003,3.328900e-001
2.688396e+003,3.330513e-001
2.692253e+003,3.357103e-001
2.696110e+003,3.362630e-001
2.699967e+003,3.363384e-001
2.703824e+003,3.404050e-001
2.707681e+003,3.418339e-001
2.711539e+003,3.418183e-001
2.715396e+003,3.450208e-001
2.719253e+003,3.489457e-001
2.723110e+003,3.507543e-001
2.726967e+003,3.512244e-001
2.730824e+003,3.531395e-001
2.734681e+003,3.570551e-001
2.738538e+003,3.656463e-001
2.742395e+003,3.708679e-001
2.746252e+003,3.704738e-001
2.750110e+003,3.726735e-001
2.753967e+003,3.763413e-001
2.757824e+003,3.787794e-001
2.761681e+003,3.837190e-001
2.765538e+003,3.898841e-001
2.769395e+003,3.905030e-001
2.773252e+003,3.917497e-001
2.777109e+003,3.964168e-001
2.780966e+003,4.009508e-001
2.784823e+003,4.037485e-001
2.788680e+003,4.036593e-001
2.792538e+003,4.042436e-001
2.796395e+003,4.093190e-001
2.800252e+003,4.120829e-001
2.804109e+003,4.087940e-001
2.807966e+003,4.103184e-001
2.811823e+003,4.135837e-001
2.815680e+003,4.186675e-001
2.819537e+003,4.265617e-001
2.823394e+003,4.275031e-001
2.827251e+003,4.273235e-001
2.831109e+003,4.326603e-001
2.834966e+003,4.373820e-001
2.838823e+003,4.444524e-001
2.842680e+003,4.468913e-001
2.846537e+003,4.490226e-001
2.850394e+003,4.594949e-001
2.854251e+003,4.695491e-001
2.858108e+003,4.733877e-001
2.861965e+003,4.719747e-001
2.865823e+003,4.698101e-001
2.869679e+003,4.763325e-001
2.873537e+003,4.843643e-001
2.877394e+003,4.854786e-001
2.881251e+003,4.859149e-001
2.885108e+003,4.862823e-001
2.888965e+003,4.933263e-001
2.892822e+003,5.011277e-001
2.896679e+003,5.076446e-001
2.900536e+003,5.065690e-001
2.904393e+003,5.022557e-001
2.908250e+003,5.055353e-001
2.912108e+003,5.167367e-001
2.915965e+003,5.207004e-001
2.919822e+003,5.223892e-001
2.923679e+003,5.283268e-001
2.927536e+003,5.344287e-001
2.931393e+003,5.405808e-001
2.935250e+003,5.458148e-001
2.939107e+003,5.453631e-001
2.942964e+003,5.469075e-001
2.946822e+003,5.644428e-001
2.950678e+003,5.680682e-001
2.954536e+003,5.627139e-001
2.958393e+003,5.658133e-001
2.962250e+003,5.724489e-001
2.966107e+003,5.739465e-001
2.969964e+003,5.777543e-001
2.973821e+003,5.889761e-001
2.977678e+003,5.949594e-001
2.981535e+003,6.008512e-001
2.985392e+003,6.051030e-001
2.989250e+003,6.101411e-001
2.993107e+003,6.229047e-001
2.996964e+003,6.281134e-001
3.000821e+003,6.267915e-001
3.004678e+003,6.193168e-001
3.008535e+003,6.136962e-001
3.012392e+003,6.222814e-001
3.016249e+003,6.361489e-001
3.020106e+003,6.423905e-001
3.023963e+003,6.444128e-001
3.027821e+003,6.541099e-001
3.031677e+003,6.612079e-001
3.035535e+003,6.661569e-001
3.039392e+003,6.687051e-001
3.043249e+003,6.766599e-001
3.047106e+003,6.761961e-001
3.050963e+003,6.809076e-001
3.054820e+003,6.957564e-001
3.058677e+003,7.057694e-001
3.062534e+003,7.031600e-001
3.066391e+003,7.047683e-001
3.070249e+003,7.147943e-001
3.074106e+003,7.226446e-001
3.077963e+003,7.196568e-001
3.081820e+003,7.330269e-001
3.085677e+003,7.420133e-001
3.089534e+003,7.394753e-001
3.093391e+003,7.440566e-001
3.097248e+003,7.551440e-001
3.101105e+003,7.684100e-001
3.104962e+003,7.729130e-001
3.108820e+003,7.618973e-001
3.112677e+003,7.696214e-001
3.116534e+003,7.822766e-001
3.120391e+003,7.867116e-001
3.124248e+003,7.824985e-001
3.128105e+003,7.727804e-001
3.131962e+003,7.777481e-001
3.135819e+003,7.939923e-001
3.139676e+003,8.108894e-001
3.143533e+003,8.129652e-001
3.147390e+003,8.218178e-001
3.151248e+003,8.375084e-001
3.155105e+003,8.485100e-001
3.158962e+003,8.600506e-001
3.162819e+003,8.605223e-001
3.166676e+003,8.668257e-001
3.170533e+003,8.747572e-001
3.174390e+003,8.712814e-001
3.178247e+003,8.822984e-001
3.182104e+003,8.901748e-001
3.185961e+003,8.863263e-001
3.189819e+003,8.896138e-001
3.193676e+003,8.948042e-001
3.197533e+003,8.994796e-001
3.201390e+003,8.934077e-001
3.205247e+003,8.980435e-001
3.209104e+003,9.147490e-001
3.212961e+003,9.015545e-001
3.216818e+003,9.052274e-001
3.220675e+003,9.222230e-001
3.224532e+003,9.312038e-001
3.228389e+003,9.329899e-001
3.232247e+003,9.416293e-001
3.236104e+003,9.489524e-001
3.239961e+003,9.588048e-001
3.243818e+003,9.641371e-001
3.247675e+003,9.690791e-001
3.251532e+003,9.586771e-001
3.255389e+003,9.520965e-001
3.259246e+003,9.617721e-001
3.263103e+003,9.803424e-001
3.266960e+003,9.961162e-001
3.270818e+003,1.003216e+000
3.274675e+003,1.010795e+000
3.278532e+003,1.003492e+000
3.282389e+003,9.947253e-001
3.286246e+003,9.979990e-001
3.290103e+003,1.013564e+000
3.293960e+003,1.008255e+000
3.297817e+003,1.001280e+000
3.301674e+003,1.019903e+000
3.305531e+003,1.036147e+000
3.309388e+003,1.023338e+000
3.313246e+003,1.033436e+000
3.317103e+003,1.024252e+000
3.320960e+003,1.025877e+000
3.324817e+003,1.041153e+000
3.328674e+003,1.045526e+000
3.332531e+003,1.061433e+000
3.336388e+003,1.048399e+000
3.340245e+003,1.052800e+000
3.344102e+003,1.073404e+000
3.347959e+003,1.074624e+000
3.351817e+003,1.069760e+000
3.355674e+003,1.082202e+000
3.359531e+003,1.116090e+000
3.363388e+003,1.096062e+000
3.367245e+003,1.071784e+000
3.371102e+003,1.087404e+000
3.374959e+003,1.114084e+000
3.378816e+003,1.139513e+000
3.382673e+003,1.118620e+000
3.386530e+003,1.096089e+000
3.390387e+003,1.114557e+000
3.394245e+003,1.144076e+000
3.398102e+003,1.145769e+000
3.401959e+003,1.154842e+000
3.405816e+003,1.169700e+000
3.409673e+003,1.136454e+000
3.413530e+003,1.104656e+000
3.417387e+003,1.117935e+000
3.421244e+003,1.149275e+000
3.425101e+003,1.163918e+000
3.428958e+003,1.154555e+000
3.432815e+003,1.143509e+000
3.436673e+003,1.147684e+000
3.440530e+003,1.162223e+000
3.444387e+003,1.184524e+000
3.448244e+003,1.186718e+000
3.452101e+003,1.144970e+000
3.455958e+003,1.133861e+000
3.459815e+003,1.157911e+000
3.463672e+003,1.138350e+000
3.467529e+003,1.146151e+000
3.471386e+003,1.152027e+000
3.475244e+003,1.169038e+000
3.479101e+003,1.191051e+000
3.482958e+003,1.174374e+000
3.486815e+003,1.169498e+000
3.490672e+003,1.174755e+000
3.494529e+003,1.182939e+000
3.498386e+003,1.194273e+000
3.502243e+003,1.175420e+000
3.506100e+003,1.171979e+000
3.509958e+003,1.171046e+000
3.513814e+003,1.177634e+000
3.517672e+003,1.170619e+000
3.521529e+003,1.188609e+000
3.525386e+003,1.181698e+000
3.529243e+003,1.150038e+000
3.533100e+003,1.164682e+000
3.536957e+003,1.181543e+000
3.540814e+003,1.152172e+000
3.544671e+003,1.133734e+000
3.548528e+003,1.137860e+000
3.552385e+003,1.148583e+000
3.556243e+003,1.173509e+000
3.560100e+003,1.159939e+000
3.563957e+003,1.122250e+000
3.567814e+003,1.118585e+000
3.571671e+003,1.130037e+000
3.575528e+003,1.132398e+000
3.579385e+003,1.135968e+000
3.583242e+003,1.127984e+000
3.587099e+003,1.089748e+000
3.590957e+003,1.047900e+000
3.594813e+003,1.034364e+000
3.598671e+003,1.014333e+000
3.602528e+003,9.968355e-001
3.606385e+003,9.819031e-001
3.610242e+003,9.393892e-001
3.614099e+003,8.974984e-001
3.617956e+003,8.576422e-001
3.621813e+003,8.098898e-001
3.625670e+003,7.741638e-001
3.629527e+003,7.265890e-001
3.633385e+003,6.701122e-001
3.637242e+003,6.303231e-001
3.641099e+003,5.957283e-001
3.644956e+003,5.522873e-001
3.648813e+003,5.068984e-001
3.652670e+003,4.623938e-001
3.656527e+003,4.211285e-001
3.660384e+003,3.861024e-001
3.664241e+003,3.506756e-001
3.668098e+003,3.183410e-001
3.671956e+003,2.911923e-001
3.675813e+003,2.670633e-001
3.679670e+003,2.473468e-001
3.683527e+003,2.314521e-001
3.687384e+003,2.189158e-001
3.691241e+003,2.038424e-001
3.695098e+003,1.957100e-001
3.698955e+003,1.897952e-001
3.702812e+003,1.773199e-001
3.706669e+003,1.676331e-001
3.710526e+003,1.618294e-001
3.714384e+003,1.558745e-001
3.718241e+003,1.481516e-001
3.722098e+003,1.439484e-001
3.725955e+003,1.438339e-001
3.729812e+003,1.416547e-001
3.733669e+003,1.413637e-001
3.737526e+003,1.421096e-001
3.741383e+003,1.366815e-001
3.745240e+003,1.314917e-001
3.749097e+003,1.281181e-001
3.752955e+003,1.241039e-001
3.756812e+003,1.242321e-001
3.760669e+003,1.234036e-001
3.764526e+003,1.180125e-001
3.768383e+003,1.148645e-001
3.772240e+003,1.172774e-001
3.776097e+003,1.169707e-001
3.779954e+003,1.160189e-001
3.783811e+003,1.149903e-001
3.787668e+003,1.150789e-001
3.791525e+003,1.164252e-001
3.795383e+003,1.176937e-001
3.799240e+003,1.176050e-001
3.803097e+003,1.163513e-001
3.806954e+003,1.164978e-001
3.810811e+003,1.153879e-001
3.814668e+003,1.135964e-001
3.818525e+003,1.134313e-001
3.822382e+003,1.107505e-001
3.826239e+003,1.113200e-001
3.830096e+003,1.145892e-001
3.833954e+003,1.100742e-001
3.837811e+003,1.055534e-001
3.841668e+003,1.077546e-001
3.845525e+003,1.091610e-001
3.849382e+003,1.081121e-001
3.853239e+003,1.058742e-001
3.857096e+003,1.085384e-001
3.860953e+003,1.117284e-001
3.864810e+003,1.092108e-001
3.868667e+003,1.075193e-001
3.872524e+003,1.109506e-001
3.876382e+003,1.115770e-001
3.880239e+003,1.091494e-001
3.884096e+003,1.058937e-001
3.887953e+003,1.045076e-001
3.891810e+003,1.077945e-001
3.895667e+003,1.096947e-001
3.899524e+003,1.075704e-001
3.903381e+003,1.060410e-001
3.907238e+003,1.065533e-001
3.911095e+003,1.094485e-001
3.914953e+003,1.080416e-001
3.918810e+003,1.055607e-001
3.922667e+003,1.059427e-001
3.926524e+003,1.035328e-001
3.930381e+003,1.005823e-001
3.934238e+003,1.009022e-001
3.938095e+003,1.043493e-001
3.941952e+003,1.043720e-001
3.945809e+003,1.003591e-001
3.949667e+003,1.005521e-001
3.953523e+003,1.032626e-001
3.957381e+003,1.017142e-001
3.961238e+003,1.000670e-001
3.965095e+003,1.022576e-001
3.968952e+003,1.042694e-001
3.972809e+003,1.030321e-001
3.976666e+003,1.000611e-001
3.980523e+003,1.001144e-001
3.984380e+003,1.001051e-001
3.988237e+003,9.843794e-002
3.992094e+003,1.000586e-001
3.995952e+003,1.008494e-001
3.999809e+003,1.021423e-001
4.003666e+003,1.003436e-001
4.007523e+003,9.924444e-002
4.011380e+003,1.010724e-001
4.015237e+003,9.964133e-002
4.019094e+003,9.782299e-002
4.022951e+003,9.762555e-002
4.026808e+003,1.007786e-001
4.030666e+003,1.040932e-001
4.034522e+003,1.013285e-001
4.038380e+003,9.891635e-002
4.042237e+003,1.002663e-001
4.046094e+003,1.017837e-001
4.049951e+003,9.594746e-002
4.053808e+003,9.434223e-002
4.057665e+003,9.716058e-002
4.061522e+003,9.580602e-002
4.065379e+003,9.388755e-002
4.069236e+003,9.634871e-002
4.073094e+003,1.018335e-001
4.076951e+003,1.006972e-001
4.080808e+003,9.871218e-002
4.084665e+003,1.000402e-001
4.088522e+003,9.920684e-002
4.092379e+003,9.710712e-002
4.096236e+003,9.931815e-002
4.100093e+003,9.924614e-002
4.103950e+003,9.755076e-002
4.107808e+003,1.012572e-001
4.111665e+003,1.026094e-001
4.115521e+003,9.491080e-002
4.119379e+003,9.329325e-002
4.123236e+003,9.566563e-002
4.127093e+003,9.570532e-002
4.130950e+003,9.214068e-002
4.134807e+003,9.006246e-002
4.138664e+003,9.140071e-002
4.142521e+003,9.124982e-002
4.146378e+003,8.802274e-002
4.150235e+003,8.877230e-002
4.154093e+003,9.611040e-002
4.157950e+003,9.717061e-002
4.161807e+003,9.347722e-002
4.165664e+003,8.976894e-002
4.169521e+003,8.527535e-002
4.173378e+003,8.715292e-002
4.177235e+003,9.326257e-002
4.181092e+003,9.436999e-002
4.184949e+003,9.394801e-002
4.188807e+003,9.331243e-002
4.192664e+003,9.312833e-002
4.196521e+003,8.838376e-002
4.200378e+003,8.959395e-002
4.204235e+003,9.451594e-002
4.208092e+003,9.211520e-002
4.211949e+003,8.952475e-002
4.215806e+003,8.929703e-002
4.219663e+003,8.788589e-002
4.223521e+003,8.817011e-002
4.227377e+003,9.199778e-002
4.231234e+003,8.870597e-002
4.235092e+003,8.659935e-002
4.238949e+003,8.702505e-002
4.242806e+003,8.616659e-002
4.246663e+003,8.590924e-002
4.250520e+003,8.744480e-002
4.254377e+003,9.000038e-002
4.258234e+003,9.126724e-002
4.262091e+003,9.060507e-002
4.265948e+003,8.776527e-002
4.269806e+003,8.509099e-002
4.273663e+003,8.491385e-002
4.277520e+003,8.616404e-002
4.281377e+003,8.576268e-002
4.285234e+003,8.343723e-002
4.289091e+003,8.072650e-002
4.292948e+003,8.902416e-002
4.296805e+003,9.590568e-002
4.300662e+003,9.190655e-002
4.304520e+003,9.042551e-002
4.308376e+003,9.439395e-002
4.312233e+003,9.693826e-002
4.316091e+003,9.280179e-002
4.319948e+003,8.645336e-002
4.323805e+003,8.906610e-002
4.327662e+003,8.702079e-002
4.331519e+003,8.491506e-002
4.335376e+003,8.857130e-002
4.339233e+003,8.851979e-002
4.343090e+003,8.483783e-002
4.346947e+003,8.472924e-002
4.350805e+003,8.830969e-002
4.354662e+003,9.295760e-002
4.358519e+003,9.065933e-002
4.362376e+003,8.845881e-002
4.366233e+003,8.928987e-002
4.370090e+003,8.936912e-002
4.373947e+003,8.949882e-002
4.377804e+003,8.744391e-002
4.381661e+003,8.728885e-002
4.385519e+003,9.180965e-002
4.389375e+003,9.368556e-002
4.393232e+003,9.489113e-002
4.397090e+003,9.584383e-002
4.400947e+003,9.554046e-002
4.404804e+003,9.286530e-002
4.408661e+003,8.733248e-002
4.412518e+003,8.499040e-002
4.416375e+003,9.431107e-002
4.420232e+003,9.895767e-002
4.424089e+003,9.671850e-002
4.427946e+003,9.423371e-002
4.431804e+003,9.645826e-002
4.435661e+003,1.014017e-001
4.439518e+003,9.540449e-002
4.443375e+003,8.911438e-002
4.447232e+003,8.913911e-002
4.451089e+003,9.199627e-002
4.454946e+003,1.001147e-001
4.458803e+003,9.822448e-002
4.462660e+003,9.614968e-002
4.466518e+003,9.726822e-002
4.470375e+003,9.808397e-002
4.474231e+003,9.987017e-002
4.478089e+003,9.999153e-002
4.481946e+003,9.657400e-002
4.485803e+003,8.989567e-002
4.489660e+003,9.006634e-002
4.493517e+003,9.300406e-002
4.497375e+003,9.853326e-002
4.501231e+003,1.045065e-001
4.505088e+003,1.021653e-001
4.508946e+003,9.969135e-002
4.512803e+003,9.637833e-002
4.516660e+003,9.181423e-002
4.520517e+003,9.349649e-002
4.524374e+003,9.072776e-002
4.528231e+003,8.788415e-002
4.532088e+003,9.440009e-002
4.535945e+003,9.909143e-002
4.539802e+003,9.705255e-002
4.543660e+003,9.764310e-002
4.547517e+003,1.006092e-001
4.551374e+003,9.807329e-002
4.555231e+003,9.378005e-002
4.559088e+003,9.403223e-002
4.562945e+003,8.883991e-002
4.566802e+003,8.971178e-002
4.570659e+003,9.214855e-002
4.574516e+003,9.719129e-002
4.578374e+003,9.582408e-002
4.582230e+003,9.630826e-002
4.586087e+003,9.716655e-002
4.589945e+003,9.645929e-002
4.593802e+003,9.678495e-002
4.597659e+003,9.555157e-002
4.601516e+003,9.278411e-002
4.605373e+003,9.651184e-002
4.609230e+003,9.805456e-002
4.613087e+003,9.827816e-002
4.616944e+003,9.053144e-002
4.620801e+003,8.933700e-002
4.624659e+003,9.328615e-002
4.628516e+003,9.156358e-002
4.632373e+003,9.045056e-002
4.636230e+003,9.470100e-002
4.640087e+003,9.853517e-002
4.643944e+003,9.893266e-002
4.647801e+003,9.965087e-002
4.651658e+003,9.943228e-002
4.655515e+003,9.266625e-002
4.659373e+003,8.822118e-002
4.663229e+003,9.308884e-002
4.667086e+003,1.001566e-001
4.670944e+003,9.859038e-002
4.674801e+003,1.003914e-001
4.678658e+003,1.022728e-001
4.682515e+003,1.028613e-001
4.686372e+003,9.751961e-002
4.690229e+003,9.502089e-002
4.694086e+003,9.690206e-002
4.697943e+003,1.007761e-001
4.701800e+003,1.017555e-001
4.705658e+003,9.943765e-002
4.709515e+003,1.040155e-001
4.713372e+003,1.015400e-001
4.717229e+003,9.745902e-002
4.721086e+003,9.547552e-002
4.724943e+003,9.784905e-002
4.728800e+003,1.049231e-001
4.732657e+003,1.063384e-001
4.736514e+003,9.991132e-002
4.740372e+003,9.603719e-002
4.744229e+003,9.968868e-002
4.748085e+003,9.432115e-002
4.751943e+003,8.963386e-002
4.755800e+003,9.917066e-002
4.759657e+003,1.049950e-001
4.763514e+003,9.679969e-002
4.767371e+003,9.380850e-002
4.771228e+003,1.011358e-001
4.775085e+003,1.054197e-001
4.778942e+003,1.052415e-001
4.782799e+003,1.063896e-001
4.786657e+003,1.069538e-001
4.790514e+003,1.044412e-001
4.794371e+003,1.032319e-001
4.798228e+003,1.022100e-001
4.802085e+003,1.022985e-001
4.805942e+003,9.967022e-002
4.809799e+003,9.278280e-002
4.813656e+003,8.988201e-002
4.817513e+003,9.374513e-002
4.821371e+003,1.068373e-001
4.825228e+003,1.115618e-001
4.829084e+003,1.047491e-001
4.832942e+003,1.038057e-001
4.836799e+003,1.047442e-001
4.840656e+003,9.986003e-002
4.844513e+003,9.849094e-002
4.848370e+003,1.029015e-001
4.852227e+003,1.050129e-001
4.856084e+003,1.013827e-001
4.859941e+003,9.574885e-002
4.863798e+003,9.839384e-002
4.867656e+003,1.069560e-001
4.871513e+003,1.111165e-001
4.875370e+003,1.073954e-001
4.879227e+003,1.075242e-001
4.883084e+003,1.095930e-001
4.886941e+003,1.076660e-001
4.890798e+003,1.065012e-001
4.894655e+003,1.082786e-001
4.898512e+003,1.103297e-001
4.902370e+003,1.089338e-001
4.906227e+003,1.059482e-001
4.910083e+003,1.019971e-001
4.913941e+003,1.014513e-001
4.917798e+003,1.081405e-001
4.921655e+003,1.154351e-001
4.925512e+003,1.145760e-001
4.929369e+003,1.044124e-001
4.933226e+003,9.939512e-002
4.937083e+003,1.038556e-001
4.940940e+003,1.115922e-001
4.944797e+003,1.174819e-001
4.948655e+003,1.155966e-001
4.952512e+003,1.133931e-001
4.956369e+003,1.126902e-001
4.960226e+003,1.129933e-001
4.964083e+003,1.179902e-001
4.967940e+003,1.182288e-001
4.971797e+003,1.161597e-001
4.975654e+003,1.204199e-001
4.979511e+003,1.203741e-001
4.983369e+003,1.155606e-001
4.987226e+003,1.149078e-001
4.991083e+003,1.182331e-001
4.994940e+003,1.222192e-001
4.998797e+003,1.209198e-001
5.002654e+003,1.238264e-001
5.006511e+003,1.200910e-001
5.010368e+003,1.082903e-001
5.014225e+003,1.103492e-001
5.018083e+003,1.171557e-001
5.021939e+003,1.185985e-001
5.025796e+003,1.137928e-001
5.029654e+003,1.105160e-001
5.033511e+003,1.090526e-001
5.037368e+003,1.172368e-001
5.041225e+003,1.245562e-001
5.045082e+003,1.234170e-001
5.048939e+003,1.224069e-001
5.052796e+003,1.220049e-001
5.056653e+003,1.257638e-001
5.060510e+003,1.249131e-001
5.064368e+003,1.192303e-001
5.068225e+003,1.239459e-001
5.072082e+003,1.310651e-001
5.075939e+003,1.295190e-001
5.079796e+003,1.315312e-001
5.083653e+003,1.359150e-001
5.087510e+003,1.280229e-001
5.091367e+003,1.208356e-001
5.095224e+003,1.184151e-001
5.099082e+003,1.230983e-001
5.102938e+003,1.218490e-001
5.106795e+003,1.260513e-001
5.110653e+003,1.272494e-001
5.114510e+003,1.225143e-001
5.118367e+003,1.152326e-001
5.122224e+003,1.130510e-001
5.126081e+003,1.175728e-001
5.129938e+003,1.178892e-001
5.133795e+003,1.179497e-001
5.137652e+003,1.161776e-001
5.141509e+003,1.192676e-001
5.145367e+003,1.250257e-001
5.149224e+003,1.201136e-001
5.153081e+003,1.199891e-001
5.156938e+003,1.224996e-001
5.160795e+003,1.274048e-001
5.164652e+003,1.305536e-001
5.168509e+003,1.309689e-001
5.172366e+003,1.354945e-001
5.176223e+003,1.319581e-001
5.180081e+003,1.295929e-001
5.183938e+003,1.281491e-001
5.187794e+003,1.324911e-001
5.191652e+003,1.409097e-001
5.195509e+003,1.419181e-001
5.199366e+003,1.361517e-001
5.203223e+003,1.310190e-001
5.207080e+003,1.347552e-001
5.210937e+003,1.340438e-001
5.214794e+003,1.321638e-001
5.218651e+003,1.304616e-001
5.222508e+003,1.288128e-001
5.226366e+003,1.322958e-001
5.230223e+003,1.304195e-001
5.234080e+003,1.247610e-001
5.237937e+003,1.240956e-001
5.241794e+003,1.299478e-001
5.245651e+003,1.297785e-001
5.249508e+003,1.174553e-001
5.253365e+003,1.203010e-001
5.257222e+003,1.245784e-001
5.261080e+003,1.299951e-001
5.264937e+003,1.341925e-001
5.268793e+003,1.308004e-001
5.272651e+003,1.260918e-001
5.276508e+003,1.272263e-001
5.280365e+003,1.323650e-001
5.284222e+003,1.381931e-001
5.288079e+003,1.332616e-001
5.291936e+003,1.305814e-001
5.295793e+003,1.305070e-001
5.299650e+003,1.320299e-001
5.303507e+003,1.268872e-001
5.307365e+003,1.164623e-001
5.311222e+003,1.192627e-001
5.315079e+003,1.202593e-001
5.318936e+003,1.207633e-001
5.322793e+003,1.164417e-001
5.326650e+003,1.110136e-001
5.330507e+003,1.130666e-001
5.334364e+003,1.166576e-001
5.338221e+003,1.184590e-001
5.342079e+003,1.244172e-001
5.345936e+003,1.336060e-001
5.349792e+003,1.377614e-001
5.353650e+003,1.359937e-001
5.357507e+003,1.334232e-001
5.361364e+003,1.273069e-001
5.365221e+003,1.234918e-001
5.369078e+003,1.279284e-001
5.372935e+003,1.282335e-001
5.376792e+003,1.287672e-001
5.380649e+003,1.353089e-001
5.384506e+003,1.346789e-001
5.388364e+003,1.296137e-001
5.392221e+003,1.322688e-001
5.396078e+003,1.309132e-001
5.399935e+003,1.305851e-001
5.403792e+003,1.404053e-001
5.407649e+003,1.437194e-001
5.411506e+003,1.389223e-001
5.415363e+003,1.316853e-001
5.419220e+003,1.346008e-001
5.423078e+003,1.370751e-001
5.426935e+003,1.366724e-001
5.430792e+003,1.257938e-001
5.434649e+003,1.201433e-001
5.438506e+003,1.207231e-001
5.442363e+003,1.191228e-001
5.446220e+003,1.275512e-001
5.450077e+003,1.308693e-001
5.453934e+003,1.262237e-001
5.457792e+003,1.277621e-001
5.461648e+003,1.295300e-001
5.465505e+003,1.330773e-001
5.469363e+003,1.371173e-001
5.473220e+003,1.250708e-001
5.477077e+003,1.217403e-001
5.480934e+003,1.375211e-001
5.484791e+003,1.452515e-001
5.488648e+003,1.430392e-001
5.492505e+003,1.339848e-001
5.496362e+003,1.260020e-001
5.500219e+003,1.294035e-001
5.504077e+003,1.316095e-001
5.507934e+003,1.244646e-001
5.511791e+003,1.243910e-001
5.515648e+003,1.250292e-001
5.519505e+003,1.279553e-001
5.523362e+003,1.324597e-001
5.527219e+003,1.350885e-001
5.531076e+003,1.342127e-001
5.534933e+003,1.385525e-001
5.538791e+003,1.341752e-001
5.542647e+003,1.275918e-001
5.546504e+003,1.336441e-001
5.550362e+003,1.378618e-001
5.554219e+003,1.291806e-001
5.558076e+003,1.296183e-001
5.561933e+003,1.360958e-001
5.565790e+003,1.378773e-001
5.569647e+003,1.411602e-001
5.573504e+003,1.443068e-001
5.577361e+003,1.460037e-001
5.581218e+003,1.389728e-001
5.585076e+003,1.423205e-001
5.588933e+003,1.513324e-001
5.592790e+003,1.579018e-001
5.596647e+003,1.559538e-001
5.600504e+003,1.387947e-001
5.604361e+003,1.313660e-001
5.608218e+003,1.301869e-001
5.612075e+003,1.322232e-001
5.615932e+003,1.352166e-001
5.619790e+003,1.396974e-001
5.623646e+003,1.419806e-001
5.627503e+003,1.390157e-001
5.631361e+003,1.342073e-001
5.635218e+003,1.286148e-001
5.639075e+003,1.312377e-001
5.642932e+003,1.470902e-001
5.646789e+003,1.501672e-001
5.650646e+003,1.401033e-001
5.654503e+003,1.346428e-001
5.658360e+003,1.412998e-001
5.662217e+003,1.428844e-001
5.666075e+003,1.419345e-001
5.669932e+003,1.389045e-001
5.673789e+003,1.366316e-001
5.677646e+003,1.456295e-001
5.681503e+003,1.490444e-001
5.685360e+003,1.591708e-001
5.689217e+003,1.626871e-001
5.693074e+003,1.649118e-001
5.696931e+003,1.592539e-001
5.700789e+003,1.552518e-001
5.704646e+003,1.546391e-001
5.708502e+003,1.379158e-001
5.712360e+003,1.328889e-001
5.716217e+003,1.395899e-001
5.720074e+003,1.440994e-001
5.723931e+003,1.458387e-001
5.727788e+003,1.464523e-001
5.731645e+003,1.393289e-001
5.735502e+003,1.347479e-001
5.739359e+003,1.366204e-001
5.743216e+003,1.423230e-001
5.747074e+003,1.396726e-001
5.750931e+003,1.432193e-001
5.754788e+003,1.535321e-001
5.758645e+003,1.599751e-001
5.762502e+003,1.488103e-001
5.766359e+003,1.381657e-001
5.770216e+003,1.400722e-001
5.774073e+003,1.337824e-001
5.777930e+003,1.333999e-001
5.781788e+003,1.306430e-001
5.785645e+003,1.308618e-001
5.789501e+003,1.374728e-001
5.793359e+003,1.435508e-001
5.797216e+003,1.353842e-001
5.801073e+003,1.342049e-001
5.804930e+003,1.422903e-001
5.808787e+003,1.376705e-001
5.812644e+003,1.375924e-001
5.816501e+003,1.447159e-001
5.820358e+003,1.442976e-001
5.824215e+003,1.532300e-001
5.828073e+003,1.510714e-001
5.831930e+003,1.330362e-001
5.835787e+003,1.269460e-001
5.839644e+003,1.322437e-001
5.843501e+003,1.310407e-001
5.847358e+003,1.329746e-001
5.851215e+003,1.378764e-001
5.855072e+003,1.409115e-001
5.858929e+003,1.481343e-001
5.862787e+003,1.544679e-001
5.866644e+003,1.582859e-001
5.870500e+003,1.551909e-001
5.874358e+003,1.511396e-001
5.878215e+003,1.537053e-001
5.882072e+003,1.502152e-001
5.885929e+003,1.450810e-001
5.889786e+003,1.481031e-001
5.893643e+003,1.558301e-001
5.897500e+003,1.522908e-001
5.901357e+003,1.420224e-001
5.905214e+003,1.348909e-001
5.909072e+003,1.408949e-001
5.912929e+003,1.560807e-001
5.916786e+003,1.661217e-001
5.920643e+003,1.554004e-001
5.924500e+003,1.424905e-001
5.928357e+003,1.466835e-001
5.932214e+003,1.514575e-001
5.936071e+003,1.539252e-001
5.939928e+003,1.494321e-001
5.943786e+003,1.449910e-001
5.947643e+003,1.465648e-001
5.951500e+003,1.517881e-001
5.955357e+003,1.484814e-001
5.959214e+003,1.364821e-001
5.963071e+003,1.328683e-001
5.966928e+003,1.347231e-001
5.970785e+003,1.337975e-001
5.974642e+003,1.433253e-001
5.978500e+003,1.524490e-001
5.982356e+003,1.401805e-001
5.986213e+003,1.310851e-001
5.990071e+003,1.393199e-001
5.993928e+003,1.535385e-001
5.997785e+003,1.529528e-001
6.001642e+003,1.511788e-001
6.005499e+003,1.566103e-001
6.009356e+003,1.515760e-001
6.013213e+003,1.512514e-001
6.017070e+003,1.500658e-001
6.020927e+003,1.474615e-001
6.024785e+003,1.461742e-001
6.028642e+003,1.554081e-001
6.032499e+003,1.624393e-001
6.036356e+003,1.545769e-001
6.040213e+003,1.462332e-001
6.044070e+003,1.411761e-001
6.047927e+003,1.420500e-001
6.051784e+003,1.468403e-001
6.055641e+003,1.444941e-001
6.059499e+003,1.390615e-001
6.063355e+003,1.443404e-001
6.067212e+003,1.480751e-001
6.071070e+003,1.330702e-001
6.074927e+003,1.315380e-001
6.078784e+003,1.480647e-001
6.082641e+003,1.507427e-001
6.086498e+003,1.447893e-001
6.090355e+003,1.405184e-001
6.094212e+003,1.473581e-001
6.098069e+003,1.551002e-001
6.101926e+003,1.595545e-001
6.105784e+003,1.586573e-001
6.109641e+003,1.467843e-001
6.113498e+003,1.346857e-001
6.117355e+003,1.350715e-001
6.121212e+003,1.406109e-001
6.125069e+003,1.343556e-001
6.128926e+003,1.319828e-001
6.132783e+003,1.260778e-001
6.136640e+003,1.307081e-001
6.140498e+003,1.362653e-001
6.144354e+003,1.405728e-001
6.148211e+003,1.401375e-001
6.152069e+003,1.326503e-001
6.155926e+003,1.315720e-001
6.159783e+003,1.430506e-001
6.163640e+003,1.386518e-001
6.167497e+003,1.291948e-001
6.171354e+003,1.388444e-001
6.175211e+003,1.513631e-001
6.179068e+003,1.523416e-001
6.182925e+003,1.430265e-001
6.186783e+003,1.343309e-001
6.190640e+003,1.403084e-001
6.194497e+003,1.534882e-001
6.198354e+003,1.546044e-001
6.202211e+003,1.508521e-001
6.206068e+003,1.479978e-001
6.209925e+003,1.394874e-001
6.213782e+003,1.364298e-001
6.217639e+003,1.438155e-001
6.221497e+003,1.507424e-001
6.225354e+003,1.537471e-001
6.229210e+003,1.576494e-001
6.233068e+003,1.533506e-001
6.236925e+003,1.440714e-001
6.240782e+003,1.462854e-001
6.244639e+003,1.555375e-001
6.248496e+003,1.693456e-001
6.252353e+003,1.737311e-001
6.256210e+003,1.495040e-001
6.260067e+003,1.364627e-001
6.263924e+003,1.470074e-001
6.267782e+003,1.733118e-001
6.271639e+003,1.630038e-001
6.275496e+003,1.485088e-001
6.279353e+003,1.613201e-001
6.283210e+003,1.485901e-001
6.287067e+003,1.373647e-001
6.290924e+003,1.393523e-001
6.294781e+003,1.366231e-001
6.298638e+003,1.411318e-001
6.302496e+003,1.476157e-001
6.306353e+003,1.473438e-001
6.310209e+003,1.445330e-001
6.314067e+003,1.557960e-001
6.317924e+003,1.494398e-001
6.321781e+003,1.439333e-001
6.325638e+003,1.424765e-001
6.329495e+003,1.270995e-001
6.333352e+003,1.302403e-001
6.337209e+003,1.611313e-001
6.341066e+003,1.708876e-001
6.344923e+003,1.420111e-001
6.348780e+003,1.342444e-001
6.352638e+003,1.405222e-001
6.356495e+003,1.404559e-001
6.360352e+003,1.485176e-001
6.364209e+003,1.542500e-001
6.368066e+003,1.491964e-001
6.371923e+003,1.555702e-001
6.375780e+003,1.649178e-001
6.379637e+003,1.479637e-001
6.383494e+003,1.554357e-001
6.387352e+003,1.592992e-001
6.391208e+003,1.440393e-001
6.395065e+003,1.509217e-001
6.398923e+003,1.585811e-001
6.402780e+003,1.429725e-001
6.406637e+003,1.418664e-001
6.410494e+003,1.479745e-001
6.414351e+003,1.519440e-001
6.418208e+003,1.438500e-001
6.422065e+003,1.340469e-001
6.425922e+003,1.502657e-001
6.429779e+003,1.709792e-001
6.433637e+003,1.659934e-001
6.437494e+003,1.502170e-001
6.441351e+003,1.533385e-001
6.445208e+003,1.534338e-001
6.449065e+003,1.591946e-001
6.452922e+003,1.639461e-001
6.456779e+003,1.692780e-001
6.460636e+003,1.690133e-001
6.464493e+003,1.657536e-001
6.468351e+003,1.669571e-001
6.472208e+003,1.617682e-001
6.476064e+003,1.527937e-001
6.479922e+003,1.437926e-001
6.483779e+003,1.586051e-001
6.487636e+003,1.562008e-001
6.491493e+003,1.529235e-001
6.495350e+003,1.441553e-001
6.499207e+003,1.389912e-001
6.503064e+003,1.346356e-001
6.506921e+003,1.202811e-001
6.510778e+003,1.205515e-001
6.514636e+003,1.287719e-001
6.518493e+003,1.384441e-001
6.522350e+003,1.419723e-001
6.526207e+003,1.470580e-001
6.530064e+003,1.586589e-001
6.533921e+003,1.710105e-001
6.537778e+003,1.557350e-001
6.541635e+003,1.414921e-001
6.545492e+003,1.447184e-001
6.549350e+003,1.703878e-001
6.553207e+003,1.671172e-001
6.557063e+003,1.442001e-001
6.560921e+003,1.492707e-001
6.564778e+003,1.804863e-001
6.568635e+003,1.687461e-001
6.572492e+003,1.510709e-001
6.576349e+003,1.673965e-001
6.580206e+003,1.600876e-001
6.584063e+003,1.562549e-001
6.587920e+003,1.753859e-001
6.591777e+003,1.883666e-001
6.595635e+003,1.855801e-001
6.599492e+003,1.655634e-001
6.603349e+003,1.524619e-001
6.607206e+003,1.636379e-001
6.611063e+003,1.506270e-001
6.614920e+003,1.628847e-001
6.618777e+003,1.594141e-001
6.622634e+003,1.454465e-001
6.626491e+003,1.403360e-001
6.630349e+003,1.364877e-001
6.634206e+003,1.275387e-001
6.638063e+003,1.296037e-001
6.641920e+003,1.482480e-001
6.645777e+003,1.632956e-001
6.649634e+003,1.502807e-001
6.653491e+003,1.485702e-001
6.657348e+003,1.693464e-001
6.661205e+003,1.804692e-001
6.665063e+003,1.680505e-001
6.668919e+003,1.513716e-001
6.672776e+003,1.560089e-001
6.676634e+003,1.625830e-001
6.680491e+003,1.599279e-001
6.684348e+003,1.476034e-001
6.688205e+003,1.483727e-001
6.692062e+003,1.489477e-001
6.695919e+003,1.539187e-001
6.699776e+003,1.619353e-001
6.703633e+003,1.565619e-001
6.707490e+003,1.656140e-001
6.711348e+003,1.506549e-001
6.715205e+003,1.429635e-001
6.719062e+003,1.627175e-001
6.722919e+003,1.540061e-001
6.726776e+003,1.387860e-001
6.730633e+003,1.590059e-001
6.734490e+003,1.666161e-001
6.738347e+003,1.538045e-001
6.742204e+003,1.438644e-001
6.746062e+003,1.451570e-001
6.749918e+003,1.449784e-001
6.753775e+003,1.516355e-001
6.757633e+003,1.471424e-001
6.761490e+003,1.269142e-001
6.765347e+003,1.233659e-001
6.769204e+003,1.258847e-001
6.773061e+003,1.500540e-001
6.776918e+003,1.765780e-001
6.780775e+003,1.593338e-001
6.784632e+003,1.334730e-001
6.788489e+003,1.329226e-001
6.792347e+003,1.403061e-001
6.796204e+003,1.585351e-001
6.800061e+003,1.669043e-001
6.803918e+003,1.749669e-001
6.807775e+003,1.746872e-001
6.811632e+003,1.532327e-001
6.815489e+003,1.514844e-001
6.819346e+003,1.618090e-001
6.823203e+003,1.560947e-001
6.827061e+003,1.450550e-001
6.830917e+003,1.461854e-001
6.834774e+003,1.467910e-001
6.838632e+003,1.508898e-001
6.842489e+003,1.774246e-001
6.846346e+003,1.961257e-001
6.850203e+003,1.818628e-001
6.854060e+003,1.774958e-001
6.857917e+003,1.683365e-001
6.861774e+003,1.408201e-001
6.865631e+003,1.483354e-001
6.869488e+003,1.716274e-001
6.873346e+003,1.679722e-001
6.877203e+003,1.542360e-001
6.881060e+003,1.605778e-001
6.884917e+003,1.649294e-001
6.888774e+003,1.793703e-001
6.892631e+003,1.732657e-001
6.896488e+003,1.596573e-001
6.900345e+003,1.717180e-001
6.904202e+003,1.610313e-001
6.908060e+003,1.377728e-001
6.911917e+003,1.393002e-001
6.915773e+003,1.482867e-001
6.919631e+003,1.638169e-001
6.923488e+003,1.521097e-001
6.927345e+003,1.285587e-001
6.931202e+003,1.266903e-001
6.935059e+003,1.371878e-001
6.938916e+003,1.237781e-001
6.942773e+003,1.234320e-001
6.946630e+003,1.278403e-001
6.950487e+003,1.305121e-001
6.954345e+003,1.449080e-001
6.958202e+003,1.501895e-001
6.962059e+003,1.671730e-001
6.965916e+003,1.699178e-001
6.969773e+003,1.730963e-001
6.973630e+003,1.579878e-001
6.977487e+003,1.258181e-001
6.981344e+003,1.288732e-001
6.985201e+003,1.282961e-001
6.989059e+003,1.470733e-001
6.992916e+003,1.516715e-001
6.996772e+003,1.175379e-001
7.000630e+003,1.150215e-001
7.004487e+003,1.338992e-001
7.008344e+003,1.508300e-001
7.012201e+003,1.585061e-001
7.016058e+003,1.468035e-001
7.019915e+003,1.642984e-001
7.023772e+003,1.636735e-001
7.027629e+003,1.458790e-001
7.031486e+003,1.320872e-001
7.035344e+003,1.240990e-001
7.039201e+003,1.294455e-001
7.043058e+003,1.702218e-001
7.046915e+003,1.754772e-001
7.050772e+003,1.491167e-001
7.054629e+003,1.411420e-001
7.058486e+003,1.466845e-001
7.062343e+003,1.480053e-001
7.066200e+003,1.582233e-001
7.070058e+003,1.630550e-001
7.073915e+003,1.786866e-001
7.077771e+003,1.759345e-001
7.081629e+003,1.441043e-001
7.085486e+003,1.468721e-001
7.089343e+003,1.629682e-001
7.093200e+003,1.573028e-001
7.097057e+003,1.522366e-001
7.100914e+003,1.466586e-001
7.104771e+003,1.374505e-001
7.108628e+003,1.427012e-001
7.112485e+003,1.687920e-001
7.116343e+003,1.887406e-001
7.120200e+003,1.432901e-001
7.124057e+003,1.285091e-001
7.127914e+003,1.755169e-001
7.131771e+003,2.032990e-001
7.135628e+003,1.839153e-001
7.139485e+003,1.837232e-001
7.143342e+003,1.786208e-001
7.147199e+003,1.758329e-001
7.151057e+003,1.745432e-001
7.154914e+003,1.719180e-001
7.158771e+003,1.568570e-001
7.162628e+003,1.121026e-001
7.166485e+003,9.950894e-002
7.170342e+003,1.344747e-001
7.174199e+003,1.428893e-001
7.178056e+003,1.296736e-001
7.181913e+003,1.327884e-001
7.185771e+003,1.594335e-001
7.189627e+003,1.437037e-001
7.193484e+003,1.293175e-001
7.197342e+003,1.597421e-001
7.201199e+003,1.536812e-001
7.205056e+003,1.403923e-001
7.208913e+003,1.533083e-001
7.212770e+003,1.598946e-001
7.216627e+003,1.569760e-001
7.220484e+003,1.327821e-001
7.224341e+003,1.242403e-001
7.228198e+003,1.216455e-001
7.232056e+003,1.383429e-001
7.235913e+003,1.685630e-001
7.239770e+003,1.497758e-001
7.243627e+003,1.208932e-001
7.247484e+003,9.347245e-002
7.251341e+003,1.017100e-001
7.255198e+003,1.515602e-001
7.259055e+003,1.700250e-001
7.262912e+003,1.425343e-001
7.266770e+003,1.432206e-001
7.270626e+003,1.312004e-001
7.274483e+003,1.230900e-001
7.278341e+003,1.276504e-001
7.282198e+003,1.461465e-001
7.286055e+003,1.491434e-001
7.289912e+003,1.449723e-001
7.293769e+003,1.339952e-001
7.297626e+003,1.279718e-001
7.301483e+003,1.442801e-001
7.305340e+003,1.396143e-001
7.309197e+003,1.489471e-001
7.313055e+003,1.386066e-001
7.316912e+003,1.086799e-001
7.320769e+003,1.363233e-001
7.324626e+003,1.501318e-001
7.328483e+003,1.162160e-001
7.332340e+003,1.179725e-001
7.336197e+003,1.463572e-001
7.340054e+003,1.449619e-001
7.343911e+003,1.392803e-001
7.347769e+003,1.448518e-001
7.351625e+003,1.608765e-001
7.355482e+003,1.559285e-001
7.359340e+003,1.339650e-001
7.363197e+003,1.516532e-001
7.367054e+003,1.293176e-001
7.370911e+003,1.404597e-001
7.374768e+003,1.589547e-001
7.378625e+003,1.695621e-001
7.382482e+003,1.524135e-001
7.386339e+003,1.500214e-001
7.390196e+003,1.707369e-001
7.394054e+003,1.635352e-001
7.397911e+003,1.203180e-001
7.401768e+003,1.146905e-001
7.405625e+003,1.293494e-001
7.409482e+003,1.182845e-001
7.413339e+003,1.404577e-001
7.417196e+003,1.387834e-001
7.421053e+003,7.957894e-002
7.424910e+003,1.005412e-001
7.428768e+003,1.806833e-001
7.432625e+003,2.018092e-001
7.436481e+003,1.520778e-001
7.440339e+003,1.032737e-001
7.444196e+003,9.140071e-002
7.448053e+003,1.133109e-001
7.451910e+003,1.092373e-001
7.455767e+003,1.193374e-001
7.459624e+003,1.671881e-001
7.463481e+003,1.919704e-001
7.467338e+003,1.607631e-001
7.471195e+003,1.580598e-001
7.475053e+003,1.515986e-001
7.478910e+003,1.289190e-001
7.482767e+003,9.312743e-002
7.486624e+003,1.270765e-001
7.490481e+003,1.559314e-001
7.494338e+003,1.482574e-001
7.498195e+003,1.698593e-001
7.502052e+003,2.022890e-001
7.505909e+003,1.785695e-001
7.509767e+003,1.154838e-001
7.513624e+003,5.605436e-002
7.517480e+003,5.268818e-002
7.521338e+003,1.058273e-001
7.525195e+003,1.600290e-001
7.529052e+003,1.716984e-001
7.532909e+003,1.666219e-001
7.536766e+003,1.091759e-001
7.540623e+003,7.620762e-002
7.544480e+003,1.324417e-001
7.548337e+003,2.152283e-001
7.552194e+003,2.295350e-001
7.556052e+003,2.092652e-001
7.559909e+003,1.648744e-001
7.563766e+003,1.248504e-001
7.567623e+003,1.565317e-001
7.571480e+003,1.642796e-001
7.575337e+003,1.626324e-001
7.579194e+003,2.099967e-001
7.583051e+003,2.173862e-001
7.586908e+003,1.910017e-001
7.590766e+003,1.669122e-001
7.594623e+003,1.749782e-001
7.598479e+003,1.790080e-001
7.602337e+003,1.256534e-001
7.606194e+003,1.781600e-001
7.610051e+003,2.092470e-001
7.613908e+003,1.203456e-001
7.617765e+003,4.999046e-002
7.621622e+003,7.227683e-002
7.625479e+003,1.411743e-001
7.629336e+003,1.509230e-001
7.633193e+003,1.232628e-001
7.637051e+003,1.319261e-001
7.640908e+003,1.773990e-001
7.644765e+003,2.169444e-001
7.648622e+003,1.689197e-001
7.652479e+003,1.598720e-001
7.656336e+003,1.967520e-001
7.660193e+003,1.336792e-001
7.664050e+003,2.325348e-002
7.667907e+003,3.132317e-002
7.671765e+003,4.688219e-002
7.675622e+003,8.065991e-002
7.679479e+003,1.463490e-001
7.683336e+003,1.613263e-001
7.687193e+003,1.011398e-001
7.691050e+003,6.435451e-002
7.694907e+003,1.387249e-001
7.698764e+003,2.027629e-001
7.702621e+003,2.156023e-001
7.706479e+003,1.877294e-001
7.710335e+003,1.571736e-001
7.714192e+003,1.118724e-001
7.718050e+003,8.057621e-002
7.721907e+003,1.370841e-001
7.725764e+003,2.033004e-001
7.729621e+003,1.720875e-001
7.733478e+003,9.799597e-002
7.737335e+003,9.217251e-002
7.741192e+003,1.147109e-001
7.745049e+003,1.200349e-001
7.748906e+003,6.587312e-002
7.752764e+003,1.382228e-001
7.756621e+003,1.958454e-001
7.760478e+003,2.154076e-001
7.764335e+003,2.039488e-001
7.768192e+003,1.772074e-001
7.772049e+003,1.108299e-001
7.775906e+003,8.032890e-002
7.779763e+003,1.319757e-001
7.783620e+003,1.684248e-001
7.787478e+003,1.741225e-001
7.791334e+003,2.080711e-001
7.795191e+003,2.422153e-001
7.799049e+003,2.236588e-001
7.802906e+003,2.225509e-001
7.806763e+003,2.058188e-001
7.810620e+003,1.761934e-001
7.814477e+003,1.532837e-001
7.818334e+003,1.088152e-001
7.822191e+003,1.005711e-001
7.826048e+003,1.147788e-001
7.829905e+003,1.090086e-001
7.833763e+003,1.800349e-001
7.837620e+003,1.432928e-001
7.841477e+003,1.869785e-001
7.845334e+003,2.097993e-001
7.849191e+003,1.348178e-001
7.853048e+003,1.477502e-001
7.856905e+003,1.980554e-001
7.860762e+003,1.371829e-001
7.864619e+003,8.272422e-002
7.868477e+003,7.246131e-002
7.872333e+003,9.103656e-002
7.876190e+003,1.266473e-001
7.880048e+003,1.431080e-001
7.883905e+003,1.599845e-001
7.887762e+003,1.462909e-001
7.891619e+003,2.268773e-001
7.895476e+003,2.385605e-001
7.899333e+003,1.356307e-001
7.903190e+003,8.536536e-002
7.907047e+003,1.233247e-001
7.910904e+003,1.632847e-001
7.914762e+003,1.400725e-001
7.918619e+003,1.347006e-001
7.922476e+003,1.534703e-001
7.926333e+003,1.414833e-001
7.930190e+003,7.262968e-002
7.934047e+003,1.881405e-001
7.937904e+003,2.742441e-001
7.941761e+003,9.438770e-002
7.945618e+003,7.226172e-002
7.949476e+003,1.610775e-002
7.953333e+003,-8.558785e-003
7.957189e+003,1.213665e-001
7.961047e+003,1.355313e-001
7.964904e+003,9.810144e-002
7.968761e+003,8.478208e-002
7.972618e+003,1.455274e-002
7.976475e+003,-6.335119e-003
7.980332e+003,6.397721e-002
7.984189e+003,9.767687e-002
7.988046e+003,1.218158e-001
7.991903e+003,1.153064e-001
7.995761e+003,7.548501e-002
7.999618e+003,1.112227e-001
