4.011380e+002,3.093105e-001
4.049951e+002,6.000000e+000
4.088522e+002,6.000000e+000
4.127093e+002,6.000000e+000
4.165664e+002,6.000000e+000
4.204235e+002,6.000000e+000
4.242806e+002,-4.342041e-001
4.281377e+002,6.000000e+000
4.319948e+002,1.645867e+000
4.358519e+002,-7.968672e-001
4.397090e+002,6.000000e+000
4.435661e+002,-1.537166e+000
4.474232e+002,-4.754638e-001
4.512803e+002,-4.005713e-001
4.551374e+002,6.000000e+000
4.589945e+002,6.000000e+000
4.628516e+002,4.692096e-001
4.667087e+002,1.285944e+000
4.705658e+002,3.056585e-001
4.744229e+002,-5.856920e-002
4.782800e+002,9.574646e-003
4.821371e+002,-3.332815e-001
4.859941e+002,-2.374386e-001
4.898513e+002,9.698965e-001
4.937083e+002,6.000000e+000
4.975654e+002,-2.964672e-001
5.014225e+002,6.000000e+000
5.052796e+002,6.000000e+000
5.091367e+002,-7.466516e-003
5.129938e+002,5.909870e-001
5.168509e+002,1.415537e+000
5.207080e+002,6.000000e+000
5.245651e+002,7.338052e-001
5.284222e+002,-7.834602e-002
5.322793e+002,2.755144e-001
5.361364e+002,-6.098848e-001
5.399935e+002,6.000000e+000
5.438506e+002,-4.445108e-001
5.477077e+002,6.923782e-001
5.515648e+002,-6.303345e-003
5.554219e+002,-1.411260e+000
5.592790e+002,-5.108221e-001
5.631361e+002,6.000000e+000
5.669932e+002,6.000000e+000
5.708503e+002,6.000000e+000
5.747074e+002,6.000000e+000
5.785645e+002,9.012558e-001
5.824216e+002,7.292193e-001
5.862787e+002,-1.311534e-001
5.901357e+002,-2.160055e-001
5.939929e+002,6.000000e+000
5.978499e+002,6.000000e+000
6.017070e+002,-5.009386e-001
6.055641e+002,6.000000e+000
6.094212e+002,6.000000e+000
6.132783e+002,3.865214e-001
6.171354e+002,5.761901e-001
6.209925e+002,6.000000e+000
6.248496e+002,4.481369e-001
6.287067e+002,4.774232e-001
6.325638e+002,-4.488489e-001
6.364209e+002,6.000000e+000
6.402780e+002,6.000000e+000
6.441351e+002,6.000000e+000
6.479922e+002,2.885649e-001
6.518493e+002,-1.675408e-001
6.557064e+002,-4.417972e-001
6.595635e+002,2.750142e-001
6.634205e+002,6.630191e-001
6.672777e+002,3.704663e-001
6.711348e+002,6.000000e+000
6.749918e+002,6.000000e+000
6.788490e+002,6.000000e+000
6.827061e+002,6.000000e+000
6.865631e+002,1.147647e-001
6.904203e+002,6.000000e+000
6.942773e+002,6.000000e+000
6.981344e+002,6.000000e+000
7.019916e+002,-5.000906e-002
7.058486e+002,6.000000e+000
7.097057e+002,6.000000e+000
7.135629e+002,6.000000e+000
7.174199e+002,6.000000e+000
7.212770e+002,6.000000e+000
7.251342e+002,6.000000e+000
7.289912e+002,-4.256835e-001
7.328483e+002,8.615939e-001
7.367054e+002,6.699260e-001
7.405625e+002,1.189165e-001
7.444196e+002,6.000000e+000
7.482767e+002,6.000000e+000
7.521338e+002,6.000000e+000
7.559908e+002,6.000000e+000
7.598480e+002,-1.119736e-001
7.637051e+002,6.000000e+000
7.675621e+002,5.040617e-002
7.714193e+002,6.000000e+000
7.752764e+002,6.000000e+000
7.791334e+002,6.000000e+000
7.829905e+002,2.483000e-001
7.868477e+002,1.159595e+000
7.907047e+002,6.000000e+000
7.945618e+002,-2.499835e-001
7.984189e+002,1.629317e-001
8.022760e+002,6.000000e+000
8.061331e+002,7.441870e-001
8.099902e+002,7.577724e-001
8.138473e+002,1.033497e+000
8.177044e+002,2.243413e+000
8.215615e+002,6.000000e+000
8.254186e+002,6.000000e+000
8.292757e+002,6.000000e+000
8.331328e+002,6.000000e+000
8.369899e+002,6.000000e+000
8.408470e+002,6.731200e-001
8.447041e+002,6.592878e-001
8.485612e+002,8.395724e-001
8.524183e+002,1.976823e+000
8.562754e+002,6.000000e+000
8.601324e+002,1.815593e+000
8.639896e+002,6.000000e+000
8.678467e+002,6.000000e+000
8.717037e+002,1.215377e+000
8.755609e+002,1.240111e+000
8.794180e+002,1.230211e+000
8.832750e+002,1.091773e+000
8.871321e+002,1.245626e+000
8.909893e+002,6.000000e+000
8.948463e+002,6.000000e+000
8.987034e+002,6.000000e+000
9.025605e+002,6.000000e+000
9.064176e+002,1.926043e+000
9.102747e+002,1.818231e+000
9.141318e+002,6.000000e+000
9.179889e+002,6.000000e+000
9.218461e+002,6.000000e+000
9.257031e+002,2.366699e+000
9.295602e+002,6.000000e+000
9.334174e+002,6.000000e+000
9.372744e+002,6.000000e+000
9.411315e+002,6.000000e+000
9.449886e+002,1.972695e+000
9.488457e+002,2.954920e+000
9.527028e+002,6.000000e+000
9.565599e+002,1.820623e+000
9.604170e+002,1.933227e+000
9.642740e+002,3.217015e+000
9.681312e+002,2.285959e+000
9.719883e+002,2.837789e+000
9.758453e+002,6.000000e+000
9.797025e+002,2.211527e+000
9.835596e+002,1.968786e+000
9.874166e+002,6.000000e+000
9.912738e+002,3.109174e+000
9.951309e+002,2.087578e+000
9.989879e+002,2.290450e+000
1.002845e+003,2.315789e+000
1.006702e+003,1.842063e+000
1.010559e+003,1.723863e+000
1.014416e+003,1.707941e+000
1.018273e+003,1.946112e+000
1.022130e+003,1.984442e+000
1.025988e+003,1.779866e+000
1.029845e+003,2.012365e+000
1.033702e+003,2.212408e+000
1.037559e+003,1.897064e+000
1.041416e+003,1.670681e+000
1.045273e+003,1.544493e+000
1.049130e+003,1.659879e+000
1.052987e+003,2.017555e+000
1.056844e+003,1.769758e+000
1.060702e+003,1.573186e+000
1.064559e+003,1.665556e+000
1.068416e+003,1.823563e+000
1.072273e+003,1.889122e+000
1.076130e+003,1.742545e+000
1.079987e+003,1.547865e+000
1.083844e+003,1.582919e+000
1.087701e+003,1.667319e+000
1.091558e+003,1.664754e+000
1.095415e+003,1.538753e+000
1.099272e+003,1.474221e+000
1.103130e+003,1.480826e+000
1.106987e+003,1.466825e+000
1.110844e+003,1.417310e+000
1.114701e+003,1.380758e+000
1.118558e+003,1.409648e+000
1.122415e+003,1.403416e+000
1.126272e+003,1.359227e+000
1.130129e+003,1.382984e+000
1.133986e+003,1.418414e+000
1.137843e+003,1.380000e+000
1.141701e+003,1.298528e+000
1.145558e+003,1.261220e+000
1.149415e+003,1.273384e+000
1.153272e+003,1.299216e+000
1.157129e+003,1.342461e+000
1.160986e+003,1.308504e+000
1.164843e+003,1.269501e+000
1.168700e+003,1.292658e+000
1.172557e+003,1.264931e+000
1.176414e+003,1.243528e+000
1.180271e+003,1.229794e+000
1.184129e+003,1.244563e+000
1.187986e+003,1.252532e+000
1.191843e+003,1.246949e+000
1.195700e+003,1.229744e+000
1.199557e+003,1.194327e+000
1.203414e+003,1.152310e+000
1.207271e+003,1.092141e+000
1.211128e+003,1.017505e+000
1.214985e+003,9.356084e-001
1.218842e+003,8.630153e-001
1.222699e+003,8.098496e-001
1.226557e+003,7.607850e-001
1.230414e+003,6.963935e-001
1.234271e+003,6.385172e-001
1.238128e+003,5.951787e-001
1.241985e+003,5.608295e-001
1.245842e+003,5.340515e-001
1.249699e+003,5.093231e-001
1.253556e+003,4.923431e-001
1.257413e+003,4.740458e-001
1.261271e+003,4.526465e-001
1.265128e+003,4.380904e-001
1.268985e+003,4.262026e-001
1.272842e+003,4.134948e-001
1.276699e+003,4.053305e-001
1.280556e+003,3.956216e-001
1.284413e+003,3.868614e-001
1.288270e+003,3.818659e-001
1.292127e+003,3.736922e-001
1.295984e+003,3.653817e-001
1.299841e+003,3.642834e-001
1.303698e+003,3.586723e-001
1.307556e+003,3.507911e-001
1.311413e+003,3.471755e-001
1.315270e+003,3.470390e-001
1.319127e+003,3.437676e-001
1.322984e+003,3.360889e-001
1.326841e+003,3.365169e-001
1.330698e+003,3.448538e-001
1.334555e+003,3.434332e-001
1.338412e+003,3.382056e-001
1.342270e+003,3.370161e-001
1.346127e+003,3.386643e-001
1.349984e+003,3.375266e-001
1.353841e+003,3.341538e-001
1.357698e+003,3.359736e-001
1.361555e+003,3.435223e-001
1.365412e+003,3.533942e-001
1.369269e+003,3.596342e-001
1.373126e+003,3.611606e-001
1.376983e+003,3.644349e-001
1.380840e+003,3.733512e-001
1.384698e+003,3.827542e-001
1.388555e+003,3.923663e-001
1.392412e+003,4.043717e-001
1.396269e+003,4.177885e-001
1.400126e+003,4.329424e-001
1.403983e+003,4.416516e-001
1.407840e+003,4.523389e-001
1.411697e+003,4.648129e-001
1.415554e+003,4.774181e-001
1.419411e+003,4.862844e-001
1.423269e+003,4.890463e-001
1.427126e+003,4.923640e-001
1.430983e+003,4.956343e-001
1.434840e+003,4.962563e-001
1.438697e+003,4.974770e-001
1.442554e+003,4.928580e-001
1.446411e+003,4.844825e-001
1.450268e+003,4.788272e-001
1.454125e+003,4.766572e-001
1.457982e+003,4.718817e-001
1.461839e+003,4.637907e-001
1.465697e+003,4.587871e-001
1.469554e+003,4.576416e-001
1.473411e+003,4.599749e-001
1.477268e+003,4.671012e-001
1.481125e+003,4.802400e-001
1.484982e+003,4.862522e-001
1.488839e+003,4.900057e-001
1.492696e+003,5.010805e-001
1.496553e+003,5.143999e-001
1.500411e+003,5.219373e-001
1.504268e+003,5.251344e-001
1.508125e+003,5.245257e-001
1.511982e+003,5.221227e-001
1.515839e+003,5.184264e-001
1.519696e+003,5.144260e-001
1.523553e+003,5.040768e-001
1.527410e+003,4.935016e-001
1.531267e+003,4.856018e-001
1.535124e+003,4.789276e-001
1.538981e+003,4.654368e-001
1.542839e+003,4.506267e-001
1.546696e+003,4.437335e-001
1.550553e+003,4.361710e-001
1.554410e+003,4.298826e-001
1.558267e+003,4.216138e-001
1.562124e+003,4.145087e-001
1.565981e+003,4.055279e-001
1.569838e+003,3.986336e-001
1.573695e+003,3.942797e-001
1.577552e+003,3.892193e-001
1.581410e+003,3.886441e-001
1.585267e+003,3.949178e-001
1.589124e+003,3.985125e-001
1.592981e+003,4.001127e-001
1.596838e+003,4.098108e-001
1.600695e+003,4.281678e-001
1.604552e+003,4.448385e-001
1.608409e+003,4.597392e-001
1.612266e+003,4.801930e-001
1.616123e+003,5.040954e-001
1.619980e+003,5.229340e-001
1.623838e+003,5.423498e-001
1.627695e+003,5.565934e-001
1.631552e+003,5.692390e-001
1.635409e+003,5.755891e-001
1.639266e+003,5.743079e-001
1.643123e+003,5.696416e-001
1.646980e+003,5.606912e-001
1.650837e+003,5.498388e-001
1.654694e+003,5.333784e-001
1.658551e+003,5.132252e-001
1.662409e+003,4.922295e-001
1.666266e+003,4.750402e-001
1.670123e+003,4.565450e-001
1.673980e+003,4.370534e-001
1.677837e+003,4.235752e-001
1.681694e+003,4.099497e-001
1.685551e+003,3.940700e-001
1.689408e+003,3.783256e-001
1.693265e+003,3.684008e-001
1.697122e+003,3.614255e-001
1.700979e+003,3.549910e-001
1.704837e+003,3.520725e-001
1.708694e+003,3.487797e-001
1.712551e+003,3.427114e-001
1.716408e+003,3.361335e-001
1.720265e+003,3.371032e-001
1.724122e+003,3.361346e-001
1.727979e+003,3.314939e-001
1.731836e+003,3.319070e-001
1.735693e+003,3.307086e-001
1.739550e+003,3.269660e-001
1.743408e+003,3.266738e-001
1.747265e+003,3.266647e-001
1.751122e+003,3.259290e-001
1.754979e+003,3.262192e-001
1.758836e+003,3.263406e-001
1.762693e+003,3.270797e-001
1.766550e+003,3.292775e-001
1.770407e+003,3.300074e-001
1.774264e+003,3.274598e-001
1.778121e+003,3.267518e-001
1.781979e+003,3.255279e-001
1.785836e+003,3.214969e-001
1.789693e+003,3.182913e-001
1.793550e+003,3.152052e-001
1.797407e+003,3.131306e-001
1.801264e+003,3.120374e-001
1.805121e+003,3.092172e-001
1.808978e+003,3.066093e-001
1.812835e+003,3.048993e-001
1.816692e+003,3.042977e-001
1.820549e+003,3.033030e-001
1.824407e+003,2.993017e-001
1.828264e+003,2.969521e-001
1.832121e+003,2.974819e-001
1.835978e+003,2.981405e-001
1.839835e+003,2.963361e-001
1.843692e+003,2.983509e-001
1.847549e+003,2.978071e-001
1.851406e+003,2.941227e-001
1.855263e+003,2.942162e-001
1.859120e+003,2.961315e-001
1.862978e+003,2.968654e-001
1.866835e+003,2.956202e-001
1.870692e+003,2.960474e-001
1.874549e+003,2.938560e-001
1.878406e+003,2.935497e-001
1.882263e+003,2.963815e-001
1.886120e+003,2.958741e-001
1.889977e+003,2.964419e-001
1.893834e+003,2.987964e-001
1.897691e+003,2.973408e-001
1.901548e+003,2.918678e-001
1.905406e+003,2.922752e-001
1.909263e+003,2.955631e-001
1.913120e+003,2.936687e-001
1.916977e+003,2.906333e-001
1.920834e+003,2.898350e-001
1.924691e+003,2.889616e-001
1.928548e+003,2.865920e-001
1.932405e+003,2.832421e-001
1.936262e+003,2.803422e-001
1.940119e+003,2.776276e-001
1.943977e+003,2.760975e-001
1.947834e+003,2.760277e-001
1.951691e+003,2.772478e-001
1.955548e+003,2.748214e-001
1.959405e+003,2.710748e-001
1.963262e+003,2.702197e-001
1.967119e+003,2.683510e-001
1.970976e+003,2.684686e-001
1.974833e+003,2.678983e-001
1.978690e+003,2.673412e-001
1.982547e+003,2.705417e-001
1.986405e+003,2.707849e-001
1.990262e+003,2.716064e-001
1.994119e+003,2.685347e-001
1.997976e+003,2.667209e-001
2.001833e+003,2.700312e-001
2.005690e+003,2.745278e-001
2.009547e+003,2.743740e-001
2.013404e+003,2.737901e-001
2.017261e+003,2.743406e-001
2.021118e+003,2.730266e-001
2.024976e+003,2.714401e-001
2.028833e+003,2.717830e-001
2.032690e+003,2.736375e-001
2.036547e+003,2.745329e-001
2.040404e+003,2.714804e-001
2.044261e+003,2.686201e-001
2.048118e+003,2.687196e-001
2.051975e+003,2.662874e-001
2.055832e+003,2.630329e-001
2.059689e+003,2.620633e-001
2.063546e+003,2.609349e-001
2.067404e+003,2.601938e-001
2.071261e+003,2.571430e-001
2.075118e+003,2.554934e-001
2.078975e+003,2.561972e-001
2.082832e+003,2.545668e-001
2.086689e+003,2.511520e-001
2.090546e+003,2.494930e-001
2.094403e+003,2.494717e-001
2.098260e+003,2.474644e-001
2.102117e+003,2.488978e-001
2.105975e+003,2.510499e-001
2.109832e+003,2.516893e-001
2.113689e+003,2.509601e-001
2.117546e+003,2.493821e-001
2.121403e+003,2.515886e-001
2.125260e+003,2.533074e-001
2.129117e+003,2.528737e-001
2.132974e+003,2.543632e-001
2.136831e+003,2.563647e-001
2.140688e+003,2.582795e-001
2.144545e+003,2.593555e-001
2.148403e+003,2.603648e-001
2.152260e+003,2.612627e-001
2.156117e+003,2.618763e-001
2.159974e+003,2.620842e-001
2.163831e+003,2.633399e-001
2.167688e+003,2.653652e-001
2.171545e+003,2.651999e-001
2.175402e+003,2.650106e-001
2.179259e+003,2.644236e-001
2.183116e+003,2.659645e-001
2.186974e+003,2.658925e-001
2.190831e+003,2.636208e-001
2.194688e+003,2.616006e-001
2.198545e+003,2.624408e-001
2.202402e+003,2.606392e-001
2.206259e+003,2.598554e-001
2.210116e+003,2.577336e-001
2.213973e+003,2.554630e-001
2.217830e+003,2.571385e-001
2.221688e+003,2.586344e-001
2.225544e+003,2.596511e-001
2.229402e+003,2.595303e-001
2.233259e+003,2.570943e-001
2.237116e+003,2.564103e-001
2.240973e+003,2.556650e-001
2.244830e+003,2.568679e-001
2.248687e+003,2.599914e-001
2.252544e+003,2.598666e-001
2.256401e+003,2.580512e-001
2.260258e+003,2.601280e-001
2.264115e+003,2.628063e-001
2.267973e+003,2.636232e-001
2.271830e+003,2.646010e-001
2.275687e+003,2.670751e-001
2.279544e+003,2.663734e-001
2.283401e+003,2.660393e-001
2.287258e+003,2.683763e-001
2.291115e+003,2.687586e-001
2.294972e+003,2.681621e-001
2.298829e+003,2.696576e-001
2.302687e+003,2.710436e-001
2.306543e+003,2.741995e-001
2.310401e+003,2.785769e-001
2.314258e+003,2.793092e-001
2.318115e+003,2.791007e-001
2.321972e+003,2.774463e-001
2.325829e+003,2.753011e-001
2.329686e+003,2.764727e-001
2.333543e+003,2.800714e-001
2.337400e+003,2.839254e-001
2.341257e+003,2.798829e-001
2.345115e+003,2.754802e-001
2.348972e+003,2.728438e-001
2.352829e+003,2.743032e-001
2.356686e+003,2.765251e-001
2.360543e+003,2.770144e-001
2.364400e+003,2.751799e-001
2.368257e+003,2.751599e-001
2.372114e+003,2.732955e-001
2.375971e+003,2.692901e-001
2.379828e+003,2.654267e-001
2.383686e+003,2.640801e-001
2.387542e+003,2.640655e-001
2.391400e+003,2.634314e-001
2.395257e+003,2.614853e-001
2.399114e+003,2.612424e-001
2.402971e+003,2.609668e-001
2.406828e+003,2.614838e-001
2.410685e+003,2.629894e-001
2.414542e+003,2.643757e-001
2.418399e+003,2.660168e-001
2.422256e+003,2.669640e-001
2.426114e+003,2.666537e-001
2.429971e+003,2.666177e-001
2.433828e+003,2.673000e-001
2.437685e+003,2.678394e-001
2.441542e+003,2.674016e-001
2.445399e+003,2.687105e-001
2.449256e+003,2.677796e-001
2.453113e+003,2.666008e-001
2.456970e+003,2.691553e-001
2.460827e+003,2.695827e-001
2.464684e+003,2.676102e-001
2.468542e+003,2.661552e-001
2.472399e+003,2.657637e-001
2.476256e+003,2.655289e-001
2.480113e+003,2.647584e-001
2.483970e+003,2.628648e-001
2.487827e+003,2.606435e-001
2.491684e+003,2.620113e-001
2.495541e+003,2.632245e-001
2.499398e+003,2.635644e-001
2.503255e+003,2.631563e-001
2.507113e+003,2.598184e-001
2.510969e+003,2.593243e-001
2.514827e+003,2.605910e-001
2.518684e+003,2.609270e-001
2.522541e+003,2.614651e-001
2.526398e+003,2.600184e-001
2.530255e+003,2.582331e-001
2.534112e+003,2.603023e-001
2.537969e+003,2.629389e-001
2.541826e+003,2.641743e-001
2.545683e+003,2.651277e-001
2.549541e+003,2.671287e-001
2.553398e+003,2.685451e-001
2.557255e+003,2.719788e-001
2.561112e+003,2.746246e-001
2.564969e+003,2.734321e-001
2.568826e+003,2.708879e-001
2.572683e+003,2.733398e-001
2.576540e+003,2.773584e-001
2.580397e+003,2.798469e-001
2.584254e+003,2.801102e-001
2.588112e+003,2.817827e-001
2.591969e+003,2.834951e-001
2.595826e+003,2.859225e-001
2.599683e+003,2.859120e-001
2.603540e+003,2.857018e-001
2.607397e+003,2.852845e-001
2.611254e+003,2.854602e-001
2.615111e+003,2.857893e-001
2.618968e+003,2.883200e-001
2.622825e+003,2.899786e-001
2.626682e+003,2.903691e-001
2.630540e+003,2.912543e-001
2.634397e+003,2.943608e-001
2.638254e+003,2.974485e-001
2.642111e+003,2.991311e-001
2.645968e+003,2.975031e-001
2.649825e+003,2.962623e-001
2.653682e+003,2.974975e-001
2.657539e+003,2.956759e-001
2.661396e+003,2.946747e-001
2.665253e+003,2.992035e-001
2.669111e+003,3.047341e-001
2.672968e+003,3.076826e-001
2.676825e+003,3.088265e-001
2.680682e+003,3.127049e-001
2.684539e+003,3.167583e-001
2.688396e+003,3.186747e-001
2.692253e+003,3.227595e-001
2.696110e+003,3.261098e-001
2.699967e+003,3.257085e-001
2.703824e+003,3.275691e-001
2.707681e+003,3.318729e-001
2.711539e+003,3.340528e-001
2.715396e+003,3.345483e-001
2.719253e+003,3.365128e-001
2.723110e+003,3.408526e-001
2.726967e+003,3.428925e-001
2.730824e+003,3.461744e-001
2.734681e+003,3.476084e-001
2.738538e+003,3.465530e-001
2.742395e+003,3.468978e-001
2.746252e+003,3.507312e-001
2.750110e+003,3.539192e-001
2.753967e+003,3.570027e-001
2.757824e+003,3.608877e-001
2.761681e+003,3.633361e-001
2.765538e+003,3.663131e-001
2.769395e+003,3.662443e-001
2.773252e+003,3.656074e-001
2.777109e+003,3.650639e-001
2.780966e+003,3.678002e-001
2.784823e+003,3.731896e-001
2.788680e+003,3.779573e-001
2.792538e+003,3.780650e-001
2.796395e+003,3.784322e-001
2.800252e+003,3.847311e-001
2.804109e+003,3.866553e-001
2.807966e+003,3.879509e-001
2.811823e+003,3.890541e-001
2.815680e+003,3.918522e-001
2.819537e+003,3.963730e-001
2.823394e+003,4.031057e-001
2.827251e+003,4.054896e-001
2.831109e+003,4.071487e-001
2.834966e+003,4.099473e-001
2.838823e+003,4.108931e-001
2.842680e+003,4.139834e-001
2.846537e+003,4.172238e-001
2.850394e+003,4.180622e-001
2.854251e+003,4.219176e-001
2.858108e+003,4.275505e-001
2.861965e+003,4.312091e-001
2.865823e+003,4.365704e-001
2.869679e+003,4.413046e-001
2.873537e+003,4.434386e-001
2.877394e+003,4.497144e-001
2.881251e+003,4.553675e-001
2.885108e+003,4.560582e-001
2.888965e+003,4.572282e-001
2.892822e+003,4.581759e-001
2.896679e+003,4.585335e-001
2.900536e+003,4.633437e-001
2.904393e+003,4.678314e-001
2.908250e+003,4.703887e-001
2.912108e+003,4.738713e-001
2.915965e+003,4.795291e-001
2.919822e+003,4.801902e-001
2.923679e+003,4.790192e-001
2.927536e+003,4.887725e-001
2.931393e+003,4.958558e-001
2.935250e+003,4.978715e-001
2.939107e+003,5.013230e-001
2.942964e+003,5.023397e-001
2.946822e+003,4.997949e-001
2.950678e+003,5.098593e-001
2.954536e+003,5.195168e-001
2.958393e+003,5.241745e-001
2.962250e+003,5.257428e-001
2.966107e+003,5.242077e-001
2.969964e+003,5.225124e-001
2.973821e+003,5.285298e-001
2.977678e+003,5.357983e-001
2.981535e+003,5.376191e-001
2.985392e+003,5.418134e-001
2.989250e+003,5.513673e-001
2.993107e+003,5.553417e-001
2.996964e+003,5.584053e-001
3.000821e+003,5.571047e-001
3.004678e+003,5.613861e-001
3.008535e+003,5.688688e-001
3.012392e+003,5.750387e-001
3.016249e+003,5.788549e-001
3.020106e+003,5.889872e-001
3.023963e+003,5.928366e-001
3.027821e+003,5.888126e-001
3.031677e+003,5.957429e-001
3.035535e+003,6.014597e-001
3.039392e+003,6.030061e-001
3.043249e+003,6.025978e-001
3.047106e+003,6.072342e-001
3.050963e+003,6.154354e-001
3.054820e+003,6.198503e-001
3.058677e+003,6.225435e-001
3.062534e+003,6.263137e-001
3.066391e+003,6.338049e-001
3.070249e+003,6.379062e-001
3.074106e+003,6.344863e-001
3.077963e+003,6.401243e-001
3.081820e+003,6.500344e-001
3.085677e+003,6.566618e-001
3.089534e+003,6.631703e-001
3.093391e+003,6.662836e-001
3.097248e+003,6.673849e-001
3.101105e+003,6.773720e-001
3.104962e+003,6.821867e-001
3.108820e+003,6.840315e-001
3.112677e+003,6.917828e-001
3.116534e+003,6.967259e-001
3.120391e+003,6.954546e-001
3.124248e+003,6.933011e-001
3.128105e+003,7.014794e-001
3.131962e+003,7.108825e-001
3.135819e+003,7.225615e-001
3.139676e+003,7.334036e-001
3.143533e+003,7.387333e-001
3.147390e+003,7.406723e-001
3.151248e+003,7.393085e-001
3.155105e+003,7.440888e-001
3.158962e+003,7.496438e-001
3.162819e+003,7.561497e-001
3.166676e+003,7.629350e-001
3.170533e+003,7.687161e-001
3.174390e+003,7.755322e-001
3.178247e+003,7.781173e-001
3.182104e+003,7.801555e-001
3.185961e+003,7.904238e-001
3.189819e+003,8.034290e-001
3.193676e+003,8.089347e-001
3.197533e+003,8.155778e-001
3.201390e+003,8.197152e-001
3.205247e+003,8.331813e-001
3.209104e+003,8.348390e-001
3.212961e+003,8.309535e-001
3.216818e+003,8.351104e-001
3.220675e+003,8.403560e-001
3.224532e+003,8.544562e-001
3.228389e+003,8.635927e-001
3.232247e+003,8.593505e-001
3.236104e+003,8.573881e-001
3.239961e+003,8.618416e-001
3.243818e+003,8.685995e-001
3.247675e+003,8.728612e-001
3.251532e+003,8.772963e-001
3.255389e+003,8.787119e-001
3.259246e+003,8.793551e-001
3.263103e+003,8.702026e-001
3.266960e+003,8.646346e-001
3.270818e+003,8.755481e-001
3.274675e+003,8.869382e-001
3.278532e+003,8.888685e-001
3.282389e+003,8.840854e-001
3.286246e+003,8.907937e-001
3.290103e+003,9.051396e-001
3.293960e+003,9.105855e-001
3.297817e+003,9.140379e-001
3.301674e+003,9.316434e-001
3.305531e+003,9.374330e-001
3.309388e+003,9.358795e-001
3.313246e+003,9.406025e-001
3.317103e+003,9.415810e-001
3.320960e+003,9.448000e-001
3.324817e+003,9.559160e-001
3.328674e+003,9.635448e-001
3.332531e+003,9.722296e-001
3.336388e+003,9.703266e-001
3.340245e+003,9.710087e-001
3.344102e+003,9.762085e-001
3.347959e+003,9.842367e-001
3.351817e+003,9.805740e-001
3.355674e+003,9.721164e-001
3.359531e+003,9.741843e-001
3.363388e+003,9.859417e-001
3.367245e+003,9.963167e-001
3.371102e+003,1.002725e+000
3.374959e+003,1.013223e+000
3.378816e+003,1.015396e+000
3.382673e+003,1.018002e+000
3.386530e+003,1.021378e+000
3.390387e+003,1.019263e+000
3.394245e+003,1.014514e+000
3.398102e+003,1.010125e+000
3.401959e+003,1.025216e+000
3.405816e+003,1.029276e+000
3.409673e+003,1.044543e+000
3.413530e+003,1.074010e+000
3.417387e+003,1.068173e+000
3.421244e+003,1.046335e+000
3.425101e+003,1.045573e+000
3.428958e+003,1.056305e+000
3.432815e+003,1.051534e+000
3.436673e+003,1.039883e+000
3.440530e+003,1.054170e+000
3.444387e+003,1.067532e+000
3.448244e+003,1.064654e+000
3.452101e+003,1.060899e+000
3.455958e+003,1.058760e+000
3.459815e+003,1.066483e+000
3.463672e+003,1.079589e+000
3.467529e+003,1.082949e+000
3.471386e+003,1.063809e+000
3.475244e+003,1.078043e+000
3.479101e+003,1.104331e+000
3.482958e+003,1.089641e+000
3.486815e+003,1.095154e+000
3.490672e+003,1.094791e+000
3.494529e+003,1.065744e+000
3.498386e+003,1.066131e+000
3.502243e+003,1.098432e+000
3.506100e+003,1.108660e+000
3.509958e+003,1.104947e+000
3.513814e+003,1.100446e+000
3.517672e+003,1.090557e+000
3.521529e+003,1.079609e+000
3.525386e+003,1.081770e+000
3.529243e+003,1.078364e+000
3.533100e+003,1.066164e+000
3.536957e+003,1.069848e+000
3.540814e+003,1.075856e+000
3.544671e+003,1.074260e+000
3.548528e+003,1.066156e+000
3.552385e+003,1.055972e+000
3.556243e+003,1.052454e+000
3.560100e+003,1.041399e+000
3.563957e+003,1.028057e+000
3.567814e+003,1.014712e+000
3.571671e+003,1.008275e+000
3.575528e+003,9.958804e-001
3.579385e+003,9.854493e-001
3.583242e+003,9.882240e-001
3.587099e+003,9.796019e-001
3.590957e+003,9.555258e-001
3.594813e+003,9.287993e-001
3.598671e+003,9.100014e-001
3.602528e+003,8.835538e-001
3.606385e+003,8.520665e-001
3.610242e+003,8.233054e-001
3.614099e+003,7.981447e-001
3.617956e+003,7.609826e-001
3.621813e+003,7.164633e-001
3.625670e+003,6.783726e-001
3.629527e+003,6.452967e-001
3.633385e+003,6.149113e-001
3.637242e+003,5.877525e-001
3.641099e+003,5.523799e-001
3.644956e+003,5.141315e-001
3.648813e+003,4.786379e-001
3.652670e+003,4.468440e-001
3.656527e+003,4.175719e-001
3.660384e+003,3.907594e-001
3.664241e+003,3.681808e-001
3.668098e+003,3.451878e-001
3.671956e+003,3.235260e-001
3.675813e+003,3.078631e-001
3.679670e+003,2.922976e-001
3.683527e+003,2.795099e-001
3.687384e+003,2.702398e-001
3.691241e+003,2.584364e-001
3.695098e+003,2.473859e-001
3.698955e+003,2.393940e-001
3.702812e+003,2.358916e-001
3.706669e+003,2.310461e-001
3.710526e+003,2.244645e-001
3.714384e+003,2.181645e-001
3.718241e+003,2.148066e-001
3.722098e+003,2.124852e-001
3.725955e+003,2.113156e-001
3.729812e+003,2.091481e-001
3.733669e+003,2.086089e-001
3.737526e+003,2.079991e-001
3.741383e+003,2.063115e-001
3.745240e+003,2.057399e-001
3.749097e+003,2.039078e-001
3.752955e+003,2.003831e-001
3.756812e+003,2.012096e-001
3.760669e+003,2.052280e-001
3.764526e+003,2.058775e-001
3.768383e+003,2.056551e-001
3.772240e+003,2.070757e-001
3.776097e+003,2.058172e-001
3.779954e+003,2.030525e-001
3.783811e+003,2.043355e-001
3.787668e+003,2.062939e-001
3.791525e+003,2.040013e-001
3.795383e+003,2.037157e-001
3.799240e+003,2.046559e-001
3.803097e+003,2.020745e-001
3.806954e+003,2.014184e-001
3.810811e+003,2.035641e-001
3.814668e+003,2.039069e-001
3.818525e+003,2.025197e-001
3.822382e+003,2.005257e-001
3.826239e+003,1.987823e-001
3.830096e+003,1.961390e-001
3.833954e+003,1.929253e-001
3.837811e+003,1.928583e-001
3.841668e+003,1.939844e-001
3.845525e+003,1.934243e-001
3.849382e+003,1.954299e-001
3.853239e+003,1.966197e-001
3.857096e+003,1.947245e-001
3.860953e+003,1.958306e-001
3.864810e+003,1.959997e-001
3.868667e+003,1.957746e-001
3.872524e+003,1.961801e-001
3.876382e+003,1.978388e-001
3.880239e+003,1.956832e-001
3.884096e+003,1.980770e-001
3.887953e+003,2.011714e-001
3.891810e+003,1.999122e-001
3.895667e+003,2.008622e-001
3.899524e+003,2.014240e-001
3.903381e+003,1.993126e-001
3.907238e+003,1.998947e-001
3.911095e+003,2.035212e-001
3.914953e+003,2.040927e-001
3.918810e+003,2.052014e-001
3.922667e+003,2.056041e-001
3.926524e+003,2.060953e-001
3.930381e+003,2.059872e-001
3.934238e+003,2.025195e-001
3.938095e+003,2.018760e-001
3.941952e+003,2.029986e-001
3.945809e+003,2.035491e-001
3.949667e+003,2.026840e-001
3.953523e+003,2.003347e-001
3.957381e+003,1.994378e-001
3.961238e+003,1.981153e-001
3.965095e+003,1.995284e-001
3.968952e+003,2.016587e-001
3.972809e+003,1.986717e-001
3.976666e+003,1.939388e-001
3.980523e+003,1.944829e-001
3.984380e+003,1.946254e-001
3.988237e+003,1.931249e-001
3.992094e+003,1.929028e-001
3.995952e+003,1.917268e-001
3.999809e+003,1.931967e-001
4.003666e+003,1.983090e-001
4.007523e+003,1.989788e-001
4.011380e+003,1.973033e-001
4.015237e+003,1.957654e-001
4.019094e+003,1.953508e-001
4.022951e+003,1.961793e-001
4.026808e+003,1.982527e-001
4.030666e+003,2.012743e-001
4.034522e+003,2.012332e-001
4.038380e+003,1.963982e-001
4.042237e+003,1.929867e-001
4.046094e+003,1.946449e-001
4.049951e+003,1.988258e-001
4.053808e+003,2.004953e-001
4.057665e+003,2.007448e-001
4.061522e+003,2.005606e-001
4.065379e+003,2.021949e-001
4.069236e+003,2.041391e-001
4.073094e+003,2.031443e-001
4.076951e+003,2.035919e-001
4.080808e+003,2.005633e-001
4.084665e+003,1.986771e-001
4.088522e+003,2.025005e-001
4.092379e+003,2.036018e-001
4.096236e+003,2.028624e-001
4.100093e+003,2.021576e-001
4.103950e+003,1.970919e-001
4.107808e+003,1.951687e-001
4.111665e+003,1.943460e-001
4.115521e+003,1.950321e-001
4.119379e+003,1.934088e-001
4.123236e+003,1.901792e-001
4.127093e+003,1.940838e-001
4.130950e+003,1.971370e-001
4.134807e+003,1.952954e-001
4.138664e+003,1.939185e-001
4.142521e+003,1.950537e-001
4.146378e+003,1.977199e-001
4.150235e+003,1.979220e-001
4.154093e+003,1.959896e-001
4.157950e+003,1.948944e-001
4.161807e+003,1.974945e-001
4.165664e+003,1.972815e-001
4.169521e+003,1.941426e-001
4.173378e+003,1.934590e-001
4.177235e+003,1.942627e-001
4.181092e+003,1.972698e-001
4.184949e+003,1.985238e-001
4.188807e+003,1.966778e-001
4.192664e+003,1.968654e-001
4.196521e+003,1.967101e-001
4.200378e+003,1.963627e-001
4.204235e+003,1.950331e-001
4.208092e+003,1.975108e-001
4.211949e+003,1.993538e-001
4.215806e+003,1.979495e-001
4.219663e+003,1.980316e-001
4.223521e+003,1.979985e-001
4.227377e+003,1.965966e-001
4.231234e+003,1.971393e-001
4.235092e+003,1.947863e-001
4.238949e+003,1.950109e-001
4.242806e+003,1.947611e-001
4.246663e+003,1.898029e-001
4.250520e+003,1.918237e-001
4.254377e+003,1.944658e-001
4.258234e+003,1.911250e-001
4.262091e+003,1.911351e-001
4.265948e+003,1.924276e-001
4.269806e+003,1.913896e-001
4.273663e+003,1.914584e-001
4.277520e+003,1.928913e-001
4.281377e+003,1.900081e-001
4.285234e+003,1.870568e-001
4.289091e+003,1.918774e-001
4.292948e+003,1.951082e-001
4.296805e+003,1.945754e-001
4.300662e+003,1.920437e-001
4.304520e+003,1.888759e-001
4.308376e+003,1.914963e-001
4.312233e+003,1.985802e-001
4.316091e+003,1.996490e-001
4.319948e+003,1.965236e-001
4.323805e+003,1.978746e-001
4.327662e+003,1.984416e-001
4.331519e+003,1.974596e-001
4.335376e+003,1.977986e-001
4.339233e+003,1.981619e-001
4.343090e+003,1.972829e-001
4.346947e+003,1.987218e-001
4.350805e+003,2.040855e-001
4.354662e+003,1.994213e-001
4.358519e+003,1.953681e-001
4.362376e+003,2.008830e-001
4.366233e+003,2.027256e-001
4.370090e+003,2.005805e-001
4.373947e+003,1.977692e-001
4.377804e+003,1.979755e-001
4.381661e+003,1.983505e-001
4.385519e+003,1.989468e-001
4.389375e+003,1.989439e-001
4.393232e+003,2.009801e-001
4.397090e+003,1.973447e-001
4.400947e+003,1.912414e-001
4.404804e+003,1.962988e-001
4.408661e+003,2.008566e-001
4.412518e+003,1.979794e-001
4.416375e+003,1.928820e-001
4.420232e+003,1.939712e-001
4.424089e+003,2.001330e-001
4.427946e+003,1.970228e-001
4.431804e+003,1.924115e-001
4.435661e+003,1.927901e-001
4.439518e+003,1.933424e-001
4.443375e+003,1.978880e-001
4.447232e+003,2.020339e-001
4.451089e+003,2.024480e-001
4.454946e+003,1.994858e-001
4.458803e+003,1.983332e-001
4.462660e+003,2.010414e-001
4.466518e+003,2.017552e-001
4.470375e+003,2.018960e-001
4.474231e+003,2.003638e-001
4.478089e+003,2.013397e-001
4.481946e+003,2.033448e-001
4.485803e+003,2.073037e-001
4.489660e+003,2.080438e-001
4.493517e+003,2.041997e-001
4.497375e+003,2.022398e-001
4.501231e+003,2.024291e-001
4.505088e+003,1.969376e-001
4.508946e+003,1.918041e-001
4.512803e+003,1.949847e-001
4.516660e+003,2.011194e-001
4.520517e+003,2.012276e-001
4.524374e+003,1.985431e-001
4.528231e+003,1.974728e-001
4.532088e+003,1.967354e-001
4.535945e+003,1.968865e-001
4.539802e+003,1.990022e-001
4.543660e+003,1.943369e-001
4.547517e+003,1.945621e-001
4.551374e+003,1.949934e-001
4.555231e+003,1.916521e-001
4.559088e+003,1.922128e-001
4.562945e+003,1.962275e-001
4.566802e+003,1.985806e-001
4.570659e+003,1.936749e-001
4.574516e+003,1.903655e-001
4.578374e+003,1.910258e-001
4.582230e+003,1.934448e-001
4.586087e+003,1.975138e-001
4.589945e+003,2.016642e-001
4.593802e+003,1.991125e-001
4.597659e+003,1.989381e-001
4.601516e+003,2.001048e-001
4.605373e+003,1.980409e-001
4.609230e+003,1.955649e-001
4.613087e+003,1.981160e-001
4.616944e+003,1.981309e-001
4.620801e+003,1.933475e-001
4.624659e+003,1.944764e-001
4.628516e+003,2.014141e-001
4.632373e+003,2.032749e-001
4.636230e+003,2.007066e-001
4.640087e+003,2.008019e-001
4.643944e+003,1.997475e-001
4.647801e+003,1.987623e-001
4.651658e+003,2.000935e-001
4.655515e+003,1.993956e-001
4.659373e+003,1.994128e-001
4.663229e+003,2.017667e-001
4.667086e+003,1.994401e-001
4.670944e+003,1.935298e-001
4.674801e+003,1.954431e-001
4.678658e+003,1.958821e-001
4.682515e+003,1.930241e-001
4.686372e+003,1.905409e-001
4.690229e+003,1.940986e-001
4.694086e+003,1.971463e-001
4.697943e+003,2.019924e-001
4.701800e+003,2.062015e-001
4.705658e+003,1.990879e-001
4.709515e+003,1.921141e-001
4.713372e+003,1.968838e-001
4.717229e+003,1.967392e-001
4.721086e+003,1.915077e-001
4.724943e+003,1.894805e-001
4.728800e+003,1.875373e-001
4.732657e+003,1.839671e-001
4.736514e+003,1.887098e-001
4.740372e+003,1.975102e-001
4.744229e+003,2.023641e-001
4.748085e+003,1.991675e-001
4.751943e+003,1.990549e-001
4.755800e+003,2.027875e-001
4.759657e+003,1.998479e-001
4.763514e+003,2.036618e-001
4.767371e+003,2.090866e-001
4.771228e+003,2.058563e-001
4.775085e+003,2.005618e-001
4.778942e+003,2.011491e-001
4.782799e+003,2.030338e-001
4.786657e+003,1.993759e-001
4.790514e+003,1.970571e-001
4.794371e+003,1.969022e-001
4.798228e+003,1.999481e-001
4.802085e+003,2.046748e-001
4.805942e+003,2.025053e-001
4.809799e+003,1.971132e-001
4.813656e+003,2.023481e-001
4.817513e+003,2.040480e-001
4.821371e+003,1.981334e-001
4.825228e+003,1.939588e-001
4.829084e+003,1.971124e-001
4.832942e+003,1.994328e-001
4.836799e+003,2.025587e-001
4.840656e+003,2.005081e-001
4.844513e+003,1.963372e-001
4.848370e+003,1.900572e-001
4.852227e+003,1.931310e-001
4.856084e+003,1.953670e-001
4.859941e+003,1.947109e-001
4.863798e+003,1.982511e-001
4.867656e+003,1.995114e-001
4.871513e+003,1.975961e-001
4.875370e+003,1.990955e-001
4.879227e+003,2.001037e-001
4.883084e+003,1.976951e-001
4.886941e+003,1.983719e-001
4.890798e+003,2.023890e-001
4.894655e+003,2.025597e-001
4.898512e+003,2.013828e-001
4.902370e+003,2.061561e-001
4.906227e+003,2.101586e-001
4.910083e+003,2.082554e-001
4.913941e+003,2.036115e-001
4.917798e+003,2.004025e-001
4.921655e+003,2.010830e-001
4.925512e+003,2.061604e-001
4.929369e+003,2.054218e-001
4.933226e+003,2.043975e-001
4.937083e+003,2.005863e-001
4.940940e+003,1.976175e-001
4.944797e+003,1.968758e-001
4.948655e+003,2.004115e-001
4.952512e+003,2.051320e-001
4.956369e+003,2.072679e-001
4.960226e+003,2.067791e-001
4.964083e+003,2.023246e-001
4.967940e+003,2.018930e-001
4.971797e+003,2.055179e-001
4.975654e+003,1.982388e-001
4.979511e+003,1.928363e-001
4.983369e+003,1.994287e-001
4.987226e+003,2.048202e-001
4.991083e+003,1.984798e-001
4.994940e+003,1.914609e-001
4.998797e+003,1.873724e-001
5.002654e+003,1.947734e-001
5.006511e+003,2.030484e-001
5.010368e+003,2.051994e-001
5.014225e+003,2.042252e-001
5.018083e+003,2.033198e-001
5.021939e+003,2.005695e-001
5.025796e+003,1.976608e-001
5.029654e+003,1.990935e-001
5.033511e+003,2.016979e-001
5.037368e+003,2.036610e-001
5.041225e+003,2.075214e-001
5.045082e+003,2.071320e-001
5.048939e+003,2.063394e-001
5.052796e+003,2.052751e-001
5.056653e+003,2.040576e-001
5.060510e+003,2.074805e-001
5.064368e+003,2.090109e-001
5.068225e+003,2.068958e-001
5.072082e+003,2.074397e-001
5.075939e+003,2.100882e-001
5.079796e+003,2.108048e-001
5.083653e+003,2.102092e-001
5.087510e+003,2.106554e-001
5.091367e+003,2.117112e-001
5.095224e+003,2.138160e-001
5.099082e+003,2.101080e-001
5.102938e+003,2.044366e-001
5.106795e+003,2.028488e-001
5.110653e+003,1.976783e-001
5.114510e+003,1.992552e-001
5.118367e+003,2.103112e-001
5.122224e+003,2.101732e-001
5.126081e+003,2.050959e-001
5.129938e+003,1.997079e-001
5.133795e+003,2.027245e-001
5.137652e+003,2.063392e-001
5.141509e+003,2.073655e-001
5.145367e+003,2.042714e-001
5.149224e+003,2.036919e-001
5.153081e+003,2.035708e-001
5.156938e+003,2.007003e-001
5.160795e+003,1.996469e-001
5.164652e+003,2.017657e-001
5.168509e+003,2.061517e-001
5.172366e+003,2.077623e-001
5.176223e+003,2.056615e-001
5.180081e+003,2.027889e-001
5.183938e+003,2.053662e-001
5.187794e+003,2.069642e-001
5.191652e+003,2.112967e-001
5.195509e+003,2.125943e-001
5.199366e+003,2.126347e-001
5.203223e+003,2.028206e-001
5.207080e+003,2.045702e-001
5.210937e+003,2.102741e-001
5.214794e+003,2.135109e-001
5.218651e+003,2.104437e-001
5.222508e+003,2.106154e-001
5.226366e+003,2.124706e-001
5.230223e+003,2.099700e-001
5.234080e+003,2.009473e-001
5.237937e+003,1.931396e-001
5.241794e+003,1.912251e-001
5.245651e+003,1.982801e-001
5.249508e+003,2.043163e-001
5.253365e+003,2.037494e-001
5.257222e+003,2.009451e-001
5.261080e+003,1.979215e-001
5.264937e+003,1.908732e-001
5.268793e+003,1.959784e-001
5.272651e+003,2.094162e-001
5.276508e+003,2.103676e-001
5.280365e+003,2.040229e-001
5.284222e+003,2.012105e-001
5.288079e+003,2.012902e-001
5.291936e+003,2.040923e-001
5.295793e+003,2.012856e-001
5.299650e+003,1.954419e-001
5.303507e+003,1.996037e-001
5.307365e+003,2.030889e-001
5.311222e+003,2.075419e-001
5.315079e+003,2.004842e-001
5.318936e+003,2.004665e-001
5.322793e+003,2.071515e-001
5.326650e+003,2.143047e-001
5.330507e+003,2.114147e-001
5.334364e+003,2.097913e-001
5.338221e+003,2.096364e-001
5.342079e+003,2.109865e-001
5.345936e+003,2.110817e-001
5.349792e+003,2.105820e-001
5.353650e+003,2.119905e-001
5.357507e+003,2.152671e-001
5.361364e+003,2.156575e-001
5.365221e+003,2.132183e-001
5.369078e+003,2.019783e-001
5.372935e+003,1.986943e-001
5.376792e+003,1.992978e-001
5.380649e+003,2.016542e-001
5.384506e+003,2.064597e-001
5.388364e+003,2.041116e-001
5.392221e+003,2.095980e-001
5.396078e+003,2.113509e-001
5.399935e+003,2.099116e-001
5.403792e+003,2.024661e-001
5.407649e+003,1.979560e-001
5.411506e+003,2.013802e-001
5.415363e+003,2.075848e-001
5.419220e+003,2.025706e-001
5.423078e+003,1.959941e-001
5.426935e+003,1.948271e-001
5.430792e+003,1.936627e-001
5.434649e+003,2.030187e-001
5.438506e+003,2.119444e-001
5.442363e+003,2.081220e-001
5.446220e+003,2.030522e-001
5.450077e+003,2.050405e-001
5.453934e+003,2.025800e-001
5.457792e+003,1.973379e-001
5.461648e+003,2.037496e-001
5.465505e+003,2.081632e-001
5.469363e+003,2.109481e-001
5.473220e+003,2.128845e-001
5.477077e+003,2.093920e-001
5.480934e+003,2.080644e-001
5.484791e+003,2.061354e-001
5.488648e+003,2.051521e-001
5.492505e+003,2.080051e-001
5.496362e+003,2.131909e-001
5.500219e+003,2.098463e-001
5.504077e+003,1.961285e-001
5.507934e+003,1.933266e-001
5.511791e+003,2.068053e-001
5.515648e+003,2.155057e-001
5.519505e+003,2.119555e-001
5.523362e+003,2.079581e-001
5.527219e+003,2.042997e-001
5.531076e+003,2.013366e-001
5.534933e+003,2.007542e-001
5.538791e+003,2.059443e-001
5.542647e+003,2.031727e-001
5.546504e+003,1.964365e-001
5.550362e+003,1.907595e-001
5.554219e+003,1.994507e-001
5.558076e+003,2.107316e-001
5.561933e+003,2.013475e-001
5.565790e+003,1.989440e-001
5.569647e+003,2.097599e-001
5.573504e+003,2.087615e-001
5.577361e+003,2.008263e-001
5.581218e+003,1.978629e-001
5.585076e+003,2.003465e-001
5.588933e+003,2.069956e-001
5.592790e+003,2.026542e-001
5.596647e+003,1.931642e-001
5.600504e+003,1.972371e-001
5.604361e+003,2.012552e-001
5.608218e+003,2.013255e-001
5.612075e+003,2.081230e-001
5.615932e+003,2.114054e-001
5.619790e+003,2.090398e-001
5.623646e+003,2.124066e-001
5.627503e+003,2.166733e-001
5.631361e+003,2.116485e-001
5.635218e+003,2.066106e-001
5.639075e+003,2.080780e-001
5.642932e+003,2.079066e-001
5.646789e+003,2.026244e-001
5.650646e+003,2.007134e-001
5.654503e+003,2.007749e-001
5.658360e+003,2.079661e-001
5.662217e+003,2.133617e-001
5.666075e+003,2.105877e-001
5.669932e+003,2.067996e-001
5.673789e+003,2.037281e-001
5.677646e+003,2.038765e-001
5.681503e+003,1.989669e-001
5.685360e+003,1.967919e-001
5.689217e+003,2.064602e-001
5.693074e+003,2.070284e-001
5.696931e+003,2.039683e-001
5.700789e+003,2.070649e-001
5.704646e+003,2.087787e-001
5.708502e+003,2.049972e-001
5.712360e+003,2.023579e-001
5.716217e+003,2.041920e-001
5.720074e+003,2.038902e-001
5.723931e+003,2.021390e-001
5.727788e+003,2.063548e-001
5.731645e+003,2.075353e-001
5.735502e+003,2.074509e-001
5.739359e+003,2.039109e-001
5.743216e+003,2.007472e-001
5.747074e+003,2.031821e-001
5.750931e+003,2.046529e-001
5.754788e+003,2.098942e-001
5.758645e+003,2.158212e-001
5.762502e+003,2.084874e-001
5.766359e+003,2.038958e-001
5.770216e+003,2.056914e-001
5.774073e+003,2.044403e-001
5.777930e+003,2.043082e-001
5.781788e+003,2.057491e-001
5.785645e+003,2.043784e-001
5.789501e+003,2.065459e-001
5.793359e+003,2.092765e-001
5.797216e+003,2.117516e-001
5.801073e+003,2.142343e-001
5.804930e+003,2.189823e-001
5.808787e+003,2.202771e-001
5.812644e+003,2.119695e-001
5.816501e+003,2.079498e-001
5.820358e+003,2.037330e-001
5.824215e+003,2.015028e-001
5.828073e+003,2.071114e-001
5.831930e+003,2.066080e-001
5.835787e+003,2.053827e-001
5.839644e+003,1.921305e-001
5.843501e+003,1.891976e-001
5.847358e+003,2.011944e-001
5.851215e+003,2.123493e-001
5.855072e+003,2.072329e-001
5.858929e+003,1.998691e-001
5.862787e+003,2.011292e-001
5.866644e+003,2.073761e-001
5.870500e+003,2.114558e-001
5.874358e+003,2.193831e-001
5.878215e+003,2.187145e-001
5.882072e+003,1.967659e-001
5.885929e+003,1.908982e-001
5.889786e+003,1.882199e-001
5.893643e+003,1.863731e-001
5.897500e+003,1.910358e-001
5.901357e+003,1.929724e-001
5.905214e+003,1.988252e-001
5.909072e+003,2.104001e-001
5.912929e+003,2.169112e-001
5.916786e+003,2.095664e-001
5.920643e+003,2.061591e-001
5.924500e+003,2.102437e-001
5.928357e+003,2.167044e-001
5.932214e+003,2.217750e-001
5.936071e+003,2.215093e-001
5.939928e+003,2.063281e-001
5.943786e+003,2.062003e-001
5.947643e+003,2.080948e-001
5.951500e+003,2.059026e-001
5.955357e+003,2.035422e-001
5.959214e+003,2.015350e-001
5.963071e+003,1.980132e-001
5.966928e+003,2.063917e-001
5.970785e+003,2.110031e-001
5.974642e+003,2.070328e-001
5.978500e+003,2.052703e-001
5.982356e+003,1.987389e-001
5.986213e+003,2.040366e-001
5.990071e+003,2.032255e-001
5.993928e+003,1.995813e-001
5.997785e+003,2.040503e-001
6.001642e+003,2.109691e-001
6.005499e+003,2.118445e-001
6.009356e+003,2.119079e-001
6.013213e+003,2.031272e-001
6.017070e+003,1.959555e-001
6.020927e+003,1.984626e-001
6.024785e+003,2.007755e-001
6.028642e+003,2.016094e-001
6.032499e+003,1.961156e-001
6.036356e+003,1.895539e-001
6.040213e+003,1.943051e-001
6.044070e+003,2.019553e-001
6.047927e+003,2.067673e-001
6.051784e+003,2.058759e-001
6.055641e+003,2.065258e-001
6.059499e+003,2.029577e-001
6.063355e+003,1.993223e-001
6.067212e+003,1.988588e-001
6.071070e+003,1.976377e-001
6.074927e+003,2.018134e-001
6.078784e+003,2.157491e-001
6.082641e+003,2.189643e-001
6.086498e+003,2.109341e-001
6.090355e+003,2.067182e-001
6.094212e+003,2.062904e-001
6.098069e+003,2.064015e-001
6.101926e+003,2.014093e-001
6.105784e+003,1.967694e-001
6.109641e+003,2.098912e-001
6.113498e+003,2.162362e-001
6.117355e+003,2.096740e-001
6.121212e+003,1.984961e-001
6.125069e+003,1.902731e-001
6.128926e+003,1.949438e-001
6.132783e+003,2.013357e-001
6.136640e+003,2.030892e-001
6.140498e+003,1.943685e-001
6.144354e+003,1.967771e-001
6.148211e+003,2.120096e-001
6.152069e+003,2.155524e-001
6.155926e+003,2.143791e-001
6.159783e+003,2.116948e-001
6.163640e+003,2.064409e-001
6.167497e+003,2.067790e-001
6.171354e+003,2.117341e-001
6.175211e+003,2.140480e-001
6.179068e+003,2.193886e-001
6.182925e+003,2.143331e-001
6.186783e+003,1.994670e-001
6.190640e+003,1.996374e-001
6.194497e+003,1.925390e-001
6.198354e+003,1.968348e-001
6.202211e+003,2.003773e-001
6.206068e+003,1.910709e-001
6.209925e+003,1.972736e-001
6.213782e+003,2.025570e-001
6.217639e+003,2.021784e-001
6.221497e+003,1.999029e-001
6.225354e+003,1.939170e-001
6.229210e+003,1.928984e-001
6.233068e+003,1.994453e-001
6.236925e+003,2.036453e-001
6.240782e+003,2.073148e-001
6.244639e+003,2.087768e-001
6.248496e+003,2.114382e-001
6.252353e+003,2.066924e-001
6.256210e+003,2.001342e-001
6.260067e+003,2.022946e-001
6.263924e+003,1.916791e-001
6.267782e+003,1.891233e-001
6.271639e+003,2.015375e-001
6.275496e+003,2.000938e-001
6.279353e+003,2.004425e-001
6.283210e+003,2.004277e-001
6.287067e+003,1.899947e-001
6.290924e+003,1.972189e-001
6.294781e+003,2.058306e-001
6.298638e+003,1.907757e-001
6.302496e+003,1.843162e-001
6.306353e+003,1.885432e-001
6.310209e+003,1.965956e-001
6.314067e+003,2.057646e-001
6.317924e+003,1.985278e-001
6.321781e+003,1.858559e-001
6.325638e+003,1.900604e-001
6.329495e+003,1.911966e-001
6.333352e+003,1.917514e-001
6.337209e+003,1.957210e-001
6.341066e+003,2.018209e-001
6.344923e+003,2.060569e-001
6.348780e+003,2.054409e-001
6.352638e+003,1.913571e-001
6.356495e+003,1.918188e-001
6.360352e+003,2.069372e-001
6.364209e+003,2.089151e-001
6.368066e+003,2.064015e-001
6.371923e+003,2.210604e-001
6.375780e+003,2.211160e-001
6.379637e+003,2.058050e-001
6.383494e+003,1.931228e-001
6.387352e+003,1.986967e-001
6.391208e+003,2.085686e-001
6.395065e+003,2.050200e-001
6.398923e+003,2.132557e-001
6.402780e+003,2.190596e-001
6.406637e+003,2.098148e-001
6.410494e+003,2.003710e-001
6.414351e+003,1.898815e-001
6.418208e+003,2.012165e-001
6.422065e+003,2.067413e-001
6.425922e+003,1.951040e-001
6.429779e+003,1.991073e-001
6.433637e+003,2.142160e-001
6.437494e+003,2.178240e-001
6.441351e+003,2.145822e-001
6.445208e+003,2.119110e-001
6.449065e+003,2.036182e-001
6.452922e+003,2.041159e-001
6.456779e+003,2.201503e-001
6.460636e+003,2.134292e-001
6.464493e+003,2.010264e-001
6.468351e+003,2.044938e-001
6.472208e+003,1.997511e-001
6.476064e+003,2.004158e-001
6.479922e+003,2.132092e-001
6.483779e+003,2.054383e-001
6.487636e+003,1.901833e-001
6.491493e+003,1.864544e-001
6.495350e+003,1.907935e-001
6.499207e+003,1.949132e-001
6.503064e+003,1.944233e-001
6.506921e+003,1.893834e-001
6.510778e+003,2.062408e-001
6.514636e+003,2.269279e-001
6.518493e+003,2.069960e-001
6.522350e+003,1.941015e-001
6.526207e+003,1.912637e-001
6.530064e+003,2.009380e-001
6.533921e+003,1.955497e-001
6.537778e+003,1.940643e-001
6.541635e+003,2.035485e-001
6.545492e+003,2.047153e-001
6.549350e+003,2.052947e-001
6.553207e+003,2.068247e-001
6.557063e+003,2.004745e-001
6.560921e+003,1.922737e-001
6.564778e+003,1.846979e-001
6.568635e+003,2.115413e-001
6.572492e+003,2.187397e-001
6.576349e+003,2.050897e-001
6.580206e+003,2.016250e-001
6.584063e+003,2.001940e-001
6.587920e+003,1.986320e-001
6.591777e+003,2.069537e-001
6.595635e+003,2.010039e-001
6.599492e+003,1.838859e-001
6.603349e+003,1.962149e-001
6.607206e+003,1.963572e-001
6.611063e+003,1.990115e-001
6.614920e+003,2.031977e-001
6.618777e+003,1.894368e-001
6.622634e+003,1.795990e-001
6.626491e+003,1.775446e-001
6.630349e+003,1.888210e-001
6.634206e+003,2.044553e-001
6.638063e+003,2.034100e-001
6.641920e+003,1.954585e-001
6.645777e+003,1.919252e-001
6.649634e+003,1.827896e-001
6.653491e+003,1.860141e-001
6.657348e+003,2.019114e-001
6.661205e+003,2.106184e-001
6.665063e+003,2.078427e-001
6.668919e+003,2.073184e-001
6.672776e+003,2.039429e-001
6.676634e+003,2.029728e-001
6.680491e+003,2.013551e-001
6.684348e+003,2.047267e-001
6.688205e+003,2.093393e-001
6.692062e+003,2.139236e-001
6.695919e+003,2.118174e-001
6.699776e+003,1.932184e-001
6.703633e+003,2.071426e-001
6.707490e+003,2.023501e-001
6.711348e+003,1.975596e-001
6.715205e+003,2.182357e-001
6.719062e+003,2.102315e-001
6.722919e+003,1.955590e-001
6.726776e+003,1.978469e-001
6.730633e+003,1.945238e-001
6.734490e+003,1.916126e-001
6.738347e+003,1.800597e-001
6.742204e+003,1.888529e-001
6.746062e+003,2.113101e-001
6.749918e+003,2.201048e-001
6.753775e+003,2.014210e-001
6.757633e+003,1.985940e-001
6.761490e+003,2.049410e-001
6.765347e+003,1.962715e-001
6.769204e+003,1.913007e-001
6.773061e+003,1.997277e-001
6.776918e+003,1.934690e-001
6.780775e+003,2.091288e-001
6.784632e+003,2.172729e-001
6.788489e+003,1.984829e-001
6.792347e+003,1.830420e-001
6.796204e+003,1.934274e-001
6.800061e+003,2.117565e-001
6.803918e+003,2.060826e-001
6.807775e+003,1.906069e-001
6.811632e+003,2.111659e-001
6.815489e+003,2.238759e-001
6.819346e+003,2.083647e-001
6.823203e+003,2.011136e-001
6.827061e+003,2.191410e-001
6.830917e+003,2.168102e-001
6.834774e+003,2.137555e-001
6.838632e+003,2.157006e-001
6.842489e+003,2.243703e-001
6.846346e+003,2.203173e-001
6.850203e+003,2.149296e-001
6.854060e+003,2.094299e-001
6.857917e+003,1.977278e-001
6.861774e+003,1.828839e-001
6.865631e+003,2.086239e-001
6.869488e+003,2.182365e-001
6.873346e+003,1.889838e-001
6.877203e+003,1.788300e-001
6.881060e+003,1.975750e-001
6.884917e+003,2.163691e-001
6.888774e+003,2.009136e-001
6.892631e+003,1.956431e-001
6.896488e+003,2.074379e-001
6.900345e+003,2.002347e-001
6.904202e+003,2.004625e-001
6.908060e+003,2.089818e-001
6.911917e+003,2.104765e-001
6.915773e+003,2.011162e-001
6.919631e+003,1.951847e-001
6.923488e+003,1.840355e-001
6.927345e+003,1.944518e-001
6.931202e+003,2.039936e-001
6.935059e+003,2.190987e-001
6.938916e+003,2.285692e-001
6.942773e+003,2.026943e-001
6.946630e+003,1.934098e-001
6.950487e+003,1.980251e-001
6.954345e+003,1.972419e-001
6.958202e+003,2.000549e-001
6.962059e+003,2.106271e-001
6.965916e+003,2.295705e-001
6.969773e+003,2.156283e-001
6.973630e+003,1.993060e-001
6.977487e+003,2.031805e-001
6.981344e+003,2.135376e-001
6.985201e+003,2.172924e-001
6.989059e+003,2.139917e-001
6.992916e+003,2.026232e-001
6.996772e+003,1.841582e-001
7.000630e+003,1.779572e-001
7.004487e+003,2.021454e-001
7.008344e+003,2.149955e-001
7.012201e+003,2.030928e-001
7.016058e+003,1.912956e-001
7.019915e+003,1.933332e-001
7.023772e+003,1.875300e-001
7.027629e+003,1.950420e-001
7.031486e+003,2.103597e-001
7.035344e+003,2.092322e-001
7.039201e+003,2.269844e-001
7.043058e+003,2.413986e-001
7.046915e+003,2.184058e-001
7.050772e+003,1.894484e-001
7.054629e+003,1.961664e-001
7.058486e+003,2.182592e-001
7.062343e+003,2.209577e-001
7.066200e+003,2.125639e-001
7.070058e+003,2.038075e-001
7.073915e+003,2.131395e-001
7.077771e+003,2.258075e-001
7.081629e+003,2.125143e-001
7.085486e+003,1.959799e-001
7.089343e+003,1.939371e-001
7.093200e+003,2.162995e-001
7.097057e+003,2.214320e-001
7.100914e+003,1.826520e-001
7.104771e+003,1.661197e-001
7.108628e+003,1.823363e-001
7.112485e+003,2.128449e-001
7.116343e+003,2.170725e-001
7.120200e+003,2.019334e-001
7.124057e+003,1.851560e-001
7.127914e+003,1.619009e-001
7.131771e+003,1.648404e-001
7.135628e+003,1.983485e-001
7.139485e+003,2.254681e-001
7.143342e+003,2.237292e-001
7.147199e+003,1.869083e-001
7.151057e+003,1.894265e-001
7.154914e+003,2.087484e-001
7.158771e+003,2.069753e-001
7.162628e+003,1.974605e-001
7.166485e+003,2.099932e-001
7.170342e+003,2.233118e-001
7.174199e+003,2.141280e-001
7.178056e+003,1.925732e-001
7.181913e+003,1.693508e-001
7.185771e+003,1.659956e-001
7.189627e+003,1.692558e-001
7.193484e+003,2.014098e-001
7.197342e+003,2.136824e-001
7.201199e+003,1.915925e-001
7.205056e+003,1.899743e-001
7.208913e+003,2.119612e-001
7.212770e+003,2.196930e-001
7.216627e+003,2.066865e-001
7.220484e+003,1.855016e-001
7.224341e+003,1.884503e-001
7.228198e+003,2.084717e-001
7.232056e+003,2.180517e-001
7.235913e+003,2.374584e-001
7.239770e+003,2.290954e-001
7.243627e+003,2.028492e-001
7.247484e+003,2.049207e-001
7.251341e+003,2.035261e-001
7.255198e+003,1.960729e-001
7.259055e+003,2.269824e-001
7.262912e+003,2.538787e-001
7.266770e+003,2.303917e-001
7.270626e+003,1.935430e-001
7.274483e+003,1.672940e-001
7.278341e+003,1.790410e-001
7.282198e+003,2.144341e-001
7.286055e+003,2.353770e-001
7.289912e+003,2.500657e-001
7.293769e+003,2.318399e-001
7.297626e+003,2.286692e-001
7.301483e+003,2.050020e-001
7.305340e+003,1.851690e-001
7.309197e+003,1.711646e-001
7.313055e+003,1.601211e-001
7.316912e+003,1.603067e-001
7.320769e+003,1.816939e-001
7.324626e+003,1.841418e-001
7.328483e+003,2.072545e-001
7.332340e+003,1.973756e-001
7.336197e+003,1.948339e-001
7.340054e+003,1.917250e-001
7.343911e+003,1.692511e-001
7.347769e+003,2.018923e-001
7.351625e+003,2.205899e-001
7.355482e+003,2.069931e-001
7.359340e+003,2.298338e-001
7.363197e+003,2.161812e-001
7.367054e+003,1.978208e-001
7.370911e+003,1.907521e-001
7.374768e+003,1.754740e-001
7.378625e+003,1.583543e-001
7.382482e+003,1.470739e-001
7.386339e+003,1.544071e-001
7.390196e+003,2.078633e-001
7.394054e+003,2.243175e-001
7.397911e+003,1.992379e-001
7.401768e+003,2.191309e-001
7.405625e+003,2.357478e-001
7.409482e+003,2.090019e-001
7.413339e+003,1.681459e-001
7.417196e+003,1.508464e-001
7.421053e+003,1.764010e-001
7.424910e+003,1.700891e-001
7.428768e+003,1.559519e-001
7.432625e+003,1.605274e-001
7.436481e+003,1.826065e-001
7.440339e+003,1.937120e-001
7.444196e+003,1.997792e-001
7.448053e+003,1.727577e-001
7.451910e+003,1.436516e-001
7.455767e+003,1.619251e-001
7.459624e+003,1.882449e-001
7.463481e+003,2.022254e-001
7.467338e+003,2.193694e-001
7.471195e+003,2.038585e-001
7.475053e+003,1.745265e-001
7.478910e+003,1.683220e-001
7.482767e+003,1.640294e-001
7.486624e+003,2.153445e-001
7.490481e+003,2.309778e-001
7.494338e+003,1.976287e-001
7.498195e+003,1.903528e-001
7.502052e+003,1.775131e-001
7.505909e+003,1.882087e-001
7.509767e+003,1.895437e-001
7.513624e+003,1.654800e-001
7.517480e+003,1.951842e-001
7.521338e+003,2.149400e-001
7.525195e+003,2.021648e-001
7.529052e+003,1.828338e-001
7.532909e+003,1.791146e-001
7.536766e+003,1.637699e-001
7.540623e+003,1.723229e-001
7.544480e+003,1.833130e-001
7.548337e+003,1.821678e-001
7.552194e+003,1.777943e-001
7.556052e+003,1.829735e-001
7.559909e+003,2.202334e-001
7.563766e+003,2.442055e-001
7.567623e+003,2.314605e-001
7.571480e+003,1.954211e-001
7.575337e+003,1.870392e-001
7.579194e+003,2.011119e-001
7.583051e+003,2.044459e-001
7.586908e+003,1.618900e-001
7.590766e+003,1.497813e-001
7.594623e+003,1.742889e-001
7.598479e+003,1.721001e-001
7.602337e+003,1.564118e-001
7.606194e+003,1.445244e-001
7.610051e+003,1.616480e-001
7.613908e+003,2.019776e-001
7.617765e+003,1.816851e-001
7.621622e+003,1.938735e-001
7.625479e+003,2.059518e-001
7.629336e+003,1.546273e-001
7.633193e+003,1.300673e-001
7.637051e+003,1.483111e-001
7.640908e+003,1.654603e-001
7.644765e+003,1.657156e-001
7.648622e+003,1.712193e-001
7.652479e+003,1.460912e-001
7.656336e+003,1.489741e-001
7.660193e+003,1.881242e-001
7.664050e+003,1.450233e-001
7.667907e+003,1.088522e-001
7.671765e+003,1.367071e-001
7.675622e+003,1.585006e-001
7.679479e+003,1.680728e-001
7.683336e+003,2.100803e-001
7.687193e+003,2.478206e-001
7.691050e+003,2.265399e-001
7.694907e+003,1.956011e-001
7.698764e+003,1.682876e-001
7.702621e+003,1.954626e-001
7.706479e+003,1.932158e-001
7.710335e+003,1.768093e-001
7.714192e+003,2.211655e-001
7.718050e+003,2.212351e-001
7.721907e+003,1.663353e-001
7.725764e+003,1.372761e-001
7.729621e+003,1.524758e-001
7.733478e+003,2.164659e-001
7.737335e+003,2.825855e-001
7.741192e+003,2.754625e-001
7.745049e+003,1.940938e-001
7.748906e+003,1.633109e-001
7.752764e+003,1.485913e-001
7.756621e+003,1.547315e-001
7.760478e+003,1.725560e-001
7.764335e+003,2.412982e-001
7.768192e+003,2.113755e-001
7.772049e+003,1.219083e-001
7.775906e+003,1.633568e-001
7.779763e+003,2.276931e-001
7.783620e+003,2.470112e-001
7.787478e+003,2.379884e-001
7.791334e+003,2.034072e-001
7.795191e+003,1.723922e-001
7.799049e+003,1.309638e-001
7.802906e+003,1.154483e-001
7.806763e+003,1.376912e-001
7.810620e+003,1.398068e-001
7.814477e+003,1.231756e-001
7.818334e+003,1.721443e-001
7.822191e+003,1.599845e-001
7.826048e+003,1.494065e-001
7.829905e+003,1.767485e-001
7.833763e+003,1.724178e-001
7.837620e+003,1.552824e-001
7.841477e+003,1.385988e-001
7.845334e+003,1.436460e-001
7.849191e+003,2.242306e-001
7.853048e+003,2.904427e-001
7.856905e+003,2.390266e-001
7.860762e+003,1.530162e-001
7.864619e+003,1.569082e-001
7.868477e+003,2.591034e-001
7.872333e+003,3.916638e-001
7.876190e+003,3.526064e-001
7.880048e+003,2.355428e-001
7.883905e+003,1.740230e-001
7.887762e+003,1.812119e-001
7.891619e+003,2.052016e-001
7.895476e+003,1.996808e-001
7.899333e+003,1.430840e-001
7.903190e+003,1.600583e-001
7.907047e+003,2.435128e-001
7.910904e+003,2.826472e-001
7.914762e+003,2.849347e-001
7.918619e+003,2.199564e-001
7.922476e+003,1.620513e-001
7.926333e+003,2.051958e-001
7.930190e+003,2.849397e-001
7.934047e+003,2.347199e-001
7.937904e+003,2.222593e-001
7.941761e+003,2.303046e-001
7.945618e+003,1.649422e-001
7.949476e+003,1.933993e-001
7.953333e+003,2.329247e-001
7.957189e+003,2.641692e-001
7.961047e+003,2.177620e-001
7.964904e+003,2.129657e-001
7.968761e+003,3.011405e-001
7.972618e+003,3.331431e-001
7.976475e+003,2.752820e-001
7.980332e+003,2.246974e-001
7.984189e+003,1.852503e-001
7.988046e+003,1.714432e-001
7.991903e+003,1.633554e-001
7.995761e+003,3.016803e-001
7.999618e+003,3.144373e-001
