4.011380e+002,4.873733e-001
4.049951e+002,2.570619e-001
4.088522e+002,-9.141859e-001
4.127093e+002,-1.237806e-001
4.165664e+002,7.859246e-001
4.204235e+002,6.000000e+000
4.242806e+002,-4.119735e-001
4.281377e+002,6.000000e+000
4.319948e+002,6.000000e+000
4.358519e+002,-1.598887e-001
4.397090e+002,-6.845869e-001
4.435661e+002,-1.221376e+000
4.474232e+002,5.201535e-001
4.512803e+002,6.000000e+000
4.551374e+002,3.730947e-002
4.589945e+002,1.483992e-001
4.628516e+002,6.000000e+000
4.667087e+002,6.000000e+000
4.705658e+002,6.000000e+000
4.744229e+002,6.000000e+000
4.782800e+002,3.275739e-001
4.821371e+002,-7.030164e-001
4.859941e+002,6.000000e+000
4.898513e+002,6.000000e+000
4.937083e+002,7.696711e-001
4.975654e+002,-1.757665e-002
5.014225e+002,4.653245e-002
5.052796e+002,6.490717e-001
5.091367e+002,-2.986502e-001
5.129938e+002,-2.497988e-001
5.168509e+002,-6.550909e-003
5.207080e+002,1.972902e+000
5.245651e+002,6.000000e+000
5.284222e+002,6.000000e+000
5.322793e+002,6.000000e+000
5.361364e+002,6.000000e+000
5.399935e+002,6.000000e+000
5.438506e+002,6.000000e+000
5.477077e+002,6.000000e+000
5.515648e+002,6.000000e+000
5.554219e+002,6.000000e+000
5.592790e+002,-1.818368e+000
5.631361e+002,-5.663434e-001
5.669932e+002,-2.711583e-002
5.708503e+002,-3.384243e-001
5.747074e+002,6.000000e+000
5.785645e+002,6.036930e-001
5.824216e+002,6.000000e+000
5.862787e+002,8.905640e-001
5.901357e+002,6.023360e-001
5.939929e+002,4.601462e-001
5.978499e+002,2.142934e+000
6.017070e+002,-5.721737e-001
6.055641e+002,7.240564e-002
6.094212e+002,6.000000e+000
6.132783e+002,-8.557243e-001
6.171354e+002,-1.227232e-001
6.209925e+002,6.000000e+000
6.248496e+002,-5.693958e-001
6.287067e+002,6.000000e+000
6.325638e+002,-1.260236e-001
6.364209e+002,-4.810674e-001
6.402780e+002,8.889601e-001
6.441351e+002,6.000000e+000
6.479922e+002,6.000000e+000
6.518493e+002,6.000000e+000
6.557064e+002,-7.894064e-001
6.595635e+002,6.000000e+000
6.634205e+002,-9.351412e-001
6.672777e+002,-9.261219e-001
6.711348e+002,6.000000e+000
6.749918e+002,2.152168e-001
6.788490e+002,1.415928e-001
6.827061e+002,6.000000e+000
6.865631e+002,1.468172e-001
6.904203e+002,6.000000e+000
6.942773e+002,-3.693741e-001
6.981344e+002,6.000000e+000
7.019916e+002,6.000000e+000
7.058486e+002,6.000000e+000
7.097057e+002,-5.422113e-001
7.135629e+002,-2.828779e-001
7.174199e+002,7.621303e-001
7.212770e+002,6.000000e+000
7.251342e+002,6.000000e+000
7.289912e+002,-7.958868e-001
7.328483e+002,6.000000e+000
7.367054e+002,6.000000e+000
7.405625e+002,1.020789e+000
7.444196e+002,-1.177477e+000
7.482767e+002,6.000000e+000
7.521338e+002,-9.477929e-001
7.559908e+002,-4.085923e-001
7.598480e+002,2.867217e+000
7.637051e+002,6.000000e+000
7.675621e+002,6.000000e+000
7.714193e+002,-6.766294e-001
7.752764e+002,-1.888602e-001
7.791334e+002,3.621076e-001
7.829905e+002,-3.085888e-001
7.868477e+002,4.245379e-001
7.907047e+002,2.998291e-001
7.945618e+002,2.010380e-001
7.984189e+002,-5.523381e-002
8.022760e+002,-7.676964e-002
8.061331e+002,3.318793e-001
8.099902e+002,6.000000e+000
8.138473e+002,-5.608487e-001
8.177044e+002,6.000000e+000
8.215615e+002,6.000000e+000
8.254186e+002,6.000000e+000
8.292757e+002,6.000000e+000
8.331328e+002,-1.844635e+000
8.369899e+002,6.000000e+000
8.408470e+002,4.060097e-001
8.447041e+002,3.864312e-001
8.485612e+002,2.828261e-001
8.524183e+002,7.600866e-001
8.562754e+002,6.000000e+000
8.601324e+002,1.323882e+000
8.639896e+002,6.000000e+000
8.678467e+002,6.000000e+000
8.717037e+002,6.000000e+000
8.755609e+002,1.073486e+000
8.794180e+002,2.433636e+000
8.832750e+002,1.504815e+000
8.871321e+002,8.840461e-001
8.909893e+002,8.043008e-001
8.948463e+002,1.008914e+000
8.987034e+002,8.396032e-001
9.025605e+002,1.061782e+000
9.064176e+002,1.216974e+000
9.102747e+002,1.384453e+000
9.141318e+002,2.576905e+000
9.179889e+002,1.312550e+000
9.218461e+002,1.129203e+000
9.257031e+002,2.009510e+000
9.295602e+002,6.000000e+000
9.334174e+002,1.907917e+000
9.372744e+002,1.614053e+000
9.411315e+002,1.591282e+000
9.449886e+002,1.590392e+000
9.488457e+002,1.877924e+000
9.527028e+002,6.000000e+000
9.565599e+002,6.000000e+000
9.604170e+002,6.000000e+000
9.642740e+002,6.000000e+000
9.681312e+002,6.000000e+000
9.719883e+002,6.000000e+000
9.758453e+002,1.882433e+000
9.797025e+002,1.455647e+000
9.835596e+002,1.226351e+000
9.874166e+002,1.238358e+000
9.912738e+002,1.450516e+000
9.951309e+002,2.081077e+000
9.989879e+002,2.562487e+000
1.002845e+003,1.703540e+000
1.006702e+003,1.730183e+000
1.010559e+003,2.367920e+000
1.014416e+003,6.000000e+000
1.018273e+003,1.553259e+000
1.022130e+003,1.703706e+000
1.025988e+003,6.000000e+000
1.029845e+003,6.000000e+000
1.033702e+003,6.000000e+000
1.037559e+003,6.000000e+000
1.041416e+003,6.000000e+000
1.045273e+003,1.792472e+000
1.049130e+003,2.199785e+000
1.052987e+003,2.102515e+000
1.056844e+003,1.913768e+000
1.060702e+003,1.833192e+000
1.064559e+003,1.867661e+000
1.068416e+003,1.736850e+000
1.072273e+003,1.518822e+000
1.076130e+003,1.426291e+000
1.079987e+003,1.467215e+000
1.083844e+003,1.553989e+000
1.087701e+003,1.824670e+000
1.091558e+003,6.000000e+000
1.095415e+003,6.000000e+000
1.099272e+003,6.000000e+000
1.103130e+003,6.000000e+000
1.106987e+003,2.180448e+000
1.110844e+003,1.408273e+000
1.114701e+003,1.329837e+000
1.118558e+003,1.539971e+000
1.122415e+003,1.954682e+000
1.126272e+003,2.196347e+000
1.130129e+003,1.719409e+000
1.133986e+003,1.484766e+000
1.137843e+003,1.518182e+000
1.141701e+003,1.365054e+000
1.145558e+003,1.307529e+000
1.149415e+003,1.419325e+000
1.153272e+003,1.539350e+000
1.157129e+003,1.536313e+000
1.160986e+003,1.462601e+000
1.164843e+003,1.491077e+000
1.168700e+003,1.568318e+000
1.172557e+003,1.719377e+000
1.176414e+003,1.584961e+000
1.180271e+003,1.644938e+000
1.184129e+003,1.657966e+000
1.187986e+003,1.549273e+000
1.191843e+003,1.590277e+000
1.195700e+003,1.456095e+000
1.199557e+003,1.424531e+000
1.203414e+003,1.536472e+000
1.207271e+003,1.505534e+000
1.211128e+003,1.378130e+000
1.214985e+003,1.380583e+000
1.218842e+003,1.368899e+000
1.222699e+003,1.228350e+000
1.226557e+003,1.175343e+000
1.230414e+003,1.157800e+000
1.234271e+003,1.134006e+000
1.238128e+003,1.014656e+000
1.241985e+003,9.521846e-001
1.245842e+003,9.700019e-001
1.249699e+003,9.393508e-001
1.253556e+003,8.840799e-001
1.257413e+003,8.832244e-001
1.261271e+003,8.300752e-001
1.265128e+003,7.569720e-001
1.268985e+003,7.279464e-001
1.272842e+003,7.142593e-001
1.276699e+003,7.115067e-001
1.280556e+003,6.972912e-001
1.284413e+003,6.730375e-001
1.288270e+003,6.545719e-001
1.292127e+003,6.527804e-001
1.295984e+003,6.294606e-001
1.299841e+003,5.959960e-001
1.303698e+003,5.882391e-001
1.307556e+003,5.887492e-001
1.311413e+003,5.789732e-001
1.315270e+003,5.715014e-001
1.319127e+003,5.628768e-001
1.322984e+003,5.509585e-001
1.326841e+003,5.481284e-001
1.330698e+003,5.617809e-001
1.334555e+003,5.490807e-001
1.338412e+003,5.356745e-001
1.342270e+003,5.262590e-001
1.346127e+003,5.246328e-001
1.349984e+003,5.358204e-001
1.353841e+003,5.341145e-001
1.357698e+003,5.292825e-001
1.361555e+003,5.234113e-001
1.365412e+003,5.255446e-001
1.369269e+003,5.402333e-001
1.373126e+003,5.582118e-001
1.376983e+003,5.812692e-001
1.380840e+003,5.965596e-001
1.384698e+003,6.173735e-001
1.388555e+003,6.463379e-001
1.392412e+003,6.608132e-001
1.396269e+003,6.702113e-001
1.400126e+003,6.744119e-001
1.403983e+003,6.936421e-001
1.407840e+003,7.179613e-001
1.411697e+003,7.352532e-001
1.415554e+003,7.446523e-001
1.419411e+003,7.278051e-001
1.423269e+003,7.527913e-001
1.427126e+003,7.662403e-001
1.430983e+003,7.477435e-001
1.434840e+003,7.610455e-001
1.438697e+003,7.759123e-001
1.442554e+003,7.846752e-001
1.446411e+003,7.842461e-001
1.450268e+003,7.413349e-001
1.454125e+003,7.121554e-001
1.457982e+003,6.933933e-001
1.461839e+003,6.880111e-001
1.465697e+003,6.842621e-001
1.469554e+003,6.905451e-001
1.473411e+003,7.085289e-001
1.477268e+003,7.271227e-001
1.481125e+003,7.309270e-001
1.484982e+003,7.262679e-001
1.488839e+003,7.487286e-001
1.492696e+003,7.799622e-001
1.496553e+003,7.718611e-001
1.500411e+003,7.679847e-001
1.504268e+003,7.705149e-001
1.508125e+003,7.764789e-001
1.511982e+003,7.704964e-001
1.515839e+003,7.542113e-001
1.519696e+003,7.550682e-001
1.523553e+003,7.590340e-001
1.527410e+003,7.585963e-001
1.531267e+003,7.394078e-001
1.535124e+003,6.986944e-001
1.538981e+003,6.639620e-001
1.542839e+003,6.409549e-001
1.546696e+003,6.392233e-001
1.550553e+003,6.430159e-001
1.554410e+003,6.270486e-001
1.558267e+003,6.042658e-001
1.562124e+003,5.985510e-001
1.565981e+003,5.924107e-001
1.569838e+003,5.791245e-001
1.573695e+003,5.541599e-001
1.577552e+003,5.579962e-001
1.581410e+003,5.782330e-001
1.585267e+003,5.805634e-001
1.589124e+003,5.824044e-001
1.592981e+003,5.920717e-001
1.596838e+003,5.966294e-001
1.600695e+003,6.172699e-001
1.604552e+003,6.588614e-001
1.608409e+003,6.801611e-001
1.612266e+003,6.968501e-001
1.616123e+003,7.460502e-001
1.619980e+003,7.873790e-001
1.623838e+003,8.198905e-001
1.627695e+003,8.423911e-001
1.631552e+003,8.675219e-001
1.635409e+003,8.734733e-001
1.639266e+003,8.859370e-001
1.643123e+003,8.760018e-001
1.646980e+003,8.479081e-001
1.650837e+003,8.022231e-001
1.654694e+003,7.840698e-001
1.658551e+003,7.658577e-001
1.662409e+003,7.407745e-001
1.666266e+003,7.110921e-001
1.670123e+003,6.732804e-001
1.673980e+003,6.422925e-001
1.677837e+003,6.121364e-001
1.681694e+003,5.891557e-001
1.685551e+003,5.650464e-001
1.689408e+003,5.455615e-001
1.693265e+003,5.269399e-001
1.697122e+003,5.179433e-001
1.700979e+003,5.032754e-001
1.704837e+003,4.850782e-001
1.708694e+003,4.743569e-001
1.712551e+003,4.715331e-001
1.716408e+003,4.679725e-001
1.720265e+003,4.575375e-001
1.724122e+003,4.534577e-001
1.727979e+003,4.523779e-001
1.731836e+003,4.389994e-001
1.735693e+003,4.333689e-001
1.739550e+003,4.257937e-001
1.743408e+003,4.197061e-001
1.747265e+003,4.277297e-001
1.751122e+003,4.370484e-001
1.754979e+003,4.276351e-001
1.758836e+003,4.184381e-001
1.762693e+003,4.261809e-001
1.766550e+003,4.284221e-001
1.770407e+003,4.242043e-001
1.774264e+003,4.304712e-001
1.778121e+003,4.308687e-001
1.781979e+003,4.265931e-001
1.785836e+003,4.246435e-001
1.789693e+003,4.251956e-001
1.793550e+003,4.248820e-001
1.797407e+003,4.195962e-001
1.801264e+003,4.148207e-001
1.805121e+003,4.104153e-001
1.808978e+003,4.081975e-001
1.812835e+003,4.081728e-001
1.816692e+003,4.135513e-001
1.820549e+003,4.099350e-001
1.824407e+003,3.970445e-001
1.828264e+003,3.894631e-001
1.832121e+003,3.945787e-001
1.835978e+003,3.958740e-001
1.839835e+003,3.956790e-001
1.843692e+003,3.936394e-001
1.847549e+003,3.877481e-001
1.851406e+003,3.846562e-001
1.855263e+003,3.906027e-001
1.859120e+003,3.924702e-001
1.862978e+003,3.841104e-001
1.866835e+003,3.816102e-001
1.870692e+003,3.781240e-001
1.874549e+003,3.726748e-001
1.878406e+003,3.738523e-001
1.882263e+003,3.749358e-001
1.886120e+003,3.685149e-001
1.889977e+003,3.697996e-001
1.893834e+003,3.731498e-001
1.897691e+003,3.715827e-001
1.901548e+003,3.689848e-001
1.905406e+003,3.650906e-001
1.909263e+003,3.638878e-001
1.913120e+003,3.656263e-001
1.916977e+003,3.622802e-001
1.920834e+003,3.602055e-001
1.924691e+003,3.679185e-001
1.928548e+003,3.636397e-001
1.932405e+003,3.524505e-001
1.936262e+003,3.521017e-001
1.940119e+003,3.551094e-001
1.943977e+003,3.552853e-001
1.947834e+003,3.538022e-001
1.951691e+003,3.541093e-001
1.955548e+003,3.547953e-001
1.959405e+003,3.576284e-001
1.963262e+003,3.599751e-001
1.967119e+003,3.552904e-001
1.970976e+003,3.491296e-001
1.974833e+003,3.428143e-001
1.978690e+003,3.336068e-001
1.982547e+003,3.321203e-001
1.986405e+003,3.369398e-001
1.990262e+003,3.381924e-001
1.994119e+003,3.357047e-001
1.997976e+003,3.382938e-001
2.001833e+003,3.312990e-001
2.005690e+003,3.299217e-001
2.009547e+003,3.310345e-001
2.013404e+003,3.328698e-001
2.017261e+003,3.356178e-001
2.021118e+003,3.365663e-001
2.024976e+003,3.326569e-001
2.028833e+003,3.275691e-001
2.032690e+003,3.236406e-001
2.036547e+003,3.205132e-001
2.040404e+003,3.249145e-001
2.044261e+003,3.303161e-001
2.048118e+003,3.280778e-001
2.051975e+003,3.259513e-001
2.055832e+003,3.246973e-001
2.059689e+003,3.160529e-001
2.063546e+003,3.115702e-001
2.067404e+003,3.150736e-001
2.071261e+003,3.138542e-001
2.075118e+003,3.131517e-001
2.078975e+003,3.208622e-001
2.082832e+003,3.249708e-001
2.086689e+003,3.198202e-001
2.090546e+003,3.122304e-001
2.094403e+003,3.132673e-001
2.098260e+003,3.159013e-001
2.102117e+003,3.140998e-001
2.105975e+003,3.162776e-001
2.109832e+003,3.206438e-001
2.113689e+003,3.164580e-001
2.117546e+003,3.138597e-001
2.121403e+003,3.113576e-001
2.125260e+003,3.091178e-001
2.129117e+003,3.156553e-001
2.132974e+003,3.200887e-001
2.136831e+003,3.119886e-001
2.140688e+003,3.087434e-001
2.144545e+003,3.131597e-001
2.148403e+003,3.188566e-001
2.152260e+003,3.197725e-001
2.156117e+003,3.163097e-001
2.159974e+003,3.118047e-001
2.163831e+003,3.138170e-001
2.167688e+003,3.153416e-001
2.171545e+003,3.198607e-001
2.175402e+003,3.219349e-001
2.179259e+003,3.232246e-001
2.183116e+003,3.258258e-001
2.186974e+003,3.213515e-001
2.190831e+003,3.171119e-001
2.194688e+003,3.138510e-001
2.198545e+003,3.161567e-001
2.202402e+003,3.181289e-001
2.206259e+003,3.208109e-001
2.210116e+003,3.254680e-001
2.213973e+003,3.273946e-001
2.217830e+003,3.267252e-001
2.221688e+003,3.315313e-001
2.225544e+003,3.314963e-001
2.229402e+003,3.310468e-001
2.233259e+003,3.334225e-001
2.237116e+003,3.294813e-001
2.240973e+003,3.276562e-001
2.244830e+003,3.318178e-001
2.248687e+003,3.346069e-001
2.252544e+003,3.321996e-001
2.256401e+003,3.283872e-001
2.260258e+003,3.247906e-001
2.264115e+003,3.269283e-001
2.267973e+003,3.298675e-001
2.271830e+003,3.267952e-001
2.275687e+003,3.272150e-001
2.279544e+003,3.347237e-001
2.283401e+003,3.369022e-001
2.287258e+003,3.315921e-001
2.291115e+003,3.311182e-001
2.294972e+003,3.319349e-001
2.298829e+003,3.361041e-001
2.302687e+003,3.358668e-001
2.306543e+003,3.401142e-001
2.310401e+003,3.384518e-001
2.314258e+003,3.333210e-001
2.318115e+003,3.341152e-001
2.321972e+003,3.360334e-001
2.325829e+003,3.308018e-001
2.329686e+003,3.260189e-001
2.333543e+003,3.286972e-001
2.337400e+003,3.331280e-001
2.341257e+003,3.372922e-001
2.345115e+003,3.388543e-001
2.348972e+003,3.416739e-001
2.352829e+003,3.394065e-001
2.356686e+003,3.317630e-001
2.360543e+003,3.254484e-001
2.364400e+003,3.333992e-001
2.368257e+003,3.401120e-001
2.372114e+003,3.362304e-001
2.375971e+003,3.403204e-001
2.379828e+003,3.474708e-001
2.383686e+003,3.436605e-001
2.387542e+003,3.373570e-001
2.391400e+003,3.352709e-001
2.395257e+003,3.384482e-001
2.399114e+003,3.375426e-001
2.402971e+003,3.385520e-001
2.406828e+003,3.391324e-001
2.410685e+003,3.366485e-001
2.414542e+003,3.375348e-001
2.418399e+003,3.397719e-001
2.422256e+003,3.391134e-001
2.426114e+003,3.384511e-001
2.429971e+003,3.351189e-001
2.433828e+003,3.320352e-001
2.437685e+003,3.339449e-001
2.441542e+003,3.356133e-001
2.445399e+003,3.335850e-001
2.449256e+003,3.304620e-001
2.453113e+003,3.305215e-001
2.456970e+003,3.263122e-001
2.460827e+003,3.265158e-001
2.464684e+003,3.296684e-001
2.468542e+003,3.275312e-001
2.472399e+003,3.273273e-001
2.476256e+003,3.333362e-001
2.480113e+003,3.298365e-001
2.483970e+003,3.328498e-001
2.487827e+003,3.400017e-001
2.491684e+003,3.358201e-001
2.495541e+003,3.371760e-001
2.499398e+003,3.380382e-001
2.503255e+003,3.321205e-001
2.507113e+003,3.304438e-001
2.510969e+003,3.337291e-001
2.514827e+003,3.336023e-001
2.518684e+003,3.297227e-001
2.522541e+003,3.255463e-001
2.526398e+003,3.261952e-001
2.530255e+003,3.299021e-001
2.534112e+003,3.303003e-001
2.537969e+003,3.292382e-001
2.541826e+003,3.316242e-001
2.545683e+003,3.362363e-001
2.549541e+003,3.433501e-001
2.553398e+003,3.440122e-001
2.557255e+003,3.455031e-001
2.561112e+003,3.460211e-001
2.564969e+003,3.430477e-001
2.568826e+003,3.419487e-001
2.572683e+003,3.454722e-001
2.576540e+003,3.492417e-001
2.580397e+003,3.524588e-001
2.584254e+003,3.514751e-001
2.588112e+003,3.541713e-001
2.591969e+003,3.603821e-001
2.595826e+003,3.602635e-001
2.599683e+003,3.630881e-001
2.603540e+003,3.695858e-001
2.607397e+003,3.700055e-001
2.611254e+003,3.736195e-001
2.615111e+003,3.800994e-001
2.618968e+003,3.778584e-001
2.622825e+003,3.835241e-001
2.626682e+003,3.884736e-001
2.630540e+003,3.908350e-001
2.634397e+003,3.928927e-001
2.638254e+003,3.961166e-001
2.642111e+003,3.975710e-001
2.645968e+003,3.956777e-001
2.649825e+003,3.958080e-001
2.653682e+003,3.981754e-001
2.657539e+003,4.044289e-001
2.661396e+003,4.121442e-001
2.665253e+003,4.169658e-001
2.669111e+003,4.160047e-001
2.672968e+003,4.135773e-001
2.676825e+003,4.190274e-001
2.680682e+003,4.216765e-001
2.684539e+003,4.293755e-001
2.688396e+003,4.480084e-001
2.692253e+003,4.478815e-001
2.696110e+003,4.375427e-001
2.699967e+003,4.415258e-001
2.703824e+003,4.530322e-001
2.707681e+003,4.586375e-001
2.711539e+003,4.568717e-001
2.715396e+003,4.635508e-001
2.719253e+003,4.660999e-001
2.723110e+003,4.619166e-001
2.726967e+003,4.713453e-001
2.730824e+003,4.814545e-001
2.734681e+003,4.892709e-001
2.738538e+003,4.934734e-001
2.742395e+003,4.938824e-001
2.746252e+003,4.968072e-001
2.750110e+003,4.994080e-001
2.753967e+003,5.031130e-001
2.757824e+003,5.056614e-001
2.761681e+003,5.141649e-001
2.765538e+003,5.219240e-001
2.769395e+003,5.242645e-001
2.773252e+003,5.282409e-001
2.777109e+003,5.443428e-001
2.780966e+003,5.477630e-001
2.784823e+003,5.412660e-001
2.788680e+003,5.487953e-001
2.792538e+003,5.606849e-001
2.796395e+003,5.761286e-001
2.800252e+003,5.834772e-001
2.804109e+003,5.825286e-001
2.807966e+003,5.772527e-001
2.811823e+003,5.817975e-001
2.815680e+003,5.897939e-001
2.819537e+003,5.969199e-001
2.823394e+003,5.975103e-001
2.827251e+003,5.888953e-001
2.831109e+003,6.057112e-001
2.834966e+003,6.244542e-001
2.838823e+003,6.188985e-001
2.842680e+003,6.209111e-001
2.846537e+003,6.246337e-001
2.850394e+003,6.265045e-001
2.854251e+003,6.466331e-001
2.858108e+003,6.606566e-001
2.861965e+003,6.566250e-001
2.865823e+003,6.541596e-001
2.869679e+003,6.601830e-001
2.873537e+003,6.688908e-001
2.877394e+003,6.861818e-001
2.881251e+003,6.880178e-001
2.885108e+003,6.912460e-001
2.888965e+003,6.985326e-001
2.892822e+003,7.019939e-001
2.896679e+003,7.101886e-001
2.900536e+003,7.224357e-001
2.904393e+003,7.308785e-001
2.908250e+003,7.354230e-001
2.912108e+003,7.397682e-001
2.915965e+003,7.481374e-001
2.919822e+003,7.483456e-001
2.923679e+003,7.642782e-001
2.927536e+003,7.875615e-001
2.931393e+003,7.869608e-001
2.935250e+003,7.930561e-001
2.939107e+003,7.978496e-001
2.942964e+003,7.942846e-001
2.946822e+003,7.935131e-001
2.950678e+003,8.115345e-001
2.954536e+003,8.196521e-001
2.958393e+003,8.243281e-001
2.962250e+003,8.377566e-001
2.966107e+003,8.483244e-001
2.969964e+003,8.642489e-001
2.973821e+003,8.821155e-001
2.977678e+003,8.919294e-001
2.981535e+003,8.782637e-001
2.985392e+003,8.595964e-001
2.989250e+003,8.786560e-001
2.993107e+003,8.819379e-001
2.996964e+003,8.785601e-001
3.000821e+003,9.025591e-001
3.004678e+003,9.016920e-001
3.008535e+003,8.779216e-001
3.012392e+003,8.788477e-001
3.016249e+003,9.062288e-001
3.020106e+003,9.473336e-001
3.023963e+003,9.567995e-001
3.027821e+003,9.585261e-001
3.031677e+003,9.566708e-001
3.035535e+003,9.343532e-001
3.039392e+003,9.309295e-001
3.043249e+003,9.477181e-001
3.047106e+003,9.821269e-001
3.050963e+003,9.985327e-001
3.054820e+003,9.859895e-001
3.058677e+003,9.832639e-001
3.062534e+003,9.900468e-001
3.066391e+003,1.014241e+000
3.070249e+003,1.035911e+000
3.074106e+003,1.070990e+000
3.077963e+003,1.091338e+000
3.081820e+003,1.079896e+000
3.085677e+003,1.084177e+000
3.089534e+003,1.112886e+000
3.093391e+003,1.102940e+000
3.097248e+003,1.083182e+000
3.101105e+003,1.112977e+000
3.104962e+003,1.145738e+000
3.108820e+003,1.151781e+000
3.112677e+003,1.168699e+000
3.116534e+003,1.150885e+000
3.120391e+003,1.148155e+000
3.124248e+003,1.161143e+000
3.128105e+003,1.173355e+000
3.131962e+003,1.199187e+000
3.135819e+003,1.191543e+000
3.139676e+003,1.161673e+000
3.143533e+003,1.169762e+000
3.147390e+003,1.207402e+000
3.151248e+003,1.183607e+000
3.155105e+003,1.112218e+000
3.158962e+003,1.130320e+000
3.162819e+003,1.182871e+000
3.166676e+003,1.182522e+000
3.170533e+003,1.224827e+000
3.174390e+003,1.308893e+000
3.178247e+003,1.350589e+000
3.182104e+003,1.319466e+000
3.185961e+003,1.267167e+000
3.189819e+003,1.273644e+000
3.193676e+003,1.296215e+000
3.197533e+003,1.283643e+000
3.201390e+003,1.308761e+000
3.205247e+003,1.368946e+000
3.209104e+003,1.338952e+000
3.212961e+003,1.301144e+000
3.216818e+003,1.290530e+000
3.220675e+003,1.309254e+000
3.224532e+003,1.308507e+000
3.228389e+003,1.382944e+000
3.232247e+003,1.495757e+000
3.236104e+003,1.456089e+000
3.239961e+003,1.426724e+000
3.243818e+003,1.384293e+000
3.247675e+003,1.361594e+000
3.251532e+003,1.390297e+000
3.255389e+003,1.417454e+000
3.259246e+003,1.379248e+000
3.263103e+003,1.323676e+000
3.266960e+003,1.344321e+000
3.270818e+003,1.379942e+000
3.274675e+003,1.375214e+000
3.278532e+003,1.359370e+000
3.282389e+003,1.340878e+000
3.286246e+003,1.390322e+000
3.290103e+003,1.432938e+000
3.293960e+003,1.448492e+000
3.297817e+003,1.458573e+000
3.301674e+003,1.423166e+000
3.305531e+003,1.440220e+000
3.309388e+003,1.528077e+000
3.313246e+003,1.602120e+000
3.317103e+003,1.667599e+000
3.320960e+003,1.625819e+000
3.324817e+003,1.494449e+000
3.328674e+003,1.420559e+000
3.332531e+003,1.438712e+000
3.336388e+003,1.434653e+000
3.340245e+003,1.441146e+000
3.344102e+003,1.474308e+000
3.347959e+003,1.567567e+000
3.351817e+003,1.654712e+000
3.355674e+003,1.704549e+000
3.359531e+003,1.589131e+000
3.363388e+003,1.476654e+000
3.367245e+003,1.498913e+000
3.371102e+003,1.504288e+000
3.374959e+003,1.433700e+000
3.378816e+003,1.485117e+000
3.382673e+003,1.563041e+000
3.386530e+003,1.644064e+000
3.390387e+003,1.625260e+000
3.394245e+003,1.621636e+000
3.398102e+003,1.618919e+000
3.401959e+003,1.536161e+000
3.405816e+003,1.499404e+000
3.409673e+003,1.624805e+000
3.413530e+003,1.735066e+000
3.417387e+003,1.719955e+000
3.421244e+003,1.670007e+000
3.425101e+003,1.851823e+000
3.428958e+003,1.984722e+000
3.432815e+003,1.643816e+000
3.436673e+003,1.523323e+000
3.440530e+003,1.511014e+000
3.444387e+003,1.627041e+000
3.448244e+003,1.720873e+000
3.452101e+003,1.672385e+000
3.455958e+003,1.663859e+000
3.459815e+003,1.614834e+000
3.463672e+003,1.649269e+000
3.467529e+003,1.698162e+000
3.471386e+003,1.645265e+000
3.475244e+003,1.590939e+000
3.479101e+003,1.594048e+000
3.482958e+003,1.650431e+000
3.486815e+003,1.640440e+000
3.490672e+003,1.634332e+000
3.494529e+003,1.596084e+000
3.498386e+003,1.636203e+000
3.502243e+003,1.674120e+000
3.506100e+003,1.625726e+000
3.509958e+003,1.602782e+000
3.513814e+003,1.686169e+000
3.517672e+003,1.663445e+000
3.521529e+003,1.551689e+000
3.525386e+003,1.644434e+000
3.529243e+003,1.751348e+000
3.533100e+003,1.714432e+000
3.536957e+003,1.642380e+000
3.540814e+003,1.599520e+000
3.544671e+003,1.590860e+000
3.548528e+003,1.547225e+000
3.552385e+003,1.515205e+000
3.556243e+003,1.445480e+000
3.560100e+003,1.471177e+000
3.563957e+003,1.606652e+000
3.567814e+003,1.721960e+000
3.571671e+003,1.644241e+000
3.575528e+003,1.493546e+000
3.579385e+003,1.432390e+000
3.583242e+003,1.495641e+000
3.587099e+003,1.644292e+000
3.590957e+003,1.539602e+000
3.594813e+003,1.477445e+000
3.598671e+003,1.585691e+000
3.602528e+003,1.541507e+000
3.606385e+003,1.450837e+000
3.610242e+003,1.372401e+000
3.614099e+003,1.294299e+000
3.617956e+003,1.287287e+000
3.621813e+003,1.265445e+000
3.625670e+003,1.177390e+000
3.629527e+003,1.126426e+000
3.633385e+003,1.067561e+000
3.637242e+003,9.959407e-001
3.641099e+003,9.373041e-001
3.644956e+003,8.775964e-001
3.648813e+003,8.067618e-001
3.652670e+003,7.337943e-001
3.656527e+003,6.812865e-001
3.660384e+003,6.319781e-001
3.664241e+003,5.667076e-001
3.668098e+003,5.109998e-001
3.671956e+003,4.743097e-001
3.675813e+003,4.477775e-001
3.679670e+003,4.120640e-001
3.683527e+003,3.786334e-001
3.687384e+003,3.523995e-001
3.691241e+003,3.251159e-001
3.695098e+003,2.966423e-001
3.698955e+003,2.789503e-001
3.702812e+003,2.715169e-001
3.706669e+003,2.579567e-001
3.710526e+003,2.470068e-001
3.714384e+003,2.391197e-001
3.718241e+003,2.311319e-001
3.722098e+003,2.186890e-001
3.725955e+003,2.094568e-001
3.729812e+003,2.021036e-001
3.733669e+003,1.969816e-001
3.737526e+003,1.943264e-001
3.741383e+003,1.949820e-001
3.745240e+003,1.931488e-001
3.749097e+003,1.875947e-001
3.752955e+003,1.839921e-001
3.756812e+003,1.813932e-001
3.760669e+003,1.730680e-001
3.764526e+003,1.695797e-001
3.768383e+003,1.753587e-001
3.772240e+003,1.786280e-001
3.776097e+003,1.773393e-001
3.779954e+003,1.771810e-001
3.783811e+003,1.776139e-001
3.787668e+003,1.711797e-001
3.791525e+003,1.701239e-001
3.795383e+003,1.750406e-001
3.799240e+003,1.784989e-001
3.803097e+003,1.755151e-001
3.806954e+003,1.714070e-001
3.810811e+003,1.664154e-001
3.814668e+003,1.627532e-001
3.818525e+003,1.632169e-001
3.822382e+003,1.668342e-001
3.826239e+003,1.665771e-001
3.830096e+003,1.662840e-001
3.833954e+003,1.698503e-001
3.837811e+003,1.683338e-001
3.841668e+003,1.682023e-001
3.845525e+003,1.644647e-001
3.849382e+003,1.679965e-001
3.853239e+003,1.719694e-001
3.857096e+003,1.601631e-001
3.860953e+003,1.597339e-001
3.864810e+003,1.659991e-001
3.868667e+003,1.639797e-001
3.872524e+003,1.604948e-001
3.876382e+003,1.604721e-001
3.880239e+003,1.621755e-001
3.884096e+003,1.646602e-001
3.887953e+003,1.662917e-001
3.891810e+003,1.649933e-001
3.895667e+003,1.663692e-001
3.899524e+003,1.644851e-001
3.903381e+003,1.584412e-001
3.907238e+003,1.596689e-001
3.911095e+003,1.640204e-001
3.914953e+003,1.676305e-001
3.918810e+003,1.610834e-001
3.922667e+003,1.532434e-001
3.926524e+003,1.535847e-001
3.930381e+003,1.589243e-001
3.934238e+003,1.581691e-001
3.938095e+003,1.571864e-001
3.941952e+003,1.578430e-001
3.945809e+003,1.575708e-001
3.949667e+003,1.589538e-001
3.953523e+003,1.639710e-001
3.957381e+003,1.637166e-001
3.961238e+003,1.592838e-001
3.965095e+003,1.612669e-001
3.968952e+003,1.617668e-001
3.972809e+003,1.706544e-001
3.976666e+003,1.692018e-001
3.980523e+003,1.567283e-001
3.984380e+003,1.481955e-001
3.988237e+003,1.506558e-001
3.992094e+003,1.610950e-001
3.995952e+003,1.581566e-001
3.999809e+003,1.591530e-001
4.003666e+003,1.656177e-001
4.007523e+003,1.641375e-001
4.011380e+003,1.584284e-001
4.015237e+003,1.551232e-001
4.019094e+003,1.529877e-001
4.022951e+003,1.513912e-001
4.026808e+003,1.538278e-001
4.030666e+003,1.570331e-001
4.034522e+003,1.556299e-001
4.038380e+003,1.555212e-001
4.042237e+003,1.564556e-001
4.046094e+003,1.560998e-001
4.049951e+003,1.609636e-001
4.053808e+003,1.684110e-001
4.057665e+003,1.700718e-001
4.061522e+003,1.620097e-001
4.065379e+003,1.587285e-001
4.069236e+003,1.601511e-001
4.073094e+003,1.489089e-001
4.076951e+003,1.423527e-001
4.080808e+003,1.517355e-001
4.084665e+003,1.537195e-001
4.088522e+003,1.498295e-001
4.092379e+003,1.513361e-001
4.096236e+003,1.522245e-001
4.100093e+003,1.547355e-001
4.103950e+003,1.560508e-001
4.107808e+003,1.478909e-001
4.111665e+003,1.457089e-001
4.115521e+003,1.468292e-001
4.119379e+003,1.437213e-001
4.123236e+003,1.446281e-001
4.127093e+003,1.412579e-001
4.130950e+003,1.456220e-001
4.134807e+003,1.515247e-001
4.138664e+003,1.447674e-001
4.142521e+003,1.418336e-001
4.146378e+003,1.429075e-001
4.150235e+003,1.376056e-001
4.154093e+003,1.362163e-001
4.157950e+003,1.388768e-001
4.161807e+003,1.387206e-001
4.165664e+003,1.356835e-001
4.169521e+003,1.376110e-001
4.173378e+003,1.412869e-001
4.177235e+003,1.432242e-001
4.181092e+003,1.370284e-001
4.184949e+003,1.396502e-001
4.188807e+003,1.408020e-001
4.192664e+003,1.399011e-001
4.196521e+003,1.363531e-001
4.200378e+003,1.393750e-001
4.204235e+003,1.434402e-001
4.208092e+003,1.414459e-001
4.211949e+003,1.386065e-001
4.215806e+003,1.432498e-001
4.219663e+003,1.446266e-001
4.223521e+003,1.403362e-001
4.227377e+003,1.368793e-001
4.231234e+003,1.379111e-001
4.235092e+003,1.390277e-001
4.238949e+003,1.410676e-001
4.242806e+003,1.394408e-001
4.246663e+003,1.356229e-001
4.250520e+003,1.405779e-001
4.254377e+003,1.361816e-001
4.258234e+003,1.351145e-001
4.262091e+003,1.385501e-001
4.265948e+003,1.368994e-001
4.269806e+003,1.395397e-001
4.273663e+003,1.458146e-001
4.277520e+003,1.398349e-001
4.281377e+003,1.360023e-001
4.285234e+003,1.388917e-001
4.289091e+003,1.344666e-001
4.292948e+003,1.324826e-001
4.296805e+003,1.363266e-001
4.300662e+003,1.295784e-001
4.304520e+003,1.250684e-001
4.308376e+003,1.398966e-001
4.312233e+003,1.395575e-001
4.316091e+003,1.263619e-001
4.319948e+003,1.248449e-001
4.323805e+003,1.218125e-001
4.327662e+003,1.200580e-001
4.331519e+003,1.261471e-001
4.335376e+003,1.369267e-001
4.339233e+003,1.360896e-001
4.343090e+003,1.331195e-001
4.346947e+003,1.346710e-001
4.350805e+003,1.402926e-001
4.354662e+003,1.383909e-001
4.358519e+003,1.278839e-001
4.362376e+003,1.337257e-001
4.366233e+003,1.407895e-001
4.370090e+003,1.349504e-001
4.373947e+003,1.333456e-001
4.377804e+003,1.350582e-001
4.381661e+003,1.358578e-001
4.385519e+003,1.332462e-001
4.389375e+003,1.416526e-001
4.393232e+003,1.440569e-001
4.397090e+003,1.398664e-001
4.400947e+003,1.349668e-001
4.404804e+003,1.327709e-001
4.408661e+003,1.385606e-001
4.412518e+003,1.375785e-001
4.416375e+003,1.383515e-001
4.420232e+003,1.401128e-001
4.424089e+003,1.488748e-001
4.427946e+003,1.529222e-001
4.431804e+003,1.428701e-001
4.435661e+003,1.358214e-001
4.439518e+003,1.269870e-001
4.443375e+003,1.296025e-001
4.447232e+003,1.418747e-001
4.451089e+003,1.389301e-001
4.454946e+003,1.334855e-001
4.458803e+003,1.337230e-001
4.462660e+003,1.323926e-001
4.466518e+003,1.306780e-001
4.470375e+003,1.381428e-001
4.474231e+003,1.433641e-001
4.478089e+003,1.384903e-001
4.481946e+003,1.388181e-001
4.485803e+003,1.415886e-001
4.489660e+003,1.431672e-001
4.493517e+003,1.422547e-001
4.497375e+003,1.427991e-001
4.501231e+003,1.455237e-001
4.505088e+003,1.404828e-001
4.508946e+003,1.422400e-001
4.512803e+003,1.405862e-001
4.516660e+003,1.330955e-001
4.520517e+003,1.292983e-001
4.524374e+003,1.253657e-001
4.528231e+003,1.300941e-001
4.532088e+003,1.361048e-001
4.535945e+003,1.323985e-001
4.539802e+003,1.272505e-001
4.543660e+003,1.277104e-001
4.547517e+003,1.302884e-001
4.551374e+003,1.355368e-001
4.555231e+003,1.405530e-001
4.559088e+003,1.387867e-001
4.562945e+003,1.293107e-001
4.566802e+003,1.146813e-001
4.570659e+003,1.110734e-001
4.574516e+003,1.254217e-001
4.578374e+003,1.336120e-001
4.582230e+003,1.275090e-001
4.586087e+003,1.229012e-001
4.589945e+003,1.275461e-001
4.593802e+003,1.310547e-001
4.597659e+003,1.313368e-001
4.601516e+003,1.296853e-001
4.605373e+003,1.256326e-001
4.609230e+003,1.276651e-001
4.613087e+003,1.352828e-001
4.616944e+003,1.306611e-001
4.620801e+003,1.282492e-001
4.624659e+003,1.333458e-001
4.628516e+003,1.292639e-001
4.632373e+003,1.230769e-001
4.636230e+003,1.316147e-001
4.640087e+003,1.338283e-001
4.643944e+003,1.231850e-001
4.647801e+003,1.121517e-001
4.651658e+003,1.138136e-001
4.655515e+003,1.276381e-001
4.659373e+003,1.212707e-001
4.663229e+003,1.165783e-001
4.667086e+003,1.299750e-001
4.670944e+003,1.363740e-001
4.674801e+003,1.357458e-001
4.678658e+003,1.320878e-001
4.682515e+003,1.321598e-001
4.686372e+003,1.313674e-001
4.690229e+003,1.283942e-001
4.694086e+003,1.254167e-001
4.697943e+003,1.211638e-001
4.701800e+003,1.319184e-001
4.705658e+003,1.302191e-001
4.709515e+003,1.154449e-001
4.713372e+003,1.167290e-001
4.717229e+003,1.198592e-001
4.721086e+003,1.232289e-001
4.724943e+003,1.262851e-001
4.728800e+003,1.276686e-001
4.732657e+003,1.279535e-001
4.736514e+003,1.296066e-001
4.740372e+003,1.240293e-001
4.744229e+003,1.202635e-001
4.748085e+003,1.261403e-001
4.751943e+003,1.281468e-001
4.755800e+003,1.261121e-001
4.759657e+003,1.288008e-001
4.763514e+003,1.318504e-001
4.767371e+003,1.327583e-001
4.771228e+003,1.317655e-001
4.775085e+003,1.349492e-001
4.778942e+003,1.314359e-001
4.782799e+003,1.209659e-001
4.786657e+003,1.211840e-001
4.790514e+003,1.381629e-001
4.794371e+003,1.469553e-001
4.798228e+003,1.382119e-001
4.802085e+003,1.272874e-001
4.805942e+003,1.260441e-001
4.809799e+003,1.217861e-001
4.813656e+003,1.230562e-001
4.817513e+003,1.296646e-001
4.821371e+003,1.375572e-001
4.825228e+003,1.359479e-001
4.829084e+003,1.275546e-001
4.832942e+003,1.243118e-001
4.836799e+003,1.323364e-001
4.840656e+003,1.334770e-001
4.844513e+003,1.275159e-001
4.848370e+003,1.306752e-001
4.852227e+003,1.293369e-001
4.856084e+003,1.311986e-001
4.859941e+003,1.325078e-001
4.863798e+003,1.320063e-001
4.867656e+003,1.366824e-001
4.871513e+003,1.398344e-001
4.875370e+003,1.381094e-001
4.879227e+003,1.322916e-001
4.883084e+003,1.343977e-001
4.886941e+003,1.336567e-001
4.890798e+003,1.322966e-001
4.894655e+003,1.315704e-001
4.898512e+003,1.200568e-001
4.902370e+003,1.195088e-001
4.906227e+003,1.307387e-001
4.910083e+003,1.333281e-001
4.913941e+003,1.325610e-001
4.917798e+003,1.346820e-001
4.921655e+003,1.284550e-001
4.925512e+003,1.236591e-001
4.929369e+003,1.172061e-001
4.933226e+003,1.131134e-001
4.937083e+003,1.157013e-001
4.940940e+003,1.268641e-001
4.944797e+003,1.373472e-001
4.948655e+003,1.297000e-001
4.952512e+003,1.244919e-001
4.956369e+003,1.297842e-001
4.960226e+003,1.253109e-001
4.964083e+003,1.160639e-001
4.967940e+003,1.170230e-001
4.971797e+003,1.264798e-001
4.975654e+003,1.305786e-001
4.979511e+003,1.285611e-001
4.983369e+003,1.270803e-001
4.987226e+003,1.199764e-001
4.991083e+003,1.154739e-001
4.994940e+003,1.194267e-001
4.998797e+003,1.255756e-001
5.002654e+003,1.254478e-001
5.006511e+003,1.123178e-001
5.010368e+003,1.007217e-001
5.014225e+003,1.129772e-001
5.018083e+003,1.299435e-001
5.021939e+003,1.304171e-001
5.025796e+003,1.327733e-001
5.029654e+003,1.309582e-001
5.033511e+003,1.315132e-001
5.037368e+003,1.324175e-001
5.041225e+003,1.233695e-001
5.045082e+003,1.159086e-001
5.048939e+003,1.199504e-001
5.052796e+003,1.263272e-001
5.056653e+003,1.346363e-001
5.060510e+003,1.404435e-001
5.064368e+003,1.325971e-001
5.068225e+003,1.134281e-001
5.072082e+003,1.071882e-001
5.075939e+003,1.170709e-001
5.079796e+003,1.274218e-001
5.083653e+003,1.365424e-001
5.087510e+003,1.339210e-001
5.091367e+003,1.257628e-001
5.095224e+003,1.349588e-001
5.099082e+003,1.367687e-001
5.102938e+003,1.349831e-001
5.106795e+003,1.452043e-001
5.110653e+003,1.423116e-001
5.114510e+003,1.393761e-001
5.118367e+003,1.429152e-001
5.122224e+003,1.380234e-001
5.126081e+003,1.385585e-001
5.129938e+003,1.413428e-001
5.133795e+003,1.335784e-001
5.137652e+003,1.284346e-001
5.141509e+003,1.286849e-001
5.145367e+003,1.430073e-001
5.149224e+003,1.519235e-001
5.153081e+003,1.494888e-001
5.156938e+003,1.422756e-001
5.160795e+003,1.395560e-001
5.164652e+003,1.396872e-001
5.168509e+003,1.354615e-001
5.172366e+003,1.345576e-001
5.176223e+003,1.386563e-001
5.180081e+003,1.336834e-001
5.183938e+003,1.285032e-001
5.187794e+003,1.266558e-001
5.191652e+003,1.279564e-001
5.195509e+003,1.324053e-001
5.199366e+003,1.427182e-001
5.203223e+003,1.447986e-001
5.207080e+003,1.426031e-001
5.210937e+003,1.343857e-001
5.214794e+003,1.279836e-001
5.218651e+003,1.245434e-001
5.222508e+003,1.308606e-001
5.226366e+003,1.384668e-001
5.230223e+003,1.400545e-001
5.234080e+003,1.241425e-001
5.237937e+003,1.174179e-001
5.241794e+003,1.372800e-001
5.245651e+003,1.374299e-001
5.249508e+003,1.246217e-001
5.253365e+003,1.176195e-001
5.257222e+003,1.211757e-001
5.261080e+003,1.254594e-001
5.264937e+003,1.160444e-001
5.268793e+003,1.132325e-001
5.272651e+003,1.174302e-001
5.276508e+003,1.151879e-001
5.280365e+003,1.179968e-001
5.284222e+003,1.129850e-001
5.288079e+003,1.066098e-001
5.291936e+003,1.062249e-001
5.295793e+003,1.277486e-001
5.299650e+003,1.287877e-001
5.303507e+003,1.181903e-001
5.307365e+003,1.256130e-001
5.311222e+003,1.297102e-001
5.315079e+003,1.266597e-001
5.318936e+003,1.311360e-001
5.322793e+003,1.433911e-001
5.326650e+003,1.397076e-001
5.330507e+003,1.255832e-001
5.334364e+003,1.191711e-001
5.338221e+003,1.209613e-001
5.342079e+003,1.221754e-001
5.345936e+003,1.163912e-001
5.349792e+003,1.206048e-001
5.353650e+003,1.342333e-001
5.357507e+003,1.325319e-001
5.361364e+003,1.235568e-001
5.365221e+003,1.197793e-001
5.369078e+003,1.138209e-001
5.372935e+003,1.140256e-001
5.376792e+003,1.167270e-001
5.380649e+003,1.200913e-001
5.384506e+003,1.206214e-001
5.388364e+003,1.231980e-001
5.392221e+003,1.289332e-001
5.396078e+003,1.287555e-001
5.399935e+003,1.265612e-001
5.403792e+003,1.171175e-001
5.407649e+003,9.908919e-002
5.411506e+003,1.137357e-001
5.415363e+003,1.248667e-001
5.419220e+003,1.139297e-001
5.423078e+003,1.171751e-001
5.426935e+003,1.267620e-001
5.430792e+003,1.264113e-001
5.434649e+003,1.213205e-001
5.438506e+003,1.046727e-001
5.442363e+003,1.100609e-001
5.446220e+003,1.254294e-001
5.450077e+003,1.240012e-001
5.453934e+003,1.227727e-001
5.457792e+003,1.227475e-001
5.461648e+003,1.191752e-001
5.465505e+003,1.236418e-001
5.469363e+003,1.258596e-001
5.473220e+003,1.206331e-001
5.477077e+003,1.312068e-001
5.480934e+003,1.378685e-001
5.484791e+003,1.267617e-001
5.488648e+003,1.067663e-001
5.492505e+003,1.075589e-001
5.496362e+003,1.211037e-001
5.500219e+003,1.352496e-001
5.504077e+003,1.313996e-001
5.507934e+003,1.273975e-001
5.511791e+003,1.286301e-001
5.515648e+003,1.359070e-001
5.519505e+003,1.435186e-001
5.523362e+003,1.365463e-001
5.527219e+003,1.251285e-001
5.531076e+003,1.268782e-001
5.534933e+003,1.205046e-001
5.538791e+003,1.250273e-001
5.542647e+003,1.283592e-001
5.546504e+003,1.215106e-001
5.550362e+003,1.119067e-001
5.554219e+003,1.073524e-001
5.558076e+003,1.137586e-001
5.561933e+003,1.132393e-001
5.565790e+003,1.084533e-001
5.569647e+003,1.138455e-001
5.573504e+003,1.127097e-001
5.577361e+003,1.072260e-001
5.581218e+003,1.163599e-001
5.585076e+003,1.312660e-001
5.588933e+003,1.259929e-001
5.592790e+003,1.130202e-001
5.596647e+003,1.087688e-001
5.600504e+003,9.097298e-002
5.604361e+003,1.026649e-001
5.608218e+003,1.077631e-001
5.612075e+003,1.028829e-001
5.615932e+003,1.090306e-001
5.619790e+003,1.132356e-001
5.623646e+003,1.089316e-001
5.627503e+003,1.044688e-001
5.631361e+003,1.066313e-001
5.635218e+003,1.143595e-001
5.639075e+003,1.172824e-001
5.642932e+003,1.185864e-001
5.646789e+003,1.180486e-001
5.650646e+003,1.177158e-001
5.654503e+003,1.131720e-001
5.658360e+003,1.096589e-001
5.662217e+003,1.133750e-001
5.666075e+003,1.109196e-001
5.669932e+003,1.179846e-001
5.673789e+003,1.181183e-001
5.677646e+003,1.148767e-001
5.681503e+003,1.133816e-001
5.685360e+003,1.126233e-001
5.689217e+003,1.174822e-001
5.693074e+003,1.284971e-001
5.696931e+003,1.219383e-001
5.700789e+003,1.094738e-001
5.704646e+003,1.114539e-001
5.708502e+003,1.097221e-001
5.712360e+003,1.151529e-001
5.716217e+003,1.202716e-001
5.720074e+003,1.186173e-001
5.723931e+003,1.213785e-001
5.727788e+003,1.257020e-001
5.731645e+003,1.243668e-001
5.735502e+003,1.013636e-001
5.739359e+003,8.731190e-002
5.743216e+003,1.018917e-001
5.747074e+003,1.206755e-001
5.750931e+003,1.303258e-001
5.754788e+003,1.322483e-001
5.758645e+003,1.295841e-001
5.762502e+003,1.215323e-001
5.766359e+003,1.132635e-001
5.770216e+003,1.089217e-001
5.774073e+003,1.177028e-001
5.777930e+003,1.162941e-001
5.781788e+003,1.106932e-001
5.785645e+003,1.134481e-001
5.789501e+003,1.147776e-001
5.793359e+003,1.206106e-001
5.797216e+003,1.111884e-001
5.801073e+003,9.146590e-002
5.804930e+003,9.849497e-002
5.808787e+003,1.036041e-001
5.812644e+003,1.025281e-001
5.816501e+003,8.636701e-002
5.820358e+003,9.029956e-002
5.824215e+003,9.085812e-002
5.828073e+003,9.446227e-002
5.831930e+003,1.033411e-001
5.835787e+003,9.917944e-002
5.839644e+003,1.045418e-001
5.843501e+003,1.021502e-001
5.847358e+003,1.045810e-001
5.851215e+003,1.053141e-001
5.855072e+003,8.831935e-002
5.858929e+003,9.178619e-002
5.862787e+003,1.021439e-001
5.866644e+003,1.017284e-001
5.870500e+003,9.861292e-002
5.874358e+003,1.021459e-001
5.878215e+003,9.962875e-002
5.882072e+003,9.093907e-002
5.885929e+003,1.015638e-001
5.889786e+003,1.201004e-001
5.893643e+003,1.329370e-001
5.897500e+003,1.289764e-001
5.901357e+003,1.179152e-001
5.905214e+003,1.192098e-001
5.909072e+003,1.229715e-001
5.912929e+003,1.103237e-001
5.916786e+003,1.026582e-001
5.920643e+003,1.094422e-001
5.924500e+003,1.100909e-001
5.928357e+003,1.025638e-001
5.932214e+003,1.011312e-001
5.936071e+003,9.898917e-002
5.939928e+003,1.020564e-001
5.943786e+003,1.035207e-001
5.947643e+003,1.044457e-001
5.951500e+003,1.064914e-001
5.955357e+003,9.898127e-002
5.959214e+003,9.924286e-002
5.963071e+003,9.612714e-002
5.966928e+003,8.501817e-002
5.970785e+003,8.047818e-002
5.974642e+003,9.890254e-002
5.978500e+003,1.024495e-001
5.982356e+003,1.065954e-001
5.986213e+003,1.057872e-001
5.990071e+003,9.880352e-002
5.993928e+003,1.041216e-001
5.997785e+003,9.590837e-002
6.001642e+003,9.422631e-002
6.005499e+003,9.972999e-002
6.009356e+003,9.322409e-002
6.013213e+003,8.190355e-002
6.017070e+003,9.812333e-002
6.020927e+003,1.122818e-001
6.024785e+003,9.952310e-002
6.028642e+003,9.460875e-002
6.032499e+003,1.121158e-001
6.036356e+003,1.346945e-001
6.040213e+003,1.263033e-001
6.044070e+003,1.214908e-001
6.047927e+003,1.298516e-001
6.051784e+003,1.119629e-001
6.055641e+003,8.473943e-002
6.059499e+003,9.153813e-002
6.063355e+003,1.059987e-001
6.067212e+003,1.022602e-001
6.071070e+003,1.009627e-001
6.074927e+003,1.177538e-001
6.078784e+003,1.111235e-001
6.082641e+003,9.754864e-002
6.086498e+003,9.474984e-002
6.090355e+003,9.228212e-002
6.094212e+003,9.523010e-002
6.098069e+003,1.094496e-001
6.101926e+003,1.129991e-001
6.105784e+003,1.088339e-001
6.109641e+003,1.019939e-001
6.113498e+003,9.235077e-002
6.117355e+003,9.667350e-002
6.121212e+003,1.034034e-001
6.125069e+003,9.884337e-002
6.128926e+003,9.791838e-002
6.132783e+003,9.441417e-002
6.136640e+003,9.956703e-002
6.140498e+003,1.067492e-001
6.144354e+003,1.069739e-001
6.148211e+003,1.112494e-001
6.152069e+003,1.114305e-001
6.155926e+003,1.141628e-001
6.159783e+003,1.185759e-001
6.163640e+003,1.271731e-001
6.167497e+003,1.439666e-001
6.171354e+003,1.275295e-001
6.175211e+003,1.005384e-001
6.179068e+003,1.062468e-001
6.182925e+003,1.219353e-001
6.186783e+003,1.133450e-001
6.190640e+003,9.507615e-002
6.194497e+003,9.526257e-002
6.198354e+003,1.183541e-001
6.202211e+003,1.331145e-001
6.206068e+003,1.125427e-001
6.209925e+003,1.098814e-001
6.213782e+003,9.261163e-002
6.217639e+003,7.930169e-002
6.221497e+003,8.387997e-002
6.225354e+003,8.405694e-002
6.229210e+003,1.039518e-001
6.233068e+003,1.045368e-001
6.236925e+003,9.343559e-002
6.240782e+003,1.081786e-001
6.244639e+003,1.259681e-001
6.248496e+003,1.143670e-001
6.252353e+003,8.854660e-002
6.256210e+003,1.021137e-001
6.260067e+003,1.222191e-001
6.263924e+003,1.167631e-001
6.267782e+003,1.118688e-001
6.271639e+003,1.266889e-001
6.275496e+003,1.317161e-001
6.279353e+003,1.226243e-001
6.283210e+003,1.164888e-001
6.287067e+003,1.245135e-001
6.290924e+003,1.243898e-001
6.294781e+003,1.014704e-001
6.298638e+003,1.029725e-001
6.302496e+003,1.075343e-001
6.306353e+003,1.114109e-001
6.310209e+003,1.206605e-001
6.314067e+003,1.150660e-001
6.317924e+003,1.047974e-001
6.321781e+003,9.307126e-002
6.325638e+003,9.111510e-002
6.329495e+003,1.014339e-001
6.333352e+003,1.056210e-001
6.337209e+003,1.198970e-001
6.341066e+003,1.051448e-001
6.344923e+003,7.980816e-002
6.348780e+003,8.716345e-002
6.352638e+003,9.292908e-002
6.356495e+003,1.051647e-001
6.360352e+003,1.154426e-001
6.364209e+003,1.156676e-001
6.368066e+003,1.099230e-001
6.371923e+003,8.818326e-002
6.375780e+003,9.281993e-002
6.379637e+003,1.221005e-001
6.383494e+003,1.203415e-001
6.387352e+003,1.026433e-001
6.391208e+003,9.307561e-002
6.395065e+003,8.935047e-002
6.398923e+003,8.435909e-002
6.402780e+003,9.340268e-002
6.406637e+003,1.003634e-001
6.410494e+003,1.011588e-001
6.414351e+003,1.196539e-001
6.418208e+003,1.267914e-001
6.422065e+003,1.145420e-001
6.425922e+003,8.246426e-002
6.429779e+003,7.763324e-002
6.433637e+003,9.149294e-002
6.437494e+003,1.182611e-001
6.441351e+003,1.210066e-001
6.445208e+003,1.077790e-001
6.449065e+003,1.130356e-001
6.452922e+003,9.963350e-002
6.456779e+003,1.032866e-001
6.460636e+003,1.080228e-001
6.464493e+003,9.522206e-002
6.468351e+003,1.011340e-001
6.472208e+003,1.130132e-001
6.476064e+003,1.049031e-001
6.479922e+003,1.064667e-001
6.483779e+003,1.038073e-001
6.487636e+003,1.275057e-001
6.491493e+003,1.263102e-001
6.495350e+003,9.807275e-002
6.499207e+003,9.025938e-002
6.503064e+003,1.041250e-001
6.506921e+003,1.262058e-001
6.510778e+003,1.202538e-001
6.514636e+003,1.033675e-001
6.518493e+003,9.255730e-002
6.522350e+003,1.149492e-001
6.526207e+003,1.356367e-001
6.530064e+003,1.232422e-001
6.533921e+003,1.069482e-001
6.537778e+003,1.187865e-001
6.541635e+003,1.213316e-001
6.545492e+003,1.148491e-001
6.549350e+003,1.104380e-001
6.553207e+003,1.171743e-001
6.557063e+003,1.441129e-001
6.560921e+003,1.365861e-001
6.564778e+003,1.401108e-001
6.568635e+003,1.198296e-001
6.572492e+003,8.571630e-002
6.576349e+003,8.713377e-002
6.580206e+003,1.093930e-001
6.584063e+003,1.155580e-001
6.587920e+003,1.111694e-001
6.591777e+003,1.085157e-001
6.595635e+003,1.033741e-001
6.599492e+003,9.061071e-002
6.603349e+003,1.011119e-001
6.607206e+003,1.108559e-001
6.611063e+003,1.067291e-001
6.614920e+003,1.179514e-001
6.618777e+003,1.404562e-001
6.622634e+003,1.202590e-001
6.626491e+003,8.733682e-002
6.630349e+003,9.871517e-002
6.634206e+003,1.036014e-001
6.638063e+003,1.069674e-001
6.641920e+003,1.095138e-001
6.645777e+003,1.117475e-001
6.649634e+003,1.167412e-001
6.653491e+003,9.853002e-002
6.657348e+003,8.736749e-002
6.661205e+003,8.565322e-002
6.665063e+003,8.910450e-002
6.668919e+003,1.270022e-001
6.672776e+003,1.374275e-001
6.676634e+003,1.135428e-001
6.680491e+003,1.029271e-001
6.684348e+003,1.208276e-001
6.688205e+003,1.299142e-001
6.692062e+003,1.223300e-001
6.695919e+003,1.352589e-001
6.699776e+003,1.461979e-001
6.703633e+003,1.183267e-001
6.707490e+003,9.574766e-002
6.711348e+003,8.969406e-002
6.715205e+003,9.145731e-002
6.719062e+003,1.062262e-001
6.722919e+003,1.031270e-001
6.726776e+003,9.742883e-002
6.730633e+003,1.106384e-001
6.734490e+003,1.134919e-001
6.738347e+003,9.770695e-002
6.742204e+003,7.590121e-002
6.746062e+003,8.113518e-002
6.749918e+003,9.145567e-002
6.753775e+003,1.012009e-001
6.757633e+003,1.085057e-001
6.761490e+003,1.125040e-001
6.765347e+003,9.075512e-002
6.769204e+003,7.362285e-002
6.773061e+003,1.157032e-001
6.776918e+003,1.308940e-001
6.780775e+003,1.264405e-001
6.784632e+003,1.092660e-001
6.788489e+003,8.609924e-002
6.792347e+003,1.092965e-001
6.796204e+003,1.346735e-001
6.800061e+003,1.374096e-001
6.803918e+003,1.345689e-001
6.807775e+003,1.139805e-001
6.811632e+003,9.727041e-002
6.815489e+003,1.106370e-001
6.819346e+003,1.067673e-001
6.823203e+003,1.022089e-001
6.827061e+003,1.226766e-001
6.830917e+003,1.319305e-001
6.834774e+003,1.379083e-001
6.838632e+003,1.676525e-001
6.842489e+003,1.742717e-001
6.846346e+003,1.482314e-001
6.850203e+003,1.265547e-001
6.854060e+003,1.085274e-001
6.857917e+003,1.144159e-001
6.861774e+003,1.240192e-001
6.865631e+003,1.616912e-001
6.869488e+003,1.451443e-001
6.873346e+003,1.074015e-001
6.877203e+003,1.257129e-001
6.881060e+003,1.474031e-001
6.884917e+003,1.151350e-001
6.888774e+003,7.933684e-002
6.892631e+003,1.114075e-001
6.896488e+003,1.609838e-001
6.900345e+003,1.682162e-001
6.904202e+003,1.829219e-001
6.908060e+003,1.824744e-001
6.911917e+003,1.535915e-001
6.915773e+003,1.422711e-001
6.919631e+003,1.325707e-001
6.923488e+003,1.054308e-001
6.927345e+003,1.505152e-001
6.931202e+003,1.885813e-001
6.935059e+003,1.670862e-001
6.938916e+003,1.280748e-001
6.942773e+003,1.042184e-001
6.946630e+003,9.269099e-002
6.950487e+003,9.320816e-002
6.954345e+003,1.075323e-001
6.958202e+003,1.540090e-001
6.962059e+003,1.483121e-001
6.965916e+003,1.158764e-001
6.969773e+003,8.921389e-002
6.973630e+003,8.617572e-002
6.977487e+003,1.269475e-001
6.981344e+003,1.785836e-001
6.985201e+003,1.451557e-001
6.989059e+003,1.062563e-001
6.992916e+003,1.067687e-001
6.996772e+003,1.477939e-001
7.000630e+003,1.831689e-001
7.004487e+003,1.900181e-001
7.008344e+003,1.904300e-001
7.012201e+003,1.602496e-001
7.016058e+003,1.618120e-001
7.019915e+003,1.666398e-001
7.023772e+003,1.194723e-001
7.027629e+003,1.321627e-001
7.031486e+003,1.354051e-001
7.035344e+003,1.227112e-001
7.039201e+003,1.361038e-001
7.043058e+003,1.556915e-001
7.046915e+003,1.289960e-001
7.050772e+003,1.388225e-001
7.054629e+003,1.642778e-001
7.058486e+003,1.680728e-001
7.062343e+003,1.523032e-001
7.066200e+003,1.351142e-001
7.070058e+003,9.261126e-002
7.073915e+003,7.486559e-002
7.077771e+003,1.459722e-001
7.081629e+003,1.568059e-001
7.085486e+003,1.506274e-001
7.089343e+003,1.482750e-001
7.093200e+003,1.189179e-001
7.097057e+003,1.307795e-001
7.100914e+003,1.399783e-001
7.104771e+003,1.357602e-001
7.108628e+003,1.168459e-001
7.112485e+003,1.350396e-001
7.116343e+003,1.885647e-001
7.120200e+003,2.006375e-001
7.124057e+003,1.978959e-001
7.127914e+003,1.951149e-001
7.131771e+003,1.770406e-001
7.135628e+003,1.653693e-001
7.139485e+003,1.760225e-001
7.143342e+003,1.988231e-001
7.147199e+003,2.070241e-001
7.151057e+003,1.927703e-001
7.154914e+003,1.857586e-001
7.158771e+003,2.126949e-001
7.162628e+003,2.206326e-001
7.166485e+003,1.969139e-001
7.170342e+003,1.731550e-001
7.174199e+003,2.269168e-001
7.178056e+003,2.216144e-001
7.181913e+003,1.210687e-001
7.185771e+003,1.258013e-001
7.189627e+003,1.756489e-001
7.193484e+003,1.416917e-001
7.197342e+003,1.228027e-001
7.201199e+003,1.601888e-001
7.205056e+003,1.240072e-001
7.208913e+003,1.311686e-001
7.212770e+003,1.688516e-001
7.216627e+003,1.651869e-001
7.220484e+003,1.975816e-001
7.224341e+003,2.250986e-001
7.228198e+003,2.223275e-001
7.232056e+003,1.667044e-001
7.235913e+003,1.622060e-001
7.239770e+003,1.913569e-001
7.243627e+003,2.111048e-001
7.247484e+003,2.588736e-001
7.251341e+003,2.839113e-001
7.255198e+003,2.127647e-001
7.259055e+003,1.759571e-001
7.262912e+003,1.880318e-001
7.266770e+003,2.048553e-001
7.270626e+003,1.931996e-001
7.274483e+003,1.406226e-001
7.278341e+003,1.007499e-001
7.282198e+003,1.484742e-001
7.286055e+003,1.328388e-001
7.289912e+003,1.077830e-001
7.293769e+003,1.526408e-001
7.297626e+003,2.136861e-001
7.301483e+003,2.211111e-001
7.305340e+003,1.406641e-001
7.309197e+003,1.085141e-001
7.313055e+003,1.814625e-001
7.316912e+003,2.506833e-001
7.320769e+003,2.435873e-001
7.324626e+003,1.889740e-001
7.328483e+003,8.247856e-002
7.332340e+003,1.046746e-001
7.336197e+003,1.692847e-001
7.340054e+003,2.155641e-001
7.343911e+003,2.312777e-001
7.347769e+003,2.010962e-001
7.351625e+003,1.382477e-001
7.355482e+003,1.205171e-001
7.359340e+003,1.518322e-001
7.363197e+003,1.868571e-001
7.367054e+003,2.358204e-001
7.370911e+003,2.140511e-001
7.374768e+003,1.477169e-001
7.378625e+003,1.278071e-001
7.382482e+003,1.839543e-001
7.386339e+003,1.884104e-001
7.390196e+003,1.594118e-001
7.394054e+003,1.238922e-001
7.397911e+003,1.489685e-001
7.401768e+003,1.935402e-001
7.405625e+003,2.112880e-001
7.409482e+003,2.419169e-001
7.413339e+003,1.939741e-001
7.417196e+003,1.094172e-001
7.421053e+003,1.381304e-001
7.424910e+003,1.569821e-001
7.428768e+003,1.127310e-001
7.432625e+003,1.770431e-001
7.436481e+003,1.764279e-001
7.440339e+003,1.040874e-001
7.444196e+003,9.551788e-002
7.448053e+003,1.708292e-001
7.451910e+003,2.122582e-001
7.455767e+003,2.029471e-001
7.459624e+003,1.577966e-001
7.463481e+003,1.021710e-001
7.467338e+003,1.431749e-001
7.471195e+003,1.649825e-001
7.475053e+003,9.092356e-002
7.478910e+003,1.133785e-001
7.482767e+003,2.347750e-001
7.486624e+003,3.101600e-001
7.490481e+003,3.204581e-001
7.494338e+003,2.456584e-001
7.498195e+003,1.744643e-001
7.502052e+003,1.515030e-001
7.505909e+003,1.501891e-001
7.509767e+003,1.316192e-001
7.513624e+003,8.339242e-002
7.517480e+003,1.064626e-001
7.521338e+003,1.975453e-001
7.525195e+003,2.727596e-001
7.529052e+003,2.476973e-001
7.532909e+003,1.289769e-001
7.536766e+003,1.656548e-001
7.540623e+003,2.005786e-001
7.544480e+003,1.775413e-001
7.548337e+003,1.940377e-001
7.552194e+003,1.718521e-001
7.556052e+003,1.373863e-001
7.559909e+003,1.574098e-001
7.563766e+003,1.451126e-001
7.567623e+003,9.958940e-002
7.571480e+003,1.277976e-001
7.575337e+003,1.736687e-001
7.579194e+003,1.696927e-001
7.583051e+003,1.395511e-001
7.586908e+003,1.011274e-001
7.590766e+003,1.064360e-001
7.594623e+003,2.064860e-001
7.598479e+003,2.811237e-001
7.602337e+003,2.419605e-001
7.606194e+003,1.925265e-001
7.610051e+003,1.576860e-001
7.613908e+003,2.031865e-001
7.617765e+003,2.296762e-001
7.621622e+003,2.109336e-001
7.625479e+003,1.868727e-001
7.629336e+003,1.683537e-001
7.633193e+003,1.280536e-001
7.637051e+003,1.397490e-001
7.640908e+003,1.901999e-001
7.644765e+003,9.423577e-002
7.648622e+003,2.764327e-002
7.652479e+003,1.318327e-001
7.656336e+003,2.200439e-001
7.660193e+003,1.507690e-001
7.664050e+003,1.524020e-001
7.667907e+003,1.642222e-001
7.671765e+003,1.391715e-001
7.675622e+003,1.367888e-001
7.679479e+003,1.658788e-001
7.683336e+003,2.008633e-001
7.687193e+003,1.646863e-001
7.691050e+003,1.368390e-001
7.694907e+003,1.815851e-001
7.698764e+003,1.594424e-001
7.702621e+003,2.376995e-001
7.706479e+003,3.263745e-001
7.710335e+003,2.228097e-001
7.714192e+003,1.868321e-001
7.718050e+003,1.887385e-001
7.721907e+003,2.162250e-001
7.725764e+003,2.158345e-001
7.729621e+003,1.540138e-001
7.733478e+003,9.211021e-002
7.737335e+003,8.286250e-002
7.741192e+003,2.175802e-001
7.745049e+003,1.792709e-001
7.748906e+003,2.215143e-001
7.752764e+003,1.864587e-001
7.756621e+003,1.360761e-001
7.760478e+003,1.947406e-001
7.764335e+003,2.529967e-001
7.768192e+003,2.400453e-001
7.772049e+003,1.979588e-001
7.775906e+003,1.347881e-001
7.779763e+003,2.966990e-002
7.783620e+003,5.248844e-003
7.787478e+003,1.995720e-001
7.791334e+003,3.336633e-001
7.795191e+003,3.097518e-001
7.799049e+003,2.952778e-001
7.802906e+003,1.664589e-001
7.806763e+003,6.004002e-002
7.810620e+003,1.270973e-001
7.814477e+003,6.602006e-002
7.818334e+003,8.522680e-002
7.822191e+003,2.286842e-001
7.826048e+003,2.430042e-001
7.829905e+003,1.338173e-001
7.833763e+003,2.673110e-002
7.837620e+003,-6.203802e-002
7.841477e+003,2.119402e-002
7.845334e+003,1.022221e-001
7.849191e+003,1.341024e-001
7.853048e+003,1.452814e-001
7.856905e+003,2.202482e-001
7.860762e+003,2.248868e-001
7.864619e+003,1.316314e-001
7.868477e+003,1.239627e-001
7.872333e+003,1.970859e-001
7.876190e+003,1.671061e-001
7.880048e+003,1.215270e-001
7.883905e+003,1.336484e-001
7.887762e+003,5.795741e-002
7.891619e+003,9.390182e-002
7.895476e+003,1.315387e-001
7.899333e+003,7.938693e-002
7.903190e+003,1.418214e-001
7.907047e+003,1.828281e-001
7.910904e+003,1.591878e-001
7.914762e+003,1.653551e-001
7.918619e+003,1.580207e-001
7.922476e+003,1.557984e-001
7.926333e+003,1.736996e-001
7.930190e+003,5.834960e-002
7.934047e+003,3.516597e-002
7.937904e+003,9.212233e-002
7.941761e+003,1.433843e-001
7.945618e+003,3.690222e-001
7.949476e+003,4.246746e-001
7.953333e+003,2.087468e-001
7.957189e+003,2.625334e-001
7.961047e+003,3.308958e-001
7.964904e+003,1.816239e-001
7.968761e+003,3.284680e-002
7.972618e+003,1.968890e-001
7.976475e+003,3.453196e-001
7.980332e+003,1.574405e-001
7.984189e+003,1.670446e-001
7.988046e+003,4.779739e-001
7.991903e+003,4.124158e-001
7.995761e+003,1.332690e-001
7.999618e+003,1.969883e-001
