4.011380e+002,8.371421e-001
4.049951e+002,-2.540049e-001
4.088522e+002,-6.596793e-001
4.127093e+002,-7.081057e-002
4.165664e+002,6.000000e+000
4.204235e+002,6.000000e+000
4.242806e+002,6.000000e+000
4.281377e+002,6.000000e+000
4.319948e+002,6.000000e+000
4.358519e+002,-5.091528e-001
4.397090e+002,1.883499e-001
4.435661e+002,6.000000e+000
4.474232e+002,6.000000e+000
4.512803e+002,5.217177e-001
4.551374e+002,1.918572e-001
4.589945e+002,6.000000e+000
4.628516e+002,8.042406e-001
4.667087e+002,3.732690e-001
4.705658e+002,6.000000e+000
4.744229e+002,-5.781345e-001
4.782800e+002,6.000000e+000
4.821371e+002,7.958003e-001
4.859941e+002,-2.014555e-001
4.898513e+002,-3.664666e-002
4.937083e+002,-1.102579e-001
4.975654e+002,-3.844983e-002
5.014225e+002,3.166891e-001
5.052796e+002,6.000000e+000
5.091367e+002,-6.774938e-001
5.129938e+002,6.000000e+000
5.168509e+002,3.402015e-001
5.207080e+002,5.169474e-001
5.245651e+002,5.682124e-001
5.284222e+002,-1.219364e+000
5.322793e+002,-1.765419e+000
5.361364e+002,6.000000e+000
5.399935e+002,6.000000e+000
5.438506e+002,6.000000e+000
5.477077e+002,-6.441689e-001
5.515648e+002,1.758580e-001
5.554219e+002,6.000000e+000
5.592790e+002,6.000000e+000
5.631361e+002,-1.551458e-001
5.669932e+002,6.000000e+000
5.708503e+002,6.000000e+000
5.747074e+002,-2.998044e-001
5.785645e+002,6.000000e+000
5.824216e+002,6.000000e+000
5.862787e+002,3.146810e-002
5.901357e+002,2.473229e-003
5.939929e+002,-2.200641e-001
5.978499e+002,-1.987822e-001
6.017070e+002,6.000000e+000
6.055641e+002,-7.925056e-001
6.094212e+002,6.000000e+000
6.132783e+002,6.000000e+000
6.171354e+002,5.094790e-002
6.209925e+002,6.168819e-001
6.248496e+002,6.000000e+000
6.287067e+002,3.553864e-001
6.325638e+002,6.000000e+000
6.364209e+002,6.000000e+000
6.402780e+002,6.000000e+000
6.441351e+002,6.000000e+000
6.479922e+002,6.000000e+000
6.518493e+002,-3.344947e-001
6.557064e+002,6.000000e+000
6.595635e+002,6.000000e+000
6.634205e+002,1.667486e-001
6.672777e+002,6.000000e+000
6.711348e+002,-1.415660e-001
6.749918e+002,-4.776371e-001
6.788490e+002,-4.163115e-002
6.827061e+002,-9.451837e-002
6.865631e+002,6.000000e+000
6.904203e+002,1.808854e-001
6.942773e+002,4.862148e-001
6.981344e+002,6.000000e+000
7.019916e+002,6.000000e+000
7.058486e+002,-3.237153e-001
7.097057e+002,-1.239727e+000
7.135629e+002,-1.338906e-001
7.174199e+002,-1.588807e-001
7.212770e+002,-2.588350e-001
7.251342e+002,6.000000e+000
7.289912e+002,2.894590e-001
7.328483e+002,6.000000e+000
7.367054e+002,6.000000e+000
7.405625e+002,4.620744e-001
7.444196e+002,5.600498e-001
7.482767e+002,4.789405e-001
7.521338e+002,3.295159e-002
7.559908e+002,6.000000e+000
7.598480e+002,-3.032729e-001
7.637051e+002,-6.896970e-001
7.675621e+002,-6.649943e-001
7.714193e+002,1.123490e+000
7.752764e+002,6.000000e+000
7.791334e+002,6.000000e+000
7.829905e+002,6.000000e+000
7.868477e+002,6.000000e+000
7.907047e+002,6.000000e+000
7.945618e+002,6.000000e+000
7.984189e+002,-1.025441e+000
8.022760e+002,-4.255947e-001
8.061331e+002,2.619188e-002
8.099902e+002,1.271187e+000
8.138473e+002,6.000000e+000
8.177044e+002,6.000000e+000
8.215615e+002,2.162931e+000
8.254186e+002,1.411260e+000
8.292757e+002,6.000000e+000
8.331328e+002,6.000000e+000
8.369899e+002,8.689033e-001
8.408470e+002,8.719152e-001
8.447041e+002,1.020164e+000
8.485612e+002,6.000000e+000
8.524183e+002,6.000000e+000
8.562754e+002,1.181380e+000
8.601324e+002,1.404572e+000
8.639896e+002,1.673648e+000
8.678467e+002,1.432664e+000
8.717037e+002,1.342550e+000
8.755609e+002,1.221992e+000
8.794180e+002,1.368718e+000
8.832750e+002,1.882125e+000
8.871321e+002,2.970421e+000
8.909893e+002,2.125440e+000
8.948463e+002,2.127897e+000
8.987034e+002,1.785751e+000
9.025605e+002,3.575932e+000
9.064176e+002,6.000000e+000
9.102747e+002,2.176888e+000
9.141318e+002,1.841373e+000
9.179889e+002,6.000000e+000
9.218461e+002,6.000000e+000
9.257031e+002,2.439895e+000
9.295602e+002,1.635530e+000
9.334174e+002,2.153986e+000
9.372744e+002,6.000000e+000
9.411315e+002,6.000000e+000
9.449886e+002,2.568417e+000
9.488457e+002,2.315909e+000
9.527028e+002,1.990354e+000
9.565599e+002,1.812875e+000
9.604170e+002,1.745096e+000
9.642740e+002,1.692024e+000
9.681312e+002,1.838446e+000
9.719883e+002,1.728903e+000
9.758453e+002,1.684076e+000
9.797025e+002,1.877299e+000
9.835596e+002,1.982195e+000
9.874166e+002,2.229067e+000
9.912738e+002,6.000000e+000
9.951309e+002,6.000000e+000
9.989879e+002,2.422195e+000
1.002845e+003,2.164033e+000
1.006702e+003,2.064721e+000
1.010559e+003,2.123586e+000
1.014416e+003,2.600582e+000
1.018273e+003,2.333879e+000
1.022130e+003,2.171323e+000
1.025988e+003,1.971941e+000
1.029845e+003,2.039580e+000
1.033702e+003,2.302377e+000
1.037559e+003,1.985037e+000
1.041416e+003,1.773292e+000
1.045273e+003,1.904974e+000
1.049130e+003,1.963133e+000
1.052987e+003,1.937147e+000
1.056844e+003,2.396536e+000
1.060702e+003,6.000000e+000
1.064559e+003,6.000000e+000
1.068416e+003,2.395537e+000
1.072273e+003,1.848646e+000
1.076130e+003,1.761080e+000
1.079987e+003,1.754824e+000
1.083844e+003,1.847716e+000
1.087701e+003,1.831741e+000
1.091558e+003,1.778966e+000
1.095415e+003,1.742808e+000
1.099272e+003,1.749236e+000
1.103130e+003,1.935374e+000
1.106987e+003,2.110462e+000
1.110844e+003,1.867623e+000
1.114701e+003,1.746041e+000
1.118558e+003,1.701831e+000
1.122415e+003,1.736584e+000
1.126272e+003,1.806527e+000
1.130129e+003,1.861501e+000
1.133986e+003,1.789537e+000
1.137843e+003,1.696910e+000
1.141701e+003,1.668179e+000
1.145558e+003,1.685701e+000
1.149415e+003,1.792498e+000
1.153272e+003,1.820155e+000
1.157129e+003,1.779739e+000
1.160986e+003,1.749047e+000
1.164843e+003,1.749091e+000
1.168700e+003,1.791779e+000
1.172557e+003,1.768448e+000
1.176414e+003,1.691725e+000
1.180271e+003,1.669547e+000
1.184129e+003,1.691443e+000
1.187986e+003,1.690239e+000
1.191843e+003,1.676387e+000
1.195700e+003,1.670565e+000
1.199557e+003,1.640758e+000
1.203414e+003,1.666467e+000
1.207271e+003,1.644246e+000
1.211128e+003,1.637511e+000
1.214985e+003,1.603642e+000
1.218842e+003,1.549312e+000
1.222699e+003,1.482340e+000
1.226557e+003,1.434590e+000
1.230414e+003,1.386428e+000
1.234271e+003,1.297653e+000
1.238128e+003,1.221467e+000
1.241985e+003,1.178070e+000
1.245842e+003,1.114365e+000
1.249699e+003,1.053357e+000
1.253556e+003,1.008937e+000
1.257413e+003,9.712604e-001
1.261271e+003,9.276709e-001
1.265128e+003,8.872244e-001
1.268985e+003,8.608807e-001
1.272842e+003,8.355169e-001
1.276699e+003,8.075405e-001
1.280556e+003,7.888617e-001
1.284413e+003,7.745532e-001
1.288270e+003,7.542977e-001
1.292127e+003,7.330873e-001
1.295984e+003,7.141941e-001
1.299841e+003,6.989316e-001
1.303698e+003,6.867656e-001
1.307556e+003,6.734869e-001
1.311413e+003,6.632690e-001
1.315270e+003,6.510928e-001
1.319127e+003,6.424743e-001
1.322984e+003,6.410401e-001
1.326841e+003,6.329273e-001
1.330698e+003,6.232018e-001
1.334555e+003,6.169770e-001
1.338412e+003,6.096420e-001
1.342270e+003,6.070598e-001
1.346127e+003,6.084417e-001
1.349984e+003,6.055125e-001
1.353841e+003,6.049567e-001
1.357698e+003,6.039932e-001
1.361555e+003,6.107142e-001
1.365412e+003,6.228710e-001
1.369269e+003,6.267264e-001
1.373126e+003,6.334247e-001
1.376983e+003,6.427617e-001
1.380840e+003,6.535832e-001
1.384698e+003,6.701076e-001
1.388555e+003,6.843955e-001
1.392412e+003,6.989596e-001
1.396269e+003,7.181867e-001
1.400126e+003,7.376791e-001
1.403983e+003,7.587098e-001
1.407840e+003,7.843712e-001
1.411697e+003,8.064921e-001
1.415554e+003,8.300570e-001
1.419411e+003,8.455984e-001
1.423269e+003,8.545138e-001
1.427126e+003,8.667482e-001
1.430983e+003,8.765931e-001
1.434840e+003,8.826997e-001
1.438697e+003,8.773779e-001
1.442554e+003,8.566517e-001
1.446411e+003,8.374199e-001
1.450268e+003,8.268958e-001
1.454125e+003,8.143461e-001
1.457982e+003,7.996459e-001
1.461839e+003,7.888175e-001
1.465697e+003,7.871532e-001
1.469554e+003,7.871025e-001
1.473411e+003,7.832941e-001
1.477268e+003,7.836221e-001
1.481125e+003,7.942314e-001
1.484982e+003,8.093294e-001
1.488839e+003,8.233615e-001
1.492696e+003,8.340720e-001
1.496553e+003,8.464414e-001
1.500411e+003,8.559144e-001
1.504268e+003,8.612853e-001
1.508125e+003,8.622403e-001
1.511982e+003,8.615464e-001
1.515839e+003,8.562431e-001
1.519696e+003,8.499590e-001
1.523553e+003,8.431736e-001
1.527410e+003,8.298516e-001
1.531267e+003,8.074892e-001
1.535124e+003,7.824184e-001
1.538981e+003,7.613605e-001
1.542839e+003,7.458195e-001
1.546696e+003,7.286680e-001
1.550553e+003,7.106090e-001
1.554410e+003,6.936515e-001
1.558267e+003,6.750339e-001
1.562124e+003,6.628349e-001
1.565981e+003,6.565019e-001
1.569838e+003,6.434239e-001
1.573695e+003,6.346731e-001
1.577552e+003,6.369908e-001
1.581410e+003,6.402088e-001
1.585267e+003,6.414502e-001
1.589124e+003,6.459577e-001
1.592981e+003,6.553440e-001
1.596838e+003,6.680322e-001
1.600695e+003,6.831778e-001
1.604552e+003,7.109627e-001
1.608409e+003,7.435128e-001
1.612266e+003,7.828059e-001
1.616123e+003,8.255507e-001
1.619980e+003,8.618738e-001
1.623838e+003,8.921502e-001
1.627695e+003,9.258577e-001
1.631552e+003,9.601425e-001
1.635409e+003,9.704481e-001
1.639266e+003,9.626321e-001
1.643123e+003,9.518794e-001
1.646980e+003,9.314061e-001
1.650837e+003,9.085087e-001
1.654694e+003,8.763961e-001
1.658551e+003,8.418910e-001
1.662409e+003,8.070830e-001
1.666266e+003,7.770053e-001
1.670123e+003,7.427869e-001
1.673980e+003,7.045773e-001
1.677837e+003,6.726313e-001
1.681694e+003,6.485919e-001
1.685551e+003,6.255617e-001
1.689408e+003,6.009415e-001
1.693265e+003,5.783543e-001
1.697122e+003,5.628034e-001
1.700979e+003,5.499478e-001
1.704837e+003,5.374853e-001
1.708694e+003,5.264317e-001
1.712551e+003,5.174094e-001
1.716408e+003,5.084865e-001
1.720265e+003,5.018319e-001
1.724122e+003,4.934638e-001
1.727979e+003,4.870412e-001
1.731836e+003,4.844818e-001
1.735693e+003,4.788805e-001
1.739550e+003,4.748161e-001
1.743408e+003,4.744426e-001
1.747265e+003,4.722010e-001
1.751122e+003,4.705772e-001
1.754979e+003,4.686452e-001
1.758836e+003,4.682997e-001
1.762693e+003,4.688904e-001
1.766550e+003,4.654754e-001
1.770407e+003,4.619572e-001
1.774264e+003,4.616006e-001
1.778121e+003,4.596899e-001
1.781979e+003,4.569701e-001
1.785836e+003,4.543005e-001
1.789693e+003,4.500464e-001
1.793550e+003,4.452689e-001
1.797407e+003,4.433860e-001
1.801264e+003,4.437387e-001
1.805121e+003,4.433588e-001
1.808978e+003,4.402729e-001
1.812835e+003,4.354904e-001
1.816692e+003,4.335943e-001
1.820549e+003,4.346131e-001
1.824407e+003,4.329570e-001
1.828264e+003,4.309465e-001
1.832121e+003,4.299138e-001
1.835978e+003,4.266423e-001
1.839835e+003,4.240957e-001
1.843692e+003,4.200269e-001
1.847549e+003,4.161015e-001
1.851406e+003,4.139179e-001
1.855263e+003,4.120737e-001
1.859120e+003,4.088387e-001
1.862978e+003,4.080629e-001
1.866835e+003,4.080283e-001
1.870692e+003,4.070461e-001
1.874549e+003,4.068283e-001
1.878406e+003,4.039656e-001
1.882263e+003,4.022965e-001
1.886120e+003,4.013766e-001
1.889977e+003,3.992161e-001
1.893834e+003,3.973523e-001
1.897691e+003,3.957640e-001
1.901548e+003,3.904346e-001
1.905406e+003,3.869764e-001
1.909263e+003,3.870084e-001
1.913120e+003,3.835967e-001
1.916977e+003,3.797007e-001
1.920834e+003,3.774270e-001
1.924691e+003,3.769133e-001
1.928548e+003,3.769835e-001
1.932405e+003,3.752055e-001
1.936262e+003,3.733876e-001
1.940119e+003,3.726957e-001
1.943977e+003,3.712768e-001
1.947834e+003,3.681933e-001
1.951691e+003,3.662961e-001
1.955548e+003,3.628980e-001
1.959405e+003,3.600518e-001
1.963262e+003,3.582754e-001
1.967119e+003,3.554575e-001
1.970976e+003,3.524881e-001
1.974833e+003,3.495251e-001
1.978690e+003,3.489568e-001
1.982547e+003,3.484792e-001
1.986405e+003,3.472508e-001
1.990262e+003,3.465419e-001
1.994119e+003,3.471084e-001
1.997976e+003,3.456566e-001
2.001833e+003,3.448022e-001
2.005690e+003,3.446292e-001
2.009547e+003,3.431258e-001
2.013404e+003,3.401917e-001
2.017261e+003,3.377790e-001
2.021118e+003,3.364500e-001
2.024976e+003,3.356403e-001
2.028833e+003,3.343942e-001
2.032690e+003,3.308259e-001
2.036547e+003,3.282489e-001
2.040404e+003,3.277210e-001
2.044261e+003,3.268979e-001
2.048118e+003,3.255191e-001
2.051975e+003,3.243138e-001
2.055832e+003,3.236699e-001
2.059689e+003,3.221405e-001
2.063546e+003,3.215187e-001
2.067404e+003,3.222646e-001
2.071261e+003,3.201139e-001
2.075118e+003,3.176950e-001
2.078975e+003,3.154268e-001
2.082832e+003,3.137202e-001
2.086689e+003,3.141042e-001
2.090546e+003,3.134700e-001
2.094403e+003,3.108559e-001
2.098260e+003,3.102015e-001
2.102117e+003,3.098710e-001
2.105975e+003,3.090096e-001
2.109832e+003,3.097037e-001
2.113689e+003,3.085083e-001
2.117546e+003,3.071490e-001
2.121403e+003,3.082729e-001
2.125260e+003,3.081506e-001
2.129117e+003,3.077939e-001
2.132974e+003,3.092830e-001
2.136831e+003,3.090657e-001
2.140688e+003,3.094616e-001
2.144545e+003,3.084062e-001
2.148403e+003,3.080749e-001
2.152260e+003,3.078776e-001
2.156117e+003,3.060717e-001
2.159974e+003,3.060355e-001
2.163831e+003,3.077785e-001
2.167688e+003,3.083676e-001
2.171545e+003,3.094186e-001
2.175402e+003,3.090424e-001
2.179259e+003,3.085248e-001
2.183116e+003,3.097771e-001
2.186974e+003,3.126677e-001
2.190831e+003,3.131609e-001
2.194688e+003,3.118134e-001
2.198545e+003,3.121330e-001
2.202402e+003,3.127912e-001
2.206259e+003,3.122830e-001
2.210116e+003,3.119344e-001
2.213973e+003,3.130374e-001
2.217830e+003,3.141079e-001
2.221688e+003,3.140414e-001
2.225544e+003,3.136838e-001
2.229402e+003,3.148487e-001
2.233259e+003,3.153045e-001
2.237116e+003,3.153786e-001
2.240973e+003,3.171545e-001
2.244830e+003,3.180822e-001
2.248687e+003,3.194450e-001
2.252544e+003,3.199444e-001
2.256401e+003,3.203101e-001
2.260258e+003,3.226934e-001
2.264115e+003,3.224665e-001
2.267973e+003,3.202243e-001
2.271830e+003,3.185031e-001
2.275687e+003,3.185521e-001
2.279544e+003,3.207743e-001
2.283401e+003,3.229458e-001
2.287258e+003,3.252991e-001
2.291115e+003,3.250920e-001
2.294972e+003,3.244536e-001
2.298829e+003,3.265451e-001
2.302687e+003,3.274007e-001
2.306543e+003,3.282765e-001
2.310401e+003,3.279090e-001
2.314258e+003,3.253762e-001
2.318115e+003,3.258938e-001
2.321972e+003,3.277121e-001
2.325829e+003,3.269660e-001
2.329686e+003,3.258399e-001
2.333543e+003,3.278408e-001
2.337400e+003,3.289789e-001
2.341257e+003,3.291638e-001
2.345115e+003,3.305691e-001
2.348972e+003,3.294309e-001
2.352829e+003,3.253991e-001
2.356686e+003,3.257591e-001
2.360543e+003,3.268107e-001
2.364400e+003,3.263517e-001
2.368257e+003,3.260200e-001
2.372114e+003,3.270842e-001
2.375971e+003,3.295420e-001
2.379828e+003,3.281981e-001
2.383686e+003,3.254266e-001
2.387542e+003,3.259396e-001
2.391400e+003,3.295166e-001
2.395257e+003,3.289959e-001
2.399114e+003,3.250135e-001
2.402971e+003,3.229076e-001
2.406828e+003,3.239653e-001
2.410685e+003,3.239855e-001
2.414542e+003,3.225730e-001
2.418399e+003,3.215788e-001
2.422256e+003,3.205195e-001
2.426114e+003,3.211704e-001
2.429971e+003,3.210655e-001
2.433828e+003,3.206704e-001
2.437685e+003,3.206203e-001
2.441542e+003,3.198171e-001
2.445399e+003,3.203646e-001
2.449256e+003,3.197170e-001
2.453113e+003,3.164103e-001
2.456970e+003,3.155961e-001
2.460827e+003,3.158909e-001
2.464684e+003,3.152775e-001
2.468542e+003,3.153320e-001
2.472399e+003,3.153970e-001
2.476256e+003,3.135910e-001
2.480113e+003,3.120087e-001
2.483970e+003,3.128782e-001
2.487827e+003,3.143788e-001
2.491684e+003,3.123102e-001
2.495541e+003,3.112961e-001
2.499398e+003,3.124057e-001
2.503255e+003,3.140183e-001
2.507113e+003,3.148064e-001
2.510969e+003,3.156641e-001
2.514827e+003,3.158314e-001
2.518684e+003,3.161716e-001
2.522541e+003,3.171381e-001
2.526398e+003,3.192249e-001
2.530255e+003,3.186466e-001
2.534112e+003,3.170343e-001
2.537969e+003,3.177709e-001
2.541826e+003,3.200244e-001
2.545683e+003,3.221371e-001
2.549541e+003,3.249398e-001
2.553398e+003,3.269742e-001
2.557255e+003,3.270847e-001
2.561112e+003,3.289086e-001
2.564969e+003,3.314784e-001
2.568826e+003,3.318523e-001
2.572683e+003,3.345544e-001
2.576540e+003,3.375919e-001
2.580397e+003,3.399553e-001
2.584254e+003,3.412522e-001
2.588112e+003,3.435008e-001
2.591969e+003,3.478791e-001
2.595826e+003,3.517169e-001
2.599683e+003,3.531308e-001
2.603540e+003,3.552863e-001
2.607397e+003,3.587748e-001
2.611254e+003,3.609330e-001
2.615111e+003,3.646944e-001
2.618968e+003,3.683185e-001
2.622825e+003,3.699370e-001
2.626682e+003,3.743969e-001
2.630540e+003,3.798580e-001
2.634397e+003,3.843831e-001
2.638254e+003,3.860080e-001
2.642111e+003,3.874171e-001
2.645968e+003,3.905016e-001
2.649825e+003,3.951801e-001
2.653682e+003,3.975008e-001
2.657539e+003,4.003577e-001
2.661396e+003,4.051881e-001
2.665253e+003,4.093472e-001
2.669111e+003,4.125815e-001
2.672968e+003,4.172537e-001
2.676825e+003,4.219098e-001
2.680682e+003,4.261712e-001
2.684539e+003,4.283555e-001
2.688396e+003,4.319693e-001
2.692253e+003,4.378274e-001
2.696110e+003,4.434662e-001
2.699967e+003,4.479645e-001
2.703824e+003,4.537826e-001
2.707681e+003,4.595766e-001
2.711539e+003,4.630435e-001
2.715396e+003,4.658655e-001
2.719253e+003,4.695352e-001
2.723110e+003,4.745049e-001
2.726967e+003,4.815456e-001
2.730824e+003,4.875166e-001
2.734681e+003,4.914736e-001
2.738538e+003,4.956325e-001
2.742395e+003,5.020461e-001
2.746252e+003,5.076620e-001
2.750110e+003,5.116334e-001
2.753967e+003,5.174735e-001
2.757824e+003,5.241272e-001
2.761681e+003,5.280044e-001
2.765538e+003,5.316798e-001
2.769395e+003,5.357951e-001
2.773252e+003,5.416424e-001
2.777109e+003,5.494892e-001
2.780966e+003,5.567903e-001
2.784823e+003,5.624900e-001
2.788680e+003,5.677096e-001
2.792538e+003,5.724273e-001
2.796395e+003,5.773585e-001
2.800252e+003,5.819703e-001
2.804109e+003,5.900213e-001
2.807966e+003,5.980893e-001
2.811823e+003,6.027344e-001
2.815680e+003,6.092896e-001
2.819537e+003,6.151978e-001
2.823394e+003,6.188416e-001
2.827251e+003,6.250246e-001
2.831109e+003,6.360332e-001
2.834966e+003,6.399618e-001
2.838823e+003,6.422982e-001
2.842680e+003,6.515545e-001
2.846537e+003,6.605756e-001
2.850394e+003,6.695186e-001
2.854251e+003,6.737867e-001
2.858108e+003,6.785865e-001
2.861965e+003,6.840169e-001
2.865823e+003,6.883113e-001
2.869679e+003,6.973896e-001
2.873537e+003,7.049431e-001
2.877394e+003,7.080462e-001
2.881251e+003,7.161103e-001
2.885108e+003,7.270482e-001
2.888965e+003,7.394356e-001
2.892822e+003,7.500696e-001
2.896679e+003,7.553250e-001
2.900536e+003,7.612622e-001
2.904393e+003,7.684789e-001
2.908250e+003,7.763975e-001
2.912108e+003,7.860758e-001
2.915965e+003,7.958436e-001
2.919822e+003,8.062943e-001
2.923679e+003,8.104234e-001
2.927536e+003,8.097041e-001
2.931393e+003,8.125904e-001
2.935250e+003,8.205218e-001
2.939107e+003,8.278049e-001
2.942964e+003,8.352319e-001
2.946822e+003,8.496349e-001
2.950678e+003,8.568366e-001
2.954536e+003,8.593544e-001
2.958393e+003,8.670481e-001
2.962250e+003,8.753141e-001
2.966107e+003,8.841946e-001
2.969964e+003,8.980088e-001
2.973821e+003,9.083083e-001
2.977678e+003,9.151731e-001
2.981535e+003,9.186312e-001
2.985392e+003,9.209148e-001
2.989250e+003,9.285538e-001
2.993107e+003,9.379550e-001
2.996964e+003,9.456822e-001
3.000821e+003,9.554445e-001
3.004678e+003,9.660500e-001
3.008535e+003,9.707554e-001
3.012392e+003,9.795137e-001
3.016249e+003,9.877249e-001
3.020106e+003,9.896057e-001
3.023963e+003,1.001564e+000
3.027821e+003,1.022457e+000
3.031677e+003,1.032216e+000
3.035535e+003,1.032248e+000
3.039392e+003,1.045075e+000
3.043249e+003,1.057139e+000
3.047106e+003,1.064616e+000
3.050963e+003,1.074247e+000
3.054820e+003,1.084072e+000
3.058677e+003,1.090819e+000
3.062534e+003,1.089412e+000
3.066391e+003,1.104676e+000
3.070249e+003,1.128361e+000
3.074106e+003,1.122398e+000
3.077963e+003,1.118387e+000
3.081820e+003,1.137120e+000
3.085677e+003,1.157267e+000
3.089534e+003,1.173481e+000
3.093391e+003,1.176687e+000
3.097248e+003,1.185046e+000
3.101105e+003,1.187019e+000
3.104962e+003,1.190792e+000
3.108820e+003,1.212240e+000
3.112677e+003,1.223285e+000
3.116534e+003,1.236291e+000
3.120391e+003,1.243552e+000
3.124248e+003,1.254924e+000
3.128105e+003,1.259341e+000
3.131962e+003,1.257982e+000
3.135819e+003,1.273428e+000
3.139676e+003,1.303649e+000
3.143533e+003,1.314555e+000
3.147390e+003,1.314615e+000
3.151248e+003,1.312288e+000
3.155105e+003,1.313484e+000
3.158962e+003,1.324841e+000
3.162819e+003,1.340032e+000
3.166676e+003,1.352021e+000
3.170533e+003,1.347106e+000
3.174390e+003,1.357998e+000
3.178247e+003,1.388709e+000
3.182104e+003,1.405196e+000
3.185961e+003,1.388294e+000
3.189819e+003,1.390552e+000
3.193676e+003,1.398667e+000
3.197533e+003,1.407994e+000
3.201390e+003,1.431659e+000
3.205247e+003,1.441203e+000
3.209104e+003,1.460919e+000
3.212961e+003,1.470366e+000
3.216818e+003,1.458750e+000
3.220675e+003,1.464086e+000
3.224532e+003,1.484011e+000
3.228389e+003,1.515230e+000
3.232247e+003,1.515828e+000
3.236104e+003,1.519332e+000
3.239961e+003,1.508473e+000
3.243818e+003,1.482013e+000
3.247675e+003,1.512072e+000
3.251532e+003,1.554124e+000
3.255389e+003,1.564721e+000
3.259246e+003,1.535146e+000
3.263103e+003,1.524748e+000
3.266960e+003,1.550715e+000
3.270818e+003,1.559466e+000
3.274675e+003,1.577745e+000
3.278532e+003,1.557775e+000
3.282389e+003,1.534529e+000
3.286246e+003,1.563409e+000
3.290103e+003,1.599310e+000
3.293960e+003,1.614074e+000
3.297817e+003,1.596243e+000
3.301674e+003,1.545320e+000
3.305531e+003,1.583356e+000
3.309388e+003,1.642886e+000
3.313246e+003,1.665751e+000
3.317103e+003,1.669243e+000
3.320960e+003,1.640308e+000
3.324817e+003,1.645258e+000
3.328674e+003,1.663890e+000
3.332531e+003,1.663961e+000
3.336388e+003,1.652512e+000
3.340245e+003,1.611602e+000
3.344102e+003,1.619355e+000
3.347959e+003,1.673275e+000
3.351817e+003,1.713449e+000
3.355674e+003,1.731355e+000
3.359531e+003,1.734260e+000
3.363388e+003,1.712705e+000
3.367245e+003,1.677973e+000
3.371102e+003,1.657712e+000
3.374959e+003,1.655262e+000
3.378816e+003,1.692260e+000
3.382673e+003,1.721423e+000
3.386530e+003,1.732602e+000
3.390387e+003,1.697329e+000
3.394245e+003,1.699091e+000
3.398102e+003,1.701488e+000
3.401959e+003,1.685371e+000
3.405816e+003,1.722809e+000
3.409673e+003,1.780628e+000
3.413530e+003,1.789838e+000
3.417387e+003,1.784803e+000
3.421244e+003,1.770577e+000
3.425101e+003,1.769161e+000
3.428958e+003,1.802858e+000
3.432815e+003,1.809698e+000
3.436673e+003,1.756788e+000
3.440530e+003,1.741651e+000
3.444387e+003,1.793585e+000
3.448244e+003,1.841889e+000
3.452101e+003,1.889155e+000
3.455958e+003,1.879162e+000
3.459815e+003,1.820164e+000
3.463672e+003,1.827148e+000
3.467529e+003,1.827432e+000
3.471386e+003,1.838533e+000
3.475244e+003,1.830700e+000
3.479101e+003,1.832508e+000
3.482958e+003,1.803654e+000
3.486815e+003,1.818226e+000
3.490672e+003,1.855687e+000
3.494529e+003,1.856163e+000
3.498386e+003,1.879947e+000
3.502243e+003,1.868528e+000
3.506100e+003,1.887651e+000
3.509958e+003,1.859753e+000
3.513814e+003,1.842948e+000
3.517672e+003,1.795928e+000
3.521529e+003,1.827332e+000
3.525386e+003,1.837129e+000
3.529243e+003,1.775504e+000
3.533100e+003,1.754440e+000
3.536957e+003,1.828440e+000
3.540814e+003,1.804013e+000
3.544671e+003,1.741168e+000
3.548528e+003,1.714683e+000
3.552385e+003,1.753431e+000
3.556243e+003,1.786887e+000
3.560100e+003,1.795017e+000
3.563957e+003,1.760790e+000
3.567814e+003,1.730639e+000
3.571671e+003,1.717870e+000
3.575528e+003,1.771685e+000
3.579385e+003,1.826280e+000
3.583242e+003,1.809963e+000
3.587099e+003,1.716970e+000
3.590957e+003,1.638401e+000
3.594813e+003,1.639853e+000
3.598671e+003,1.653957e+000
3.602528e+003,1.595230e+000
3.606385e+003,1.536187e+000
3.610242e+003,1.503361e+000
3.614099e+003,1.464405e+000
3.617956e+003,1.388571e+000
3.621813e+003,1.308170e+000
3.625670e+003,1.246915e+000
3.629527e+003,1.180740e+000
3.633385e+003,1.101743e+000
3.637242e+003,1.019595e+000
3.641099e+003,9.369362e-001
3.644956e+003,8.652956e-001
3.648813e+003,7.914683e-001
3.652670e+003,7.204838e-001
3.656527e+003,6.620982e-001
3.660384e+003,6.087382e-001
3.664241e+003,5.549013e-001
3.668098e+003,5.055450e-001
3.671956e+003,4.620094e-001
3.675813e+003,4.244717e-001
3.679670e+003,3.930963e-001
3.683527e+003,3.650024e-001
3.687384e+003,3.401757e-001
3.691241e+003,3.179700e-001
3.695098e+003,2.992274e-001
3.698955e+003,2.834294e-001
3.702812e+003,2.699222e-001
3.706669e+003,2.608470e-001
3.710526e+003,2.520612e-001
3.714384e+003,2.426711e-001
3.718241e+003,2.355685e-001
3.722098e+003,2.288214e-001
3.725955e+003,2.217214e-001
3.729812e+003,2.150907e-001
3.733669e+003,2.113337e-001
3.737526e+003,2.104082e-001
3.741383e+003,2.085550e-001
3.745240e+003,2.043013e-001
3.749097e+003,1.995927e-001
3.752955e+003,1.972537e-001
3.756812e+003,1.948609e-001
3.760669e+003,1.924249e-001
3.764526e+003,1.948183e-001
3.768383e+003,1.944904e-001
3.772240e+003,1.918989e-001
3.776097e+003,1.915239e-001
3.779954e+003,1.908556e-001
3.783811e+003,1.896134e-001
3.787668e+003,1.884361e-001
3.791525e+003,1.878394e-001
3.795383e+003,1.873015e-001
3.799240e+003,1.857957e-001
3.803097e+003,1.836882e-001
3.806954e+003,1.821154e-001
3.810811e+003,1.814243e-001
3.814668e+003,1.810659e-001
3.818525e+003,1.815637e-001
3.822382e+003,1.826982e-001
3.826239e+003,1.822722e-001
3.830096e+003,1.817582e-001
3.833954e+003,1.815165e-001
3.837811e+003,1.820408e-001
3.841668e+003,1.820457e-001
3.845525e+003,1.796478e-001
3.849382e+003,1.775443e-001
3.853239e+003,1.767319e-001
3.857096e+003,1.758571e-001
3.860953e+003,1.761504e-001
3.864810e+003,1.787228e-001
3.868667e+003,1.808972e-001
3.872524e+003,1.805476e-001
3.876382e+003,1.788711e-001
3.880239e+003,1.774966e-001
3.884096e+003,1.763112e-001
3.887953e+003,1.754900e-001
3.891810e+003,1.769657e-001
3.895667e+003,1.764007e-001
3.899524e+003,1.742775e-001
3.903381e+003,1.756306e-001
3.907238e+003,1.762581e-001
3.911095e+003,1.740846e-001
3.914953e+003,1.712478e-001
3.918810e+003,1.717315e-001
3.922667e+003,1.736795e-001
3.926524e+003,1.731841e-001
3.930381e+003,1.716645e-001
3.934238e+003,1.712817e-001
3.938095e+003,1.719925e-001
3.941952e+003,1.734024e-001
3.945809e+003,1.745215e-001
3.949667e+003,1.739812e-001
3.953523e+003,1.726623e-001
3.957381e+003,1.728671e-001
3.961238e+003,1.706194e-001
3.965095e+003,1.693815e-001
3.968952e+003,1.693335e-001
3.972809e+003,1.695804e-001
3.976666e+003,1.687056e-001
3.980523e+003,1.683617e-001
3.984380e+003,1.677138e-001
3.988237e+003,1.670504e-001
3.992094e+003,1.690490e-001
3.995952e+003,1.703350e-001
3.999809e+003,1.700910e-001
4.003666e+003,1.692781e-001
4.007523e+003,1.671893e-001
4.011380e+003,1.665738e-001
4.015237e+003,1.667373e-001
4.019094e+003,1.669141e-001
4.022951e+003,1.655170e-001
4.026808e+003,1.634936e-001
4.030666e+003,1.618089e-001
4.034522e+003,1.607400e-001
4.038380e+003,1.619616e-001
4.042237e+003,1.645691e-001
4.046094e+003,1.654180e-001
4.049951e+003,1.654530e-001
4.053808e+003,1.645802e-001
4.057665e+003,1.637711e-001
4.061522e+003,1.610051e-001
4.065379e+003,1.598429e-001
4.069236e+003,1.589303e-001
4.073094e+003,1.581812e-001
4.076951e+003,1.599375e-001
4.080808e+003,1.593102e-001
4.084665e+003,1.587179e-001
4.088522e+003,1.570329e-001
4.092379e+003,1.553644e-001
4.096236e+003,1.550245e-001
4.100093e+003,1.557412e-001
4.103950e+003,1.558708e-001
4.107808e+003,1.557992e-001
4.111665e+003,1.550339e-001
4.115521e+003,1.555888e-001
4.119379e+003,1.556405e-001
4.123236e+003,1.549042e-001
4.127093e+003,1.537996e-001
4.130950e+003,1.553102e-001
4.134807e+003,1.547426e-001
4.138664e+003,1.507316e-001
4.142521e+003,1.499689e-001
4.146378e+003,1.507456e-001
4.150235e+003,1.508263e-001
4.154093e+003,1.505758e-001
4.157950e+003,1.483983e-001
4.161807e+003,1.482302e-001
4.165664e+003,1.489657e-001
4.169521e+003,1.468857e-001
4.173378e+003,1.464477e-001
4.177235e+003,1.474873e-001
4.181092e+003,1.469138e-001
4.184949e+003,1.452350e-001
4.188807e+003,1.452999e-001
4.192664e+003,1.472944e-001
4.196521e+003,1.449308e-001
4.200378e+003,1.412549e-001
4.204235e+003,1.421890e-001
4.208092e+003,1.445922e-001
4.211949e+003,1.458854e-001
4.215806e+003,1.437311e-001
4.219663e+003,1.422713e-001
4.223521e+003,1.428171e-001
4.227377e+003,1.413204e-001
4.231234e+003,1.371519e-001
4.235092e+003,1.357110e-001
4.238949e+003,1.372877e-001
4.242806e+003,1.398560e-001
4.246663e+003,1.401925e-001
4.250520e+003,1.386024e-001
4.254377e+003,1.407406e-001
4.258234e+003,1.423821e-001
4.262091e+003,1.397257e-001
4.265948e+003,1.393838e-001
4.269806e+003,1.388036e-001
4.273663e+003,1.377961e-001
4.277520e+003,1.376821e-001
4.281377e+003,1.382953e-001
4.285234e+003,1.364091e-001
4.289091e+003,1.344160e-001
4.292948e+003,1.337713e-001
4.296805e+003,1.364327e-001
4.300662e+003,1.391689e-001
4.304520e+003,1.391082e-001
4.308376e+003,1.369199e-001
4.312233e+003,1.367864e-001
4.316091e+003,1.364488e-001
4.319948e+003,1.353224e-001
4.323805e+003,1.352903e-001
4.327662e+003,1.353358e-001
4.331519e+003,1.322204e-001
4.335376e+003,1.307481e-001
4.339233e+003,1.337699e-001
4.343090e+003,1.356229e-001
4.346947e+003,1.347907e-001
4.350805e+003,1.347411e-001
4.354662e+003,1.344367e-001
4.358519e+003,1.379480e-001
4.362376e+003,1.384591e-001
4.366233e+003,1.355290e-001
4.370090e+003,1.345065e-001
4.373947e+003,1.319540e-001
4.377804e+003,1.319806e-001
4.381661e+003,1.354201e-001
4.385519e+003,1.386598e-001
4.389375e+003,1.353165e-001
4.393232e+003,1.340504e-001
4.397090e+003,1.348068e-001
4.400947e+003,1.342847e-001
4.404804e+003,1.332957e-001
4.408661e+003,1.328146e-001
4.412518e+003,1.306098e-001
4.416375e+003,1.335001e-001
4.420232e+003,1.374264e-001
4.424089e+003,1.375909e-001
4.427946e+003,1.379366e-001
4.431804e+003,1.389849e-001
4.435661e+003,1.375212e-001
4.439518e+003,1.357087e-001
4.443375e+003,1.333503e-001
4.447232e+003,1.347265e-001
4.451089e+003,1.379750e-001
4.454946e+003,1.388190e-001
4.458803e+003,1.355732e-001
4.462660e+003,1.334961e-001
4.466518e+003,1.331659e-001
4.470375e+003,1.345429e-001
4.474231e+003,1.384853e-001
4.478089e+003,1.398518e-001
4.481946e+003,1.330397e-001
4.485803e+003,1.299413e-001
4.489660e+003,1.335894e-001
4.493517e+003,1.333260e-001
4.497375e+003,1.301778e-001
4.501231e+003,1.299779e-001
4.505088e+003,1.318378e-001
4.508946e+003,1.312101e-001
4.512803e+003,1.316363e-001
4.516660e+003,1.318700e-001
4.520517e+003,1.317547e-001
4.524374e+003,1.325401e-001
4.528231e+003,1.310052e-001
4.532088e+003,1.265767e-001
4.535945e+003,1.259797e-001
4.539802e+003,1.290240e-001
4.543660e+003,1.274627e-001
4.547517e+003,1.228636e-001
4.551374e+003,1.235809e-001
4.555231e+003,1.267628e-001
4.559088e+003,1.264706e-001
4.562945e+003,1.245923e-001
4.566802e+003,1.246052e-001
4.570659e+003,1.225945e-001
4.574516e+003,1.245173e-001
4.578374e+003,1.241491e-001
4.582230e+003,1.205614e-001
4.586087e+003,1.207509e-001
4.589945e+003,1.214299e-001
4.593802e+003,1.230855e-001
4.597659e+003,1.244958e-001
4.601516e+003,1.244831e-001
4.605373e+003,1.218743e-001
4.609230e+003,1.176915e-001
4.613087e+003,1.163515e-001
4.616944e+003,1.171880e-001
4.620801e+003,1.187018e-001
4.624659e+003,1.218369e-001
4.628516e+003,1.216387e-001
4.632373e+003,1.207830e-001
4.636230e+003,1.230992e-001
4.640087e+003,1.226355e-001
4.643944e+003,1.216894e-001
4.647801e+003,1.220290e-001
4.651658e+003,1.220213e-001
4.655515e+003,1.214204e-001
4.659373e+003,1.210191e-001
4.663229e+003,1.221433e-001
4.667086e+003,1.215558e-001
4.670944e+003,1.201024e-001
4.674801e+003,1.209699e-001
4.678658e+003,1.205865e-001
4.682515e+003,1.174648e-001
4.686372e+003,1.151875e-001
4.690229e+003,1.179667e-001
4.694086e+003,1.191277e-001
4.697943e+003,1.218453e-001
4.701800e+003,1.224281e-001
4.705658e+003,1.203215e-001
4.709515e+003,1.194997e-001
4.713372e+003,1.220797e-001
4.717229e+003,1.227476e-001
4.721086e+003,1.221292e-001
4.724943e+003,1.206230e-001
4.728800e+003,1.187470e-001
4.732657e+003,1.170408e-001
4.736514e+003,1.179442e-001
4.740372e+003,1.245666e-001
4.744229e+003,1.264806e-001
4.748085e+003,1.224632e-001
4.751943e+003,1.178706e-001
4.755800e+003,1.148254e-001
4.759657e+003,1.162236e-001
4.763514e+003,1.182244e-001
4.767371e+003,1.207970e-001
4.771228e+003,1.220015e-001
4.775085e+003,1.236912e-001
4.778942e+003,1.226178e-001
4.782799e+003,1.180607e-001
4.786657e+003,1.201946e-001
4.790514e+003,1.211047e-001
4.794371e+003,1.241503e-001
4.798228e+003,1.286093e-001
4.802085e+003,1.245154e-001
4.805942e+003,1.218212e-001
4.809799e+003,1.213572e-001
4.813656e+003,1.218580e-001
4.817513e+003,1.233057e-001
4.821371e+003,1.209770e-001
4.825228e+003,1.206537e-001
4.829084e+003,1.215818e-001
4.832942e+003,1.241563e-001
4.836799e+003,1.245056e-001
4.840656e+003,1.242730e-001
4.844513e+003,1.238228e-001
4.848370e+003,1.213696e-001
4.852227e+003,1.193862e-001
4.856084e+003,1.186798e-001
4.859941e+003,1.193589e-001
4.863798e+003,1.201557e-001
4.867656e+003,1.220139e-001
4.871513e+003,1.243716e-001
4.875370e+003,1.244535e-001
4.879227e+003,1.246169e-001
4.883084e+003,1.223382e-001
4.886941e+003,1.220989e-001
4.890798e+003,1.263648e-001
4.894655e+003,1.305667e-001
4.898512e+003,1.329642e-001
4.902370e+003,1.294261e-001
4.906227e+003,1.250058e-001
4.910083e+003,1.220491e-001
4.913941e+003,1.234592e-001
4.917798e+003,1.251440e-001
4.921655e+003,1.262993e-001
4.925512e+003,1.228170e-001
4.929369e+003,1.207080e-001
4.933226e+003,1.229849e-001
4.937083e+003,1.234418e-001
4.940940e+003,1.275012e-001
4.944797e+003,1.305838e-001
4.948655e+003,1.318201e-001
4.952512e+003,1.302734e-001
4.956369e+003,1.262629e-001
4.960226e+003,1.285160e-001
4.964083e+003,1.287749e-001
4.967940e+003,1.267020e-001
4.971797e+003,1.255215e-001
4.975654e+003,1.227355e-001
4.979511e+003,1.239821e-001
4.983369e+003,1.271201e-001
4.987226e+003,1.295279e-001
4.991083e+003,1.330033e-001
4.994940e+003,1.328351e-001
4.998797e+003,1.292292e-001
5.002654e+003,1.277655e-001
5.006511e+003,1.276650e-001
5.010368e+003,1.305806e-001
5.014225e+003,1.339966e-001
5.018083e+003,1.352913e-001
5.021939e+003,1.350557e-001
5.025796e+003,1.340755e-001
5.029654e+003,1.311200e-001
5.033511e+003,1.284947e-001
5.037368e+003,1.297265e-001
5.041225e+003,1.307600e-001
5.045082e+003,1.304811e-001
5.048939e+003,1.341089e-001
5.052796e+003,1.353756e-001
5.056653e+003,1.338064e-001
5.060510e+003,1.337150e-001
5.064368e+003,1.318697e-001
5.068225e+003,1.350593e-001
5.072082e+003,1.350015e-001
5.075939e+003,1.350467e-001
5.079796e+003,1.358899e-001
5.083653e+003,1.342642e-001
5.087510e+003,1.331279e-001
5.091367e+003,1.353134e-001
5.095224e+003,1.353287e-001
5.099082e+003,1.318355e-001
5.102938e+003,1.328751e-001
5.106795e+003,1.347410e-001
5.110653e+003,1.353375e-001
5.114510e+003,1.406485e-001
5.118367e+003,1.449813e-001
5.122224e+003,1.447245e-001
5.126081e+003,1.441857e-001
5.129938e+003,1.428139e-001
5.133795e+003,1.409177e-001
5.137652e+003,1.417698e-001
5.141509e+003,1.439308e-001
5.145367e+003,1.434269e-001
5.149224e+003,1.419095e-001
5.153081e+003,1.415210e-001
5.156938e+003,1.379700e-001
5.160795e+003,1.377557e-001
5.164652e+003,1.393761e-001
5.168509e+003,1.384556e-001
5.172366e+003,1.444455e-001
5.176223e+003,1.465246e-001
5.180081e+003,1.436886e-001
5.183938e+003,1.438965e-001
5.187794e+003,1.462095e-001
5.191652e+003,1.498378e-001
5.195509e+003,1.484292e-001
5.199366e+003,1.464715e-001
5.203223e+003,1.451316e-001
5.207080e+003,1.455540e-001
5.210937e+003,1.477701e-001
5.214794e+003,1.475585e-001
5.218651e+003,1.448735e-001
5.222508e+003,1.460661e-001
5.226366e+003,1.480660e-001
5.230223e+003,1.431479e-001
5.234080e+003,1.380867e-001
5.237937e+003,1.400904e-001
5.241794e+003,1.431036e-001
5.245651e+003,1.403394e-001
5.249508e+003,1.402081e-001
5.253365e+003,1.426742e-001
5.257222e+003,1.417016e-001
5.261080e+003,1.381978e-001
5.264937e+003,1.395823e-001
5.268793e+003,1.406762e-001
5.272651e+003,1.414020e-001
5.276508e+003,1.406877e-001
5.280365e+003,1.411367e-001
5.284222e+003,1.426935e-001
5.288079e+003,1.434644e-001
5.291936e+003,1.446363e-001
5.295793e+003,1.460137e-001
5.299650e+003,1.489308e-001
5.303507e+003,1.482739e-001
5.307365e+003,1.438866e-001
5.311222e+003,1.379639e-001
5.315079e+003,1.396922e-001
5.318936e+003,1.441306e-001
5.322793e+003,1.498346e-001
5.326650e+003,1.492500e-001
5.330507e+003,1.462921e-001
5.334364e+003,1.461469e-001
5.338221e+003,1.448495e-001
5.342079e+003,1.429805e-001
5.345936e+003,1.416443e-001
5.349792e+003,1.414542e-001
5.353650e+003,1.418664e-001
5.357507e+003,1.434682e-001
5.361364e+003,1.446982e-001
5.365221e+003,1.463522e-001
5.369078e+003,1.454335e-001
5.372935e+003,1.451674e-001
5.376792e+003,1.448270e-001
5.380649e+003,1.417223e-001
5.384506e+003,1.456099e-001
5.388364e+003,1.480441e-001
5.392221e+003,1.453319e-001
5.396078e+003,1.443772e-001
5.399935e+003,1.470847e-001
5.403792e+003,1.487928e-001
5.407649e+003,1.479697e-001
5.411506e+003,1.465648e-001
5.415363e+003,1.468291e-001
5.419220e+003,1.485041e-001
5.423078e+003,1.491084e-001
5.426935e+003,1.502048e-001
5.430792e+003,1.519123e-001
5.434649e+003,1.513209e-001
5.438506e+003,1.493962e-001
5.442363e+003,1.491896e-001
5.446220e+003,1.510156e-001
5.450077e+003,1.488437e-001
5.453934e+003,1.486113e-001
5.457792e+003,1.496964e-001
5.461648e+003,1.466846e-001
5.465505e+003,1.453426e-001
5.469363e+003,1.468301e-001
5.473220e+003,1.444274e-001
5.477077e+003,1.415134e-001
5.480934e+003,1.454874e-001
5.484791e+003,1.521509e-001
5.488648e+003,1.522020e-001
5.492505e+003,1.533392e-001
5.496362e+003,1.558211e-001
5.500219e+003,1.555142e-001
5.504077e+003,1.538706e-001
5.507934e+003,1.547318e-001
5.511791e+003,1.580764e-001
5.515648e+003,1.608968e-001
5.519505e+003,1.568154e-001
5.523362e+003,1.535540e-001
5.527219e+003,1.573539e-001
5.531076e+003,1.615195e-001
5.534933e+003,1.635262e-001
5.538791e+003,1.612466e-001
5.542647e+003,1.547221e-001
5.546504e+003,1.502673e-001
5.550362e+003,1.524565e-001
5.554219e+003,1.551212e-001
5.558076e+003,1.530395e-001
5.561933e+003,1.567231e-001
5.565790e+003,1.581851e-001
5.569647e+003,1.557747e-001
5.573504e+003,1.582880e-001
5.577361e+003,1.607168e-001
5.581218e+003,1.569915e-001
5.585076e+003,1.544987e-001
5.588933e+003,1.540632e-001
5.592790e+003,1.555682e-001
5.596647e+003,1.578019e-001
5.600504e+003,1.569994e-001
5.604361e+003,1.565231e-001
5.608218e+003,1.589926e-001
5.612075e+003,1.542249e-001
5.615932e+003,1.501560e-001
5.619790e+003,1.531647e-001
5.623646e+003,1.617421e-001
5.627503e+003,1.617721e-001
5.631361e+003,1.603642e-001
5.635218e+003,1.638560e-001
5.639075e+003,1.646520e-001
5.642932e+003,1.615329e-001
5.646789e+003,1.599548e-001
5.650646e+003,1.596155e-001
5.654503e+003,1.594373e-001
5.658360e+003,1.608644e-001
5.662217e+003,1.630947e-001
5.666075e+003,1.620049e-001
5.669932e+003,1.597537e-001
5.673789e+003,1.591873e-001
5.677646e+003,1.598715e-001
5.681503e+003,1.594390e-001
5.685360e+003,1.599326e-001
5.689217e+003,1.597104e-001
5.693074e+003,1.577858e-001
5.696931e+003,1.571231e-001
5.700789e+003,1.589416e-001
5.704646e+003,1.635333e-001
5.708502e+003,1.625067e-001
5.712360e+003,1.612572e-001
5.716217e+003,1.644930e-001
5.720074e+003,1.677119e-001
5.723931e+003,1.709256e-001
5.727788e+003,1.643098e-001
5.731645e+003,1.592446e-001
5.735502e+003,1.635483e-001
5.739359e+003,1.660802e-001
5.743216e+003,1.610454e-001
5.747074e+003,1.655240e-001
5.750931e+003,1.696696e-001
5.754788e+003,1.662932e-001
5.758645e+003,1.697120e-001
5.762502e+003,1.673762e-001
5.766359e+003,1.691739e-001
5.770216e+003,1.711717e-001
5.774073e+003,1.663049e-001
5.777930e+003,1.677177e-001
5.781788e+003,1.689122e-001
5.785645e+003,1.652202e-001
5.789501e+003,1.662208e-001
5.793359e+003,1.672103e-001
5.797216e+003,1.641909e-001
5.801073e+003,1.639968e-001
5.804930e+003,1.651960e-001
5.808787e+003,1.651411e-001
5.812644e+003,1.626586e-001
5.816501e+003,1.590087e-001
5.820358e+003,1.593307e-001
5.824215e+003,1.633725e-001
5.828073e+003,1.703443e-001
5.831930e+003,1.710604e-001
5.835787e+003,1.683313e-001
5.839644e+003,1.662946e-001
5.843501e+003,1.668590e-001
5.847358e+003,1.712912e-001
5.851215e+003,1.729400e-001
5.855072e+003,1.711914e-001
5.858929e+003,1.716898e-001
5.862787e+003,1.686233e-001
5.866644e+003,1.663129e-001
5.870500e+003,1.727032e-001
5.874358e+003,1.710897e-001
5.878215e+003,1.644479e-001
5.882072e+003,1.697316e-001
5.885929e+003,1.776357e-001
5.889786e+003,1.733618e-001
5.893643e+003,1.712273e-001
5.897500e+003,1.809132e-001
5.901357e+003,1.769606e-001
5.905214e+003,1.725093e-001
5.909072e+003,1.676803e-001
5.912929e+003,1.662229e-001
5.916786e+003,1.698934e-001
5.920643e+003,1.742009e-001
5.924500e+003,1.761836e-001
5.928357e+003,1.762324e-001
5.932214e+003,1.745115e-001
5.936071e+003,1.739500e-001
5.939928e+003,1.763621e-001
5.943786e+003,1.755463e-001
5.947643e+003,1.736846e-001
5.951500e+003,1.778448e-001
5.955357e+003,1.764947e-001
5.959214e+003,1.776545e-001
5.963071e+003,1.745313e-001
5.966928e+003,1.705225e-001
5.970785e+003,1.705490e-001
5.974642e+003,1.697795e-001
5.978500e+003,1.665075e-001
5.982356e+003,1.702490e-001
5.986213e+003,1.764244e-001
5.990071e+003,1.762670e-001
5.993928e+003,1.698033e-001
5.997785e+003,1.637304e-001
6.001642e+003,1.606796e-001
6.005499e+003,1.657593e-001
6.009356e+003,1.693712e-001
6.013213e+003,1.742001e-001
6.017070e+003,1.727322e-001
6.020927e+003,1.641945e-001
6.024785e+003,1.697250e-001
6.028642e+003,1.745072e-001
6.032499e+003,1.717163e-001
6.036356e+003,1.713902e-001
6.040213e+003,1.776160e-001
6.044070e+003,1.817516e-001
6.047927e+003,1.811213e-001
6.051784e+003,1.791096e-001
6.055641e+003,1.734479e-001
6.059499e+003,1.744451e-001
6.063355e+003,1.723576e-001
6.067212e+003,1.666018e-001
6.071070e+003,1.689802e-001
6.074927e+003,1.726060e-001
6.078784e+003,1.659224e-001
6.082641e+003,1.651017e-001
6.086498e+003,1.725146e-001
6.090355e+003,1.700464e-001
6.094212e+003,1.659246e-001
6.098069e+003,1.698086e-001
6.101926e+003,1.735135e-001
6.105784e+003,1.743239e-001
6.109641e+003,1.768009e-001
6.113498e+003,1.780177e-001
6.117355e+003,1.717996e-001
6.121212e+003,1.734238e-001
6.125069e+003,1.731706e-001
6.128926e+003,1.715714e-001
6.132783e+003,1.729096e-001
6.136640e+003,1.701020e-001
6.140498e+003,1.649293e-001
6.144354e+003,1.676862e-001
6.148211e+003,1.679401e-001
6.152069e+003,1.652721e-001
6.155926e+003,1.697300e-001
6.159783e+003,1.777553e-001
6.163640e+003,1.719789e-001
6.167497e+003,1.645493e-001
6.171354e+003,1.676024e-001
6.175211e+003,1.681562e-001
6.179068e+003,1.699402e-001
6.182925e+003,1.734264e-001
6.186783e+003,1.777423e-001
6.190640e+003,1.792260e-001
6.194497e+003,1.766661e-001
6.198354e+003,1.748186e-001
6.202211e+003,1.728434e-001
6.206068e+003,1.710602e-001
6.209925e+003,1.739929e-001
6.213782e+003,1.798112e-001
6.217639e+003,1.820305e-001
6.221497e+003,1.789738e-001
6.225354e+003,1.766977e-001
6.229210e+003,1.787654e-001
6.233068e+003,1.758800e-001
6.236925e+003,1.727589e-001
6.240782e+003,1.663084e-001
6.244639e+003,1.579562e-001
6.248496e+003,1.668757e-001
6.252353e+003,1.790271e-001
6.256210e+003,1.757990e-001
6.260067e+003,1.700357e-001
6.263924e+003,1.688604e-001
6.267782e+003,1.739948e-001
6.271639e+003,1.759592e-001
6.275496e+003,1.777250e-001
6.279353e+003,1.754013e-001
6.283210e+003,1.753774e-001
6.287067e+003,1.682133e-001
6.290924e+003,1.672021e-001
6.294781e+003,1.712367e-001
6.298638e+003,1.613213e-001
6.302496e+003,1.593269e-001
6.306353e+003,1.708482e-001
6.310209e+003,1.728509e-001
6.314067e+003,1.677697e-001
6.317924e+003,1.675324e-001
6.321781e+003,1.768274e-001
6.325638e+003,1.777406e-001
6.329495e+003,1.682317e-001
6.333352e+003,1.637631e-001
6.337209e+003,1.688229e-001
6.341066e+003,1.757171e-001
6.344923e+003,1.782627e-001
6.348780e+003,1.773989e-001
6.352638e+003,1.732600e-001
6.356495e+003,1.772145e-001
6.360352e+003,1.808475e-001
6.364209e+003,1.792110e-001
6.368066e+003,1.723156e-001
6.371923e+003,1.719966e-001
6.375780e+003,1.744736e-001
6.379637e+003,1.748349e-001
6.383494e+003,1.650790e-001
6.387352e+003,1.669671e-001
6.391208e+003,1.762524e-001
6.395065e+003,1.709402e-001
6.398923e+003,1.709381e-001
6.402780e+003,1.691449e-001
6.406637e+003,1.658083e-001
6.410494e+003,1.699753e-001
6.414351e+003,1.713364e-001
6.418208e+003,1.674664e-001
6.422065e+003,1.629971e-001
6.425922e+003,1.605835e-001
6.429779e+003,1.655509e-001
6.433637e+003,1.676908e-001
6.437494e+003,1.761491e-001
6.441351e+003,1.797049e-001
6.445208e+003,1.699877e-001
6.449065e+003,1.603311e-001
6.452922e+003,1.496019e-001
6.456779e+003,1.544681e-001
6.460636e+003,1.662196e-001
6.464493e+003,1.670415e-001
6.468351e+003,1.662565e-001
6.472208e+003,1.677980e-001
6.476064e+003,1.700740e-001
6.479922e+003,1.692190e-001
6.483779e+003,1.680000e-001
6.487636e+003,1.729249e-001
6.491493e+003,1.775792e-001
6.495350e+003,1.708798e-001
6.499207e+003,1.698986e-001
6.503064e+003,1.723558e-001
6.506921e+003,1.657387e-001
6.510778e+003,1.549071e-001
6.514636e+003,1.509557e-001
6.518493e+003,1.570768e-001
6.522350e+003,1.605645e-001
6.526207e+003,1.559104e-001
6.530064e+003,1.533351e-001
6.533921e+003,1.708153e-001
6.537778e+003,1.651225e-001
6.541635e+003,1.657600e-001
6.545492e+003,1.615562e-001
6.549350e+003,1.583676e-001
6.553207e+003,1.582890e-001
6.557063e+003,1.494086e-001
6.560921e+003,1.469157e-001
6.564778e+003,1.549922e-001
6.568635e+003,1.674793e-001
6.572492e+003,1.670258e-001
6.576349e+003,1.565866e-001
6.580206e+003,1.611191e-001
6.584063e+003,1.776597e-001
6.587920e+003,1.734676e-001
6.591777e+003,1.632915e-001
6.595635e+003,1.639263e-001
6.599492e+003,1.598489e-001
6.603349e+003,1.603730e-001
6.607206e+003,1.587448e-001
6.611063e+003,1.577084e-001
6.614920e+003,1.650187e-001
6.618777e+003,1.638822e-001
6.622634e+003,1.538104e-001
6.626491e+003,1.668730e-001
6.630349e+003,1.775048e-001
6.634206e+003,1.662067e-001
6.638063e+003,1.605192e-001
6.641920e+003,1.566352e-001
6.645777e+003,1.537279e-001
6.649634e+003,1.542032e-001
6.653491e+003,1.530956e-001
6.657348e+003,1.585573e-001
6.661205e+003,1.651615e-001
6.665063e+003,1.665579e-001
6.668919e+003,1.593406e-001
6.672776e+003,1.560486e-001
6.676634e+003,1.601952e-001
6.680491e+003,1.561140e-001
6.684348e+003,1.573187e-001
6.688205e+003,1.653370e-001
6.692062e+003,1.648716e-001
6.695919e+003,1.762540e-001
6.699776e+003,1.772394e-001
6.703633e+003,1.662559e-001
6.707490e+003,1.677439e-001
6.711348e+003,1.711155e-001
6.715205e+003,1.588467e-001
6.719062e+003,1.587383e-001
6.722919e+003,1.678293e-001
6.726776e+003,1.682001e-001
6.730633e+003,1.687602e-001
6.734490e+003,1.634588e-001
6.738347e+003,1.621065e-001
6.742204e+003,1.534069e-001
6.746062e+003,1.508737e-001
6.749918e+003,1.652309e-001
6.753775e+003,1.655804e-001
6.757633e+003,1.549822e-001
6.761490e+003,1.480084e-001
6.765347e+003,1.522937e-001
6.769204e+003,1.601830e-001
6.773061e+003,1.559209e-001
6.776918e+003,1.551622e-001
6.780775e+003,1.621016e-001
6.784632e+003,1.692048e-001
6.788489e+003,1.705143e-001
6.792347e+003,1.812157e-001
6.796204e+003,1.858194e-001
6.800061e+003,1.723656e-001
6.803918e+003,1.580548e-001
6.807775e+003,1.683735e-001
6.811632e+003,1.750932e-001
6.815489e+003,1.620936e-001
6.819346e+003,1.499508e-001
6.823203e+003,1.458361e-001
6.827061e+003,1.506788e-001
6.830917e+003,1.511653e-001
6.834774e+003,1.524763e-001
6.838632e+003,1.462600e-001
6.842489e+003,1.514568e-001
6.846346e+003,1.624590e-001
6.850203e+003,1.546032e-001
6.854060e+003,1.457878e-001
6.857917e+003,1.461997e-001
6.861774e+003,1.675384e-001
6.865631e+003,1.682955e-001
6.869488e+003,1.548331e-001
6.873346e+003,1.527696e-001
6.877203e+003,1.636343e-001
6.881060e+003,1.569505e-001
6.884917e+003,1.459623e-001
6.888774e+003,1.651934e-001
6.892631e+003,1.674749e-001
6.896488e+003,1.615003e-001
6.900345e+003,1.613452e-001
6.904202e+003,1.637797e-001
6.908060e+003,1.712389e-001
6.911917e+003,1.593540e-001
6.915773e+003,1.643900e-001
6.919631e+003,1.688882e-001
6.923488e+003,1.643640e-001
6.927345e+003,1.610504e-001
6.931202e+003,1.504517e-001
6.935059e+003,1.462584e-001
6.938916e+003,1.533248e-001
6.942773e+003,1.674816e-001
6.946630e+003,1.732188e-001
6.950487e+003,1.547433e-001
6.954345e+003,1.447005e-001
6.958202e+003,1.499241e-001
6.962059e+003,1.606329e-001
6.965916e+003,1.731551e-001
6.969773e+003,1.713245e-001
6.973630e+003,1.616119e-001
6.977487e+003,1.596155e-001
6.981344e+003,1.656418e-001
6.985201e+003,1.691085e-001
6.989059e+003,1.630903e-001
6.992916e+003,1.618018e-001
6.996772e+003,1.573963e-001
7.000630e+003,1.666332e-001
7.004487e+003,1.769180e-001
7.008344e+003,1.548401e-001
7.012201e+003,1.619152e-001
7.016058e+003,1.825832e-001
7.019915e+003,1.660489e-001
7.023772e+003,1.435004e-001
7.027629e+003,1.400525e-001
7.031486e+003,1.499032e-001
7.035344e+003,1.590329e-001
7.039201e+003,1.575339e-001
7.043058e+003,1.587583e-001
7.046915e+003,1.465438e-001
7.050772e+003,1.514193e-001
7.054629e+003,1.719022e-001
7.058486e+003,1.826146e-001
7.062343e+003,1.788980e-001
7.066200e+003,1.688372e-001
7.070058e+003,1.561974e-001
7.073915e+003,1.478826e-001
7.077771e+003,1.514832e-001
7.081629e+003,1.507464e-001
7.085486e+003,1.471431e-001
7.089343e+003,1.551796e-001
7.093200e+003,1.667389e-001
7.097057e+003,1.830955e-001
7.100914e+003,1.721209e-001
7.104771e+003,1.466474e-001
7.108628e+003,1.433032e-001
7.112485e+003,1.597939e-001
7.116343e+003,1.658809e-001
7.120200e+003,1.679655e-001
7.124057e+003,1.769302e-001
7.127914e+003,1.753651e-001
7.131771e+003,1.686271e-001
7.135628e+003,1.619073e-001
7.139485e+003,1.473052e-001
7.143342e+003,1.343853e-001
7.147199e+003,1.363432e-001
7.151057e+003,1.474126e-001
7.154914e+003,1.549601e-001
7.158771e+003,1.626233e-001
7.162628e+003,1.454960e-001
7.166485e+003,1.450005e-001
7.170342e+003,1.547610e-001
7.174199e+003,1.530219e-001
7.178056e+003,1.463416e-001
7.181913e+003,1.508599e-001
7.185771e+003,1.685245e-001
7.189627e+003,1.612694e-001
7.193484e+003,1.482323e-001
7.197342e+003,1.611752e-001
7.201199e+003,1.723774e-001
7.205056e+003,1.700775e-001
7.208913e+003,1.569044e-001
7.212770e+003,1.548689e-001
7.216627e+003,1.609566e-001
7.220484e+003,1.650431e-001
7.224341e+003,1.652263e-001
7.228198e+003,1.561773e-001
7.232056e+003,1.283138e-001
7.235913e+003,1.235502e-001
7.239770e+003,1.355861e-001
7.243627e+003,1.450247e-001
7.247484e+003,1.591660e-001
7.251341e+003,1.592887e-001
7.255198e+003,1.525466e-001
7.259055e+003,1.723815e-001
7.262912e+003,1.866611e-001
7.266770e+003,1.763446e-001
7.270626e+003,1.752556e-001
7.274483e+003,1.745813e-001
7.278341e+003,1.610419e-001
7.282198e+003,1.629932e-001
7.286055e+003,1.726991e-001
7.289912e+003,1.790338e-001
7.293769e+003,1.823322e-001
7.297626e+003,1.873294e-001
7.301483e+003,1.872140e-001
7.305340e+003,1.863147e-001
7.309197e+003,1.743360e-001
7.313055e+003,1.661753e-001
7.316912e+003,1.583733e-001
7.320769e+003,1.526844e-001
7.324626e+003,1.362204e-001
7.328483e+003,1.342489e-001
7.332340e+003,1.685259e-001
7.336197e+003,1.830520e-001
7.340054e+003,1.724770e-001
7.343911e+003,1.799175e-001
7.347769e+003,1.660889e-001
7.351625e+003,1.471083e-001
7.355482e+003,1.651172e-001
7.359340e+003,1.713594e-001
7.363197e+003,1.814139e-001
7.367054e+003,1.697051e-001
7.370911e+003,1.469215e-001
7.374768e+003,1.520948e-001
7.378625e+003,1.600696e-001
7.382482e+003,1.320356e-001
7.386339e+003,1.209014e-001
7.390196e+003,1.498410e-001
7.394054e+003,1.712720e-001
7.397911e+003,1.784385e-001
7.401768e+003,1.868328e-001
7.405625e+003,1.653088e-001
7.409482e+003,1.376930e-001
7.413339e+003,1.583597e-001
7.417196e+003,1.767290e-001
7.421053e+003,1.648178e-001
7.424910e+003,1.501357e-001
7.428768e+003,1.522516e-001
7.432625e+003,1.840025e-001
7.436481e+003,1.939323e-001
7.440339e+003,1.855718e-001
7.444196e+003,2.028154e-001
7.448053e+003,2.180476e-001
7.451910e+003,1.861306e-001
7.455767e+003,1.559960e-001
7.459624e+003,1.586747e-001
7.463481e+003,1.686642e-001
7.467338e+003,1.794221e-001
7.471195e+003,1.613603e-001
7.475053e+003,1.457923e-001
7.478910e+003,1.625310e-001
7.482767e+003,1.647058e-001
7.486624e+003,1.657676e-001
7.490481e+003,1.675613e-001
7.494338e+003,1.632435e-001
7.498195e+003,1.401911e-001
7.502052e+003,1.218666e-001
7.505909e+003,1.307190e-001
7.509767e+003,1.532761e-001
7.513624e+003,1.513521e-001
7.517480e+003,1.379532e-001
7.521338e+003,1.512356e-001
7.525195e+003,1.762222e-001
7.529052e+003,1.846516e-001
7.532909e+003,1.506901e-001
7.536766e+003,1.274893e-001
7.540623e+003,1.416714e-001
7.544480e+003,1.485848e-001
7.548337e+003,1.696628e-001
7.552194e+003,1.697888e-001
7.556052e+003,1.374706e-001
7.559909e+003,1.348534e-001
7.563766e+003,1.477600e-001
7.567623e+003,1.663680e-001
7.571480e+003,1.992684e-001
7.575337e+003,1.926737e-001
7.579194e+003,1.996682e-001
7.583051e+003,2.356676e-001
7.586908e+003,1.976826e-001
7.590766e+003,1.754464e-001
7.594623e+003,2.010382e-001
7.598479e+003,1.603475e-001
7.602337e+003,1.385069e-001
7.606194e+003,1.629452e-001
7.610051e+003,1.726871e-001
7.613908e+003,1.775634e-001
7.617765e+003,1.741731e-001
7.621622e+003,1.634851e-001
7.625479e+003,1.746430e-001
7.629336e+003,1.879798e-001
7.633193e+003,1.877168e-001
7.637051e+003,2.118726e-001
7.640908e+003,2.023686e-001
7.644765e+003,1.902612e-001
7.648622e+003,1.936945e-001
7.652479e+003,2.082844e-001
7.656336e+003,1.987517e-001
7.660193e+003,1.599264e-001
7.664050e+003,1.453608e-001
7.667907e+003,1.479365e-001
7.671765e+003,1.494996e-001
7.675622e+003,1.786688e-001
7.679479e+003,1.673736e-001
7.683336e+003,1.281341e-001
7.687193e+003,1.213559e-001
7.691050e+003,1.562688e-001
7.694907e+003,1.976786e-001
7.698764e+003,2.056051e-001
7.702621e+003,1.877763e-001
7.706479e+003,1.912714e-001
7.710335e+003,1.808721e-001
7.714192e+003,1.651410e-001
7.718050e+003,1.788640e-001
7.721907e+003,1.754754e-001
7.725764e+003,1.916383e-001
7.729621e+003,2.002949e-001
7.733478e+003,1.911361e-001
7.737335e+003,1.735108e-001
7.741192e+003,1.609804e-001
7.745049e+003,1.790921e-001
7.748906e+003,1.681289e-001
7.752764e+003,1.604784e-001
7.756621e+003,1.886332e-001
7.760478e+003,2.020123e-001
7.764335e+003,2.188557e-001
7.768192e+003,2.333419e-001
7.772049e+003,2.079704e-001
7.775906e+003,1.933525e-001
7.779763e+003,2.123951e-001
7.783620e+003,2.181432e-001
7.787478e+003,1.599143e-001
7.791334e+003,1.429398e-001
7.795191e+003,2.093976e-001
7.799049e+003,2.282001e-001
7.802906e+003,1.970177e-001
7.806763e+003,1.664307e-001
7.810620e+003,1.675517e-001
7.814477e+003,2.127003e-001
7.818334e+003,2.454996e-001
7.822191e+003,1.911397e-001
7.826048e+003,1.931206e-001
7.829905e+003,1.904414e-001
7.833763e+003,1.716284e-001
7.837620e+003,1.628543e-001
7.841477e+003,1.714532e-001
7.845334e+003,1.896274e-001
7.849191e+003,1.983061e-001
7.853048e+003,1.782365e-001
7.856905e+003,1.450513e-001
7.860762e+003,1.474696e-001
7.864619e+003,1.687291e-001
7.868477e+003,1.706889e-001
7.872333e+003,1.217821e-001
7.876190e+003,1.013413e-001
7.880048e+003,1.850310e-001
7.883905e+003,2.206410e-001
7.887762e+003,1.997345e-001
7.891619e+003,2.488670e-001
7.895476e+003,3.254048e-001
7.899333e+003,2.224246e-001
7.903190e+003,1.317581e-001
7.907047e+003,1.802292e-001
7.910904e+003,1.333725e-001
7.914762e+003,1.183927e-001
7.918619e+003,1.399443e-001
7.922476e+003,1.353511e-001
7.926333e+003,1.654373e-001
7.930190e+003,1.621028e-001
7.934047e+003,1.616023e-001
7.937904e+003,1.720028e-001
7.941761e+003,1.937174e-001
7.945618e+003,2.358866e-001
7.949476e+003,2.759309e-001
7.953333e+003,2.904384e-001
7.957189e+003,2.289637e-001
7.961047e+003,1.875652e-001
7.964904e+003,1.786628e-001
7.968761e+003,1.666146e-001
7.972618e+003,1.994458e-001
7.976475e+003,1.649931e-001
7.980332e+003,1.834563e-001
7.984189e+003,2.183005e-001
7.988046e+003,2.040228e-001
7.991903e+003,1.788352e-001
7.995761e+003,1.508721e-001
7.999618e+003,1.961488e-001
