4.011380e+002,6.000000e+000
4.049951e+002,6.000000e+000
4.088522e+002,6.000000e+000
4.127093e+002,1.349599e+000
4.165664e+002,6.000000e+000
4.204235e+002,6.000000e+000
4.242806e+002,-1.445932e-001
4.281377e+002,4.214104e-001
4.319948e+002,-3.429068e-001
4.358519e+002,-3.444222e-001
4.397090e+002,6.000000e+000
4.435661e+002,3.751380e-002
4.474232e+002,-9.384046e-001
4.512803e+002,-2.800426e-001
4.551374e+002,2.252908e-001
4.589945e+002,6.000000e+000
4.628516e+002,6.000000e+000
4.667087e+002,6.000000e+000
4.705658e+002,6.000000e+000
4.744229e+002,6.000000e+000
4.782800e+002,6.653463e-001
4.821371e+002,-1.059259e-001
4.859941e+002,1.466001e+000
4.898513e+002,-5.713271e-001
4.937083e+002,6.000000e+000
4.975654e+002,6.000000e+000
5.014225e+002,6.000000e+000
5.052796e+002,6.000000e+000
5.091367e+002,6.000000e+000
5.129938e+002,-5.536525e-001
5.168509e+002,6.000000e+000
5.207080e+002,1.448720e-001
5.245651e+002,3.998940e-001
5.284222e+002,6.000000e+000
5.322793e+002,6.000000e+000
5.361364e+002,6.000000e+000
5.399935e+002,9.009421e-001
5.438506e+002,6.000000e+000
5.477077e+002,6.000000e+000
5.515648e+002,2.157976e+000
5.554219e+002,6.000000e+000
5.592790e+002,3.962822e-001
5.631361e+002,-2.799615e-001
5.669932e+002,-6.288115e-002
5.708503e+002,-7.383824e-001
5.747074e+002,6.000000e+000
5.785645e+002,6.000000e+000
5.824216e+002,5.060807e-001
5.862787e+002,6.000000e+000
5.901357e+002,6.000000e+000
5.939929e+002,6.000000e+000
5.978499e+002,7.389750e-001
6.017070e+002,6.000000e+000
6.055641e+002,6.000000e+000
6.094212e+002,1.705592e-001
6.132783e+002,6.000000e+000
6.171354e+002,6.000000e+000
6.209925e+002,6.000000e+000
6.248496e+002,6.000000e+000
6.287067e+002,-4.571265e-002
6.325638e+002,6.000000e+000
6.364209e+002,6.000000e+000
6.402780e+002,6.000000e+000
6.441351e+002,6.000000e+000
6.479922e+002,6.000000e+000
6.518493e+002,6.000000e+000
6.557064e+002,6.000000e+000
6.595635e+002,6.000000e+000
6.634205e+002,-5.035750e-001
6.672777e+002,6.000000e+000
6.711348e+002,-1.703554e-001
6.749918e+002,9.692024e-002
6.788490e+002,6.000000e+000
6.827061e+002,6.438509e-001
6.865631e+002,-1.346753e+000
6.904203e+002,6.000000e+000
6.942773e+002,3.152145e-001
6.981344e+002,1.887463e-001
7.019916e+002,6.000000e+000
7.058486e+002,6.000000e+000
7.097057e+002,3.519512e-001
7.135629e+002,6.000000e+000
7.174199e+002,2.758317e-001
7.212770e+002,6.000000e+000
7.251342e+002,6.000000e+000
7.289912e+002,8.443658e-001
7.328483e+002,5.670883e-001
7.367054e+002,-1.295401e-001
7.405625e+002,-8.193919e-002
7.444196e+002,6.000000e+000
7.482767e+002,6.000000e+000
7.521338e+002,-3.487155e-001
7.559908e+002,1.429717e+000
7.598480e+002,-9.316821e-002
7.637051e+002,-1.157280e+000
7.675621e+002,1.020603e-001
7.714193e+002,6.000000e+000
7.752764e+002,6.000000e+000
7.791334e+002,-1.771029e-001
7.829905e+002,-1.316934e+000
7.868477e+002,-4.672077e-001
7.907047e+002,6.811962e-001
7.945618e+002,6.000000e+000
7.984189e+002,-1.668872e-001
8.022760e+002,4.033483e-001
8.061331e+002,7.915879e-001
8.099902e+002,7.987834e-001
8.138473e+002,6.493796e-001
8.177044e+002,7.746496e-001
8.215615e+002,1.024351e+000
8.254186e+002,6.000000e+000
8.292757e+002,6.000000e+000
8.331328e+002,6.000000e+000
8.369899e+002,6.000000e+000
8.408470e+002,6.000000e+000
8.447041e+002,6.000000e+000
8.485612e+002,6.000000e+000
8.524183e+002,6.000000e+000
8.562754e+002,6.000000e+000
8.601324e+002,1.112583e+000
8.639896e+002,2.015625e+000
8.678467e+002,6.000000e+000
8.717037e+002,6.000000e+000
8.755609e+002,1.204456e+000
8.794180e+002,1.026811e+000
8.832750e+002,1.214066e+000
8.871321e+002,1.804195e+000
8.909893e+002,6.000000e+000
8.948463e+002,1.878387e+000
8.987034e+002,1.524894e+000
9.025605e+002,2.223625e+000
9.064176e+002,6.000000e+000
9.102747e+002,6.000000e+000
9.141318e+002,6.000000e+000
9.179889e+002,1.690087e+000
9.218461e+002,1.596353e+000
9.257031e+002,2.468374e+000
9.295602e+002,6.000000e+000
9.334174e+002,6.000000e+000
9.372744e+002,6.000000e+000
9.411315e+002,6.000000e+000
9.449886e+002,6.000000e+000
9.488457e+002,6.000000e+000
9.527028e+002,6.000000e+000
9.565599e+002,6.000000e+000
9.604170e+002,1.772005e+000
9.642740e+002,1.692426e+000
9.681312e+002,1.945141e+000
9.719883e+002,3.320870e+000
9.758453e+002,6.000000e+000
9.797025e+002,6.000000e+000
9.835596e+002,6.000000e+000
9.874166e+002,6.000000e+000
9.912738e+002,6.000000e+000
9.951309e+002,2.720805e+000
9.989879e+002,1.859387e+000
1.002845e+003,1.843428e+000
1.006702e+003,2.255495e+000
1.010559e+003,6.000000e+000
1.014416e+003,6.000000e+000
1.018273e+003,1.846836e+000
1.022130e+003,1.751403e+000
1.025988e+003,1.775843e+000
1.029845e+003,1.872440e+000
1.033702e+003,1.840369e+000
1.037559e+003,1.669886e+000
1.041416e+003,1.584332e+000
1.045273e+003,1.673783e+000
1.049130e+003,2.022501e+000
1.052987e+003,2.503302e+000
1.056844e+003,2.465875e+000
1.060702e+003,1.977555e+000
1.064559e+003,1.778845e+000
1.068416e+003,1.742071e+000
1.072273e+003,1.803481e+000
1.076130e+003,1.745159e+000
1.079987e+003,1.645655e+000
1.083844e+003,1.589547e+000
1.087701e+003,1.693480e+000
1.091558e+003,1.828945e+000
1.095415e+003,1.745159e+000
1.099272e+003,1.663683e+000
1.103130e+003,1.619718e+000
1.106987e+003,1.535722e+000
1.110844e+003,1.469595e+000
1.114701e+003,1.436609e+000
1.118558e+003,1.414690e+000
1.122415e+003,1.470900e+000
1.126272e+003,1.503705e+000
1.130129e+003,1.531386e+000
1.133986e+003,1.553683e+000
1.137843e+003,1.494595e+000
1.141701e+003,1.483893e+000
1.145558e+003,1.526400e+000
1.149415e+003,1.526481e+000
1.153272e+003,1.552683e+000
1.157129e+003,1.593629e+000
1.160986e+003,1.617965e+000
1.164843e+003,1.594869e+000
1.168700e+003,1.582310e+000
1.172557e+003,1.580707e+000
1.176414e+003,1.569230e+000
1.180271e+003,1.524870e+000
1.184129e+003,1.432239e+000
1.187986e+003,1.410535e+000
1.191843e+003,1.456827e+000
1.195700e+003,1.449988e+000
1.199557e+003,1.380143e+000
1.203414e+003,1.370315e+000
1.207271e+003,1.329280e+000
1.211128e+003,1.224577e+000
1.214985e+003,1.164637e+000
1.218842e+003,1.095366e+000
1.222699e+003,1.008573e+000
1.226557e+003,9.510965e-001
1.230414e+003,9.052384e-001
1.234271e+003,8.681504e-001
1.238128e+003,8.313078e-001
1.241985e+003,7.862389e-001
1.245842e+003,7.542448e-001
1.249699e+003,7.356678e-001
1.253556e+003,7.190575e-001
1.257413e+003,7.000428e-001
1.261271e+003,6.871077e-001
1.265128e+003,6.726344e-001
1.268985e+003,6.589374e-001
1.272842e+003,6.528363e-001
1.276699e+003,6.475294e-001
1.280556e+003,6.322951e-001
1.284413e+003,6.163133e-001
1.288270e+003,6.127738e-001
1.292127e+003,6.053144e-001
1.295984e+003,5.890546e-001
1.299841e+003,5.780292e-001
1.303698e+003,5.711081e-001
1.307556e+003,5.612167e-001
1.311413e+003,5.519073e-001
1.315270e+003,5.460500e-001
1.319127e+003,5.429525e-001
1.322984e+003,5.370678e-001
1.326841e+003,5.272038e-001
1.330698e+003,5.211021e-001
1.334555e+003,5.193569e-001
1.338412e+003,5.149788e-001
1.342270e+003,5.130213e-001
1.346127e+003,5.104396e-001
1.349984e+003,5.065155e-001
1.353841e+003,5.074193e-001
1.357698e+003,5.081043e-001
1.361555e+003,5.060185e-001
1.365412e+003,5.087818e-001
1.369269e+003,5.131076e-001
1.373126e+003,5.194472e-001
1.376983e+003,5.287035e-001
1.380840e+003,5.361313e-001
1.384698e+003,5.415187e-001
1.388555e+003,5.460409e-001
1.392412e+003,5.543748e-001
1.396269e+003,5.693260e-001
1.400126e+003,5.882061e-001
1.403983e+003,6.067597e-001
1.407840e+003,6.162862e-001
1.411697e+003,6.258093e-001
1.415554e+003,6.357744e-001
1.419411e+003,6.477187e-001
1.423269e+003,6.637835e-001
1.427126e+003,6.688666e-001
1.430983e+003,6.661180e-001
1.434840e+003,6.673372e-001
1.438697e+003,6.678644e-001
1.442554e+003,6.659230e-001
1.446411e+003,6.628423e-001
1.450268e+003,6.592010e-001
1.454125e+003,6.465320e-001
1.457982e+003,6.301914e-001
1.461839e+003,6.239908e-001
1.465697e+003,6.208134e-001
1.469554e+003,6.156476e-001
1.473411e+003,6.140798e-001
1.477268e+003,6.186086e-001
1.481125e+003,6.279502e-001
1.484982e+003,6.404926e-001
1.488839e+003,6.492774e-001
1.492696e+003,6.579130e-001
1.496553e+003,6.695675e-001
1.500411e+003,6.768247e-001
1.504268e+003,6.767550e-001
1.508125e+003,6.799765e-001
1.511982e+003,6.879234e-001
1.515839e+003,6.894360e-001
1.519696e+003,6.835642e-001
1.523553e+003,6.787453e-001
1.527410e+003,6.746761e-001
1.531267e+003,6.648680e-001
1.535124e+003,6.498952e-001
1.538981e+003,6.316281e-001
1.542839e+003,6.233490e-001
1.546696e+003,6.178775e-001
1.550553e+003,6.093476e-001
1.554410e+003,5.922093e-001
1.558267e+003,5.810235e-001
1.562124e+003,5.792950e-001
1.565981e+003,5.712545e-001
1.569838e+003,5.633689e-001
1.573695e+003,5.594071e-001
1.577552e+003,5.558404e-001
1.581410e+003,5.546755e-001
1.585267e+003,5.548270e-001
1.589124e+003,5.573686e-001
1.592981e+003,5.652333e-001
1.596838e+003,5.714832e-001
1.600695e+003,5.806589e-001
1.604552e+003,5.981886e-001
1.608409e+003,6.244386e-001
1.612266e+003,6.465977e-001
1.616123e+003,6.655313e-001
1.619980e+003,6.868163e-001
1.623838e+003,7.102953e-001
1.627695e+003,7.285855e-001
1.631552e+003,7.419024e-001
1.635409e+003,7.533147e-001
1.639266e+003,7.546282e-001
1.643123e+003,7.479507e-001
1.646980e+003,7.390734e-001
1.650837e+003,7.250718e-001
1.654694e+003,7.095963e-001
1.658551e+003,6.816741e-001
1.662409e+003,6.587485e-001
1.666266e+003,6.457909e-001
1.670123e+003,6.281891e-001
1.673980e+003,6.026251e-001
1.677837e+003,5.782816e-001
1.681694e+003,5.662793e-001
1.685551e+003,5.562787e-001
1.689408e+003,5.413924e-001
1.693265e+003,5.315021e-001
1.697122e+003,5.238881e-001
1.700979e+003,5.128535e-001
1.704837e+003,5.024114e-001
1.708694e+003,4.978262e-001
1.712551e+003,4.944532e-001
1.716408e+003,4.903294e-001
1.720265e+003,4.817035e-001
1.724122e+003,4.738627e-001
1.727979e+003,4.724392e-001
1.731836e+003,4.733931e-001
1.735693e+003,4.739354e-001
1.739550e+003,4.735287e-001
1.743408e+003,4.709097e-001
1.747265e+003,4.695083e-001
1.751122e+003,4.671330e-001
1.754979e+003,4.666367e-001
1.758836e+003,4.668565e-001
1.762693e+003,4.666348e-001
1.766550e+003,4.662432e-001
1.770407e+003,4.635564e-001
1.774264e+003,4.618467e-001
1.778121e+003,4.610658e-001
1.781979e+003,4.596718e-001
1.785836e+003,4.554779e-001
1.789693e+003,4.496216e-001
1.793550e+003,4.488940e-001
1.797407e+003,4.500627e-001
1.801264e+003,4.470881e-001
1.805121e+003,4.465781e-001
1.808978e+003,4.476396e-001
1.812835e+003,4.441200e-001
1.816692e+003,4.403313e-001
1.820549e+003,4.398567e-001
1.824407e+003,4.454382e-001
1.828264e+003,4.492441e-001
1.832121e+003,4.487906e-001
1.835978e+003,4.452768e-001
1.839835e+003,4.401994e-001
1.843692e+003,4.381637e-001
1.847549e+003,4.362290e-001
1.851406e+003,4.345061e-001
1.855263e+003,4.324575e-001
1.859120e+003,4.293893e-001
1.862978e+003,4.272980e-001
1.866835e+003,4.265863e-001
1.870692e+003,4.240920e-001
1.874549e+003,4.216495e-001
1.878406e+003,4.174846e-001
1.882263e+003,4.160372e-001
1.886120e+003,4.166058e-001
1.889977e+003,4.148676e-001
1.893834e+003,4.125413e-001
1.897691e+003,4.147977e-001
1.901548e+003,4.153949e-001
1.905406e+003,4.156939e-001
1.909263e+003,4.169200e-001
1.913120e+003,4.140606e-001
1.916977e+003,4.118900e-001
1.920834e+003,4.098334e-001
1.924691e+003,4.058181e-001
1.928548e+003,4.044613e-001
1.932405e+003,4.054645e-001
1.936262e+003,4.042027e-001
1.940119e+003,3.991774e-001
1.943977e+003,3.969335e-001
1.947834e+003,3.962272e-001
1.951691e+003,3.911652e-001
1.955548e+003,3.876335e-001
1.959405e+003,3.893559e-001
1.963262e+003,3.871104e-001
1.967119e+003,3.837550e-001
1.970976e+003,3.827502e-001
1.974833e+003,3.816673e-001
1.978690e+003,3.810742e-001
1.982547e+003,3.797415e-001
1.986405e+003,3.785582e-001
1.990262e+003,3.776426e-001
1.994119e+003,3.800471e-001
1.997976e+003,3.827193e-001
2.001833e+003,3.817333e-001
2.005690e+003,3.816665e-001
2.009547e+003,3.805561e-001
2.013404e+003,3.802130e-001
2.017261e+003,3.790203e-001
2.021118e+003,3.778746e-001
2.024976e+003,3.751267e-001
2.028833e+003,3.724943e-001
2.032690e+003,3.711717e-001
2.036547e+003,3.690197e-001
2.040404e+003,3.673468e-001
2.044261e+003,3.646773e-001
2.048118e+003,3.621723e-001
2.051975e+003,3.605240e-001
2.055832e+003,3.573290e-001
2.059689e+003,3.531826e-001
2.063546e+003,3.536194e-001
2.067404e+003,3.540287e-001
2.071261e+003,3.541869e-001
2.075118e+003,3.535093e-001
2.078975e+003,3.522091e-001
2.082832e+003,3.521018e-001
2.086689e+003,3.537160e-001
2.090546e+003,3.545890e-001
2.094403e+003,3.560863e-001
2.098260e+003,3.568706e-001
2.102117e+003,3.567503e-001
2.105975e+003,3.571380e-001
2.109832e+003,3.567401e-001
2.113689e+003,3.568961e-001
2.117546e+003,3.573834e-001
2.121403e+003,3.568136e-001
2.125260e+003,3.547987e-001
2.129117e+003,3.538935e-001
2.132974e+003,3.521229e-001
2.136831e+003,3.515191e-001
2.140688e+003,3.511359e-001
2.144545e+003,3.471462e-001
2.148403e+003,3.454311e-001
2.152260e+003,3.464929e-001
2.156117e+003,3.473499e-001
2.159974e+003,3.464464e-001
2.163831e+003,3.454438e-001
2.167688e+003,3.468906e-001
2.171545e+003,3.480681e-001
2.175402e+003,3.476761e-001
2.179259e+003,3.464962e-001
2.183116e+003,3.451773e-001
2.186974e+003,3.469235e-001
2.190831e+003,3.499941e-001
2.194688e+003,3.526719e-001
2.198545e+003,3.549335e-001
2.202402e+003,3.535091e-001
2.206259e+003,3.527824e-001
2.210116e+003,3.549919e-001
2.213973e+003,3.550308e-001
2.217830e+003,3.533344e-001
2.221688e+003,3.530212e-001
2.225544e+003,3.521599e-001
2.229402e+003,3.514688e-001
2.233259e+003,3.508724e-001
2.237116e+003,3.506282e-001
2.240973e+003,3.494529e-001
2.244830e+003,3.498404e-001
2.248687e+003,3.507321e-001
2.252544e+003,3.510453e-001
2.256401e+003,3.505621e-001
2.260258e+003,3.506425e-001
2.264115e+003,3.512528e-001
2.267973e+003,3.534081e-001
2.271830e+003,3.538053e-001
2.275687e+003,3.537634e-001
2.279544e+003,3.553867e-001
2.283401e+003,3.581216e-001
2.287258e+003,3.598158e-001
2.291115e+003,3.596152e-001
2.294972e+003,3.600827e-001
2.298829e+003,3.617839e-001
2.302687e+003,3.641348e-001
2.306543e+003,3.656953e-001
2.310401e+003,3.647836e-001
2.314258e+003,3.627226e-001
2.318115e+003,3.632888e-001
2.321972e+003,3.644789e-001
2.325829e+003,3.668434e-001
2.329686e+003,3.672070e-001
2.333543e+003,3.637556e-001
2.337400e+003,3.618617e-001
2.341257e+003,3.625000e-001
2.345115e+003,3.613410e-001
2.348972e+003,3.595840e-001
2.352829e+003,3.631289e-001
2.356686e+003,3.657923e-001
2.360543e+003,3.633614e-001
2.364400e+003,3.615933e-001
2.368257e+003,3.609577e-001
2.372114e+003,3.597805e-001
2.375971e+003,3.566498e-001
2.379828e+003,3.562406e-001
2.383686e+003,3.547768e-001
2.387542e+003,3.513151e-001
2.391400e+003,3.502749e-001
2.395257e+003,3.527524e-001
2.399114e+003,3.543912e-001
2.402971e+003,3.547347e-001
2.406828e+003,3.546804e-001
2.410685e+003,3.531346e-001
2.414542e+003,3.495621e-001
2.418399e+003,3.453074e-001
2.422256e+003,3.434577e-001
2.426114e+003,3.427387e-001
2.429971e+003,3.433841e-001
2.433828e+003,3.427723e-001
2.437685e+003,3.407606e-001
2.441542e+003,3.390466e-001
2.445399e+003,3.386175e-001
2.449256e+003,3.394743e-001
2.453113e+003,3.390898e-001
2.456970e+003,3.367500e-001
2.460827e+003,3.358010e-001
2.464684e+003,3.359312e-001
2.468542e+003,3.342628e-001
2.472399e+003,3.340148e-001
2.476256e+003,3.360633e-001
2.480113e+003,3.374945e-001
2.483970e+003,3.371346e-001
2.487827e+003,3.344900e-001
2.491684e+003,3.340505e-001
2.495541e+003,3.353113e-001
2.499398e+003,3.345710e-001
2.503255e+003,3.330237e-001
2.507113e+003,3.331204e-001
2.510969e+003,3.336791e-001
2.514827e+003,3.344607e-001
2.518684e+003,3.333943e-001
2.522541e+003,3.307970e-001
2.526398e+003,3.294305e-001
2.530255e+003,3.292142e-001
2.534112e+003,3.299801e-001
2.537969e+003,3.288441e-001
2.541826e+003,3.299550e-001
2.545683e+003,3.325473e-001
2.549541e+003,3.345944e-001
2.553398e+003,3.341890e-001
2.557255e+003,3.333768e-001
2.561112e+003,3.327969e-001
2.564969e+003,3.340885e-001
2.568826e+003,3.350628e-001
2.572683e+003,3.366250e-001
2.576540e+003,3.376503e-001
2.580397e+003,3.373725e-001
2.584254e+003,3.428689e-001
2.588112e+003,3.464435e-001
2.591969e+003,3.455136e-001
2.595826e+003,3.459730e-001
2.599683e+003,3.470502e-001
2.603540e+003,3.486447e-001
2.607397e+003,3.522256e-001
2.611254e+003,3.540347e-001
2.615111e+003,3.523923e-001
2.618968e+003,3.534802e-001
2.622825e+003,3.576270e-001
2.626682e+003,3.597662e-001
2.630540e+003,3.602607e-001
2.634397e+003,3.610422e-001
2.638254e+003,3.623441e-001
2.642111e+003,3.642436e-001
2.645968e+003,3.658548e-001
2.649825e+003,3.672042e-001
2.653682e+003,3.705600e-001
2.657539e+003,3.754309e-001
2.661396e+003,3.791573e-001
2.665253e+003,3.784847e-001
2.669111e+003,3.792371e-001
2.672968e+003,3.823093e-001
2.676825e+003,3.843667e-001
2.680682e+003,3.871070e-001
2.684539e+003,3.891507e-001
2.688396e+003,3.915647e-001
2.692253e+003,3.926905e-001
2.696110e+003,3.965543e-001
2.699967e+003,4.011605e-001
2.703824e+003,4.033856e-001
2.707681e+003,4.066279e-001
2.711539e+003,4.095032e-001
2.715396e+003,4.130269e-001
2.719253e+003,4.133356e-001
2.723110e+003,4.149801e-001
2.726967e+003,4.202389e-001
2.730824e+003,4.228834e-001
2.734681e+003,4.236513e-001
2.738538e+003,4.268456e-001
2.742395e+003,4.325071e-001
2.746252e+003,4.314946e-001
2.750110e+003,4.319230e-001
2.753967e+003,4.361064e-001
2.757824e+003,4.361118e-001
2.761681e+003,4.396703e-001
2.765538e+003,4.460417e-001
2.769395e+003,4.504148e-001
2.773252e+003,4.542395e-001
2.777109e+003,4.572109e-001
2.780966e+003,4.602349e-001
2.784823e+003,4.618517e-001
2.788680e+003,4.634799e-001
2.792538e+003,4.674993e-001
2.796395e+003,4.716625e-001
2.800252e+003,4.758169e-001
2.804109e+003,4.795219e-001
2.807966e+003,4.840137e-001
2.811823e+003,4.851132e-001
2.815680e+003,4.869587e-001
2.819537e+003,4.936599e-001
2.823394e+003,4.978686e-001
2.827251e+003,5.009480e-001
2.831109e+003,5.045979e-001
2.834966e+003,5.080776e-001
2.838823e+003,5.126065e-001
2.842680e+003,5.157390e-001
2.846537e+003,5.202155e-001
2.850394e+003,5.245344e-001
2.854251e+003,5.251468e-001
2.858108e+003,5.266058e-001
2.861965e+003,5.317028e-001
2.865823e+003,5.357295e-001
2.869679e+003,5.393667e-001
2.873537e+003,5.452821e-001
2.877394e+003,5.497480e-001
2.881251e+003,5.515790e-001
2.885108e+003,5.550305e-001
2.888965e+003,5.592769e-001
2.892822e+003,5.643082e-001
2.896679e+003,5.714391e-001
2.900536e+003,5.727388e-001
2.904393e+003,5.756223e-001
2.908250e+003,5.821069e-001
2.912108e+003,5.868820e-001
2.915965e+003,5.906879e-001
2.919822e+003,5.968501e-001
2.923679e+003,6.043831e-001
2.927536e+003,6.074650e-001
2.931393e+003,6.120026e-001
2.935250e+003,6.182358e-001
2.939107e+003,6.200235e-001
2.942964e+003,6.178119e-001
2.946822e+003,6.230894e-001
2.950678e+003,6.298381e-001
2.954536e+003,6.366841e-001
2.958393e+003,6.376272e-001
2.962250e+003,6.381606e-001
2.966107e+003,6.436627e-001
2.969964e+003,6.493430e-001
2.973821e+003,6.548033e-001
2.977678e+003,6.586202e-001
2.981535e+003,6.590273e-001
2.985392e+003,6.633213e-001
2.989250e+003,6.696385e-001
2.993107e+003,6.764622e-001
2.996964e+003,6.825686e-001
3.000821e+003,6.919336e-001
3.004678e+003,6.995064e-001
3.008535e+003,7.006109e-001
3.012392e+003,6.962636e-001
3.016249e+003,7.001328e-001
3.020106e+003,7.111147e-001
3.023963e+003,7.166995e-001
3.027821e+003,7.228419e-001
3.031677e+003,7.280068e-001
3.035535e+003,7.324843e-001
3.039392e+003,7.394920e-001
3.043249e+003,7.438033e-001
3.047106e+003,7.475064e-001
3.050963e+003,7.544910e-001
3.054820e+003,7.608305e-001
3.058677e+003,7.676935e-001
3.062534e+003,7.684773e-001
3.066391e+003,7.735530e-001
3.070249e+003,7.811877e-001
3.074106e+003,7.838593e-001
3.077963e+003,7.893215e-001
3.081820e+003,8.016934e-001
3.085677e+003,8.104191e-001
3.089534e+003,8.129936e-001
3.093391e+003,8.147900e-001
3.097248e+003,8.160228e-001
3.101105e+003,8.202723e-001
3.104962e+003,8.268251e-001
3.108820e+003,8.350455e-001
3.112677e+003,8.455288e-001
3.116534e+003,8.563832e-001
3.120391e+003,8.618736e-001
3.124248e+003,8.594546e-001
3.128105e+003,8.582848e-001
3.131962e+003,8.713974e-001
3.135819e+003,8.863117e-001
3.139676e+003,8.874859e-001
3.143533e+003,8.874395e-001
3.147390e+003,8.940532e-001
3.151248e+003,9.019217e-001
3.155105e+003,9.090810e-001
3.158962e+003,9.170534e-001
3.162819e+003,9.283625e-001
3.166676e+003,9.329534e-001
3.170533e+003,9.351252e-001
3.174390e+003,9.443520e-001
3.178247e+003,9.616378e-001
3.182104e+003,9.691233e-001
3.185961e+003,9.647895e-001
3.189819e+003,9.642843e-001
3.193676e+003,9.700592e-001
3.197533e+003,9.725368e-001
3.201390e+003,9.820041e-001
3.205247e+003,9.947575e-001
3.209104e+003,1.009710e+000
3.212961e+003,1.017024e+000
3.216818e+003,1.009330e+000
3.220675e+003,1.005335e+000
3.224532e+003,1.014112e+000
3.228389e+003,1.029772e+000
3.232247e+003,1.031475e+000
3.236104e+003,1.038431e+000
3.239961e+003,1.051831e+000
3.243818e+003,1.061712e+000
3.247675e+003,1.064153e+000
3.251532e+003,1.062129e+000
3.255389e+003,1.070983e+000
3.259246e+003,1.072063e+000
3.263103e+003,1.068908e+000
3.266960e+003,1.080559e+000
3.270818e+003,1.089821e+000
3.274675e+003,1.087045e+000
3.278532e+003,1.093689e+000
3.282389e+003,1.101891e+000
3.286246e+003,1.105002e+000
3.290103e+003,1.111935e+000
3.293960e+003,1.120613e+000
3.297817e+003,1.130170e+000
3.301674e+003,1.134989e+000
3.305531e+003,1.135582e+000
3.309388e+003,1.143718e+000
3.313246e+003,1.144395e+000
3.317103e+003,1.146548e+000
3.320960e+003,1.151971e+000
3.324817e+003,1.151086e+000
3.328674e+003,1.132729e+000
3.332531e+003,1.141703e+000
3.336388e+003,1.182188e+000
3.340245e+003,1.197743e+000
3.344102e+003,1.185758e+000
3.347959e+003,1.193874e+000
3.351817e+003,1.202605e+000
3.355674e+003,1.199712e+000
3.359531e+003,1.197276e+000
3.363388e+003,1.216765e+000
3.367245e+003,1.243071e+000
3.371102e+003,1.242426e+000
3.374959e+003,1.218640e+000
3.378816e+003,1.241867e+000
3.382673e+003,1.247659e+000
3.386530e+003,1.247046e+000
3.390387e+003,1.254640e+000
3.394245e+003,1.248540e+000
3.398102e+003,1.238840e+000
3.401959e+003,1.238706e+000
3.405816e+003,1.254372e+000
3.409673e+003,1.257631e+000
3.413530e+003,1.262080e+000
3.417387e+003,1.272944e+000
3.421244e+003,1.275773e+000
3.425101e+003,1.281058e+000
3.428958e+003,1.287632e+000
3.432815e+003,1.274902e+000
3.436673e+003,1.286053e+000
3.440530e+003,1.315161e+000
3.444387e+003,1.310069e+000
3.448244e+003,1.291582e+000
3.452101e+003,1.276837e+000
3.455958e+003,1.266931e+000
3.459815e+003,1.303627e+000
3.463672e+003,1.327536e+000
3.467529e+003,1.309827e+000
3.471386e+003,1.296104e+000
3.475244e+003,1.312516e+000
3.479101e+003,1.342557e+000
3.482958e+003,1.344220e+000
3.486815e+003,1.343216e+000
3.490672e+003,1.340802e+000
3.494529e+003,1.335695e+000
3.498386e+003,1.341171e+000
3.502243e+003,1.325190e+000
3.506100e+003,1.312114e+000
3.509958e+003,1.332298e+000
3.513814e+003,1.341866e+000
3.517672e+003,1.360508e+000
3.521529e+003,1.364260e+000
3.525386e+003,1.338839e+000
3.529243e+003,1.340379e+000
3.533100e+003,1.337751e+000
3.536957e+003,1.332316e+000
3.540814e+003,1.333671e+000
3.544671e+003,1.322004e+000
3.548528e+003,1.316229e+000
3.552385e+003,1.331934e+000
3.556243e+003,1.343081e+000
3.560100e+003,1.337100e+000
3.563957e+003,1.340253e+000
3.567814e+003,1.331359e+000
3.571671e+003,1.296804e+000
3.575528e+003,1.277599e+000
3.579385e+003,1.270312e+000
3.583242e+003,1.254422e+000
3.587099e+003,1.252417e+000
3.590957e+003,1.250064e+000
3.594813e+003,1.220305e+000
3.598671e+003,1.186845e+000
3.602528e+003,1.140256e+000
3.606385e+003,1.090559e+000
3.610242e+003,1.054073e+000
3.614099e+003,1.017081e+000
3.617956e+003,9.787072e-001
3.621813e+003,9.403173e-001
3.625670e+003,8.943685e-001
3.629527e+003,8.405637e-001
3.633385e+003,7.945401e-001
3.637242e+003,7.485394e-001
3.641099e+003,6.992511e-001
3.644956e+003,6.588140e-001
3.648813e+003,6.170540e-001
3.652670e+003,5.758830e-001
3.656527e+003,5.370432e-001
3.660384e+003,5.007768e-001
3.664241e+003,4.692504e-001
3.668098e+003,4.392160e-001
3.671956e+003,4.131407e-001
3.675813e+003,3.896803e-001
3.679670e+003,3.684588e-001
3.683527e+003,3.515139e-001
3.687384e+003,3.360993e-001
3.691241e+003,3.213967e-001
3.695098e+003,3.097014e-001
3.698955e+003,2.994036e-001
3.702812e+003,2.920284e-001
3.706669e+003,2.862436e-001
3.710526e+003,2.793876e-001
3.714384e+003,2.713983e-001
3.718241e+003,2.666225e-001
3.722098e+003,2.656909e-001
3.725955e+003,2.626713e-001
3.729812e+003,2.587952e-001
3.733669e+003,2.550552e-001
3.737526e+003,2.572626e-001
3.741383e+003,2.585611e-001
3.745240e+003,2.541302e-001
3.749097e+003,2.524043e-001
3.752955e+003,2.515563e-001
3.756812e+003,2.508809e-001
3.760669e+003,2.516223e-001
3.764526e+003,2.512896e-001
3.768383e+003,2.509300e-001
3.772240e+003,2.502661e-001
3.776097e+003,2.484985e-001
3.779954e+003,2.467936e-001
3.783811e+003,2.471038e-001
3.787668e+003,2.467070e-001
3.791525e+003,2.473002e-001
3.795383e+003,2.469504e-001
3.799240e+003,2.433490e-001
3.803097e+003,2.409750e-001
3.806954e+003,2.410434e-001
3.810811e+003,2.399555e-001
3.814668e+003,2.400711e-001
3.818525e+003,2.421575e-001
3.822382e+003,2.424326e-001
3.826239e+003,2.418228e-001
3.830096e+003,2.426954e-001
3.833954e+003,2.438279e-001
3.837811e+003,2.418281e-001
3.841668e+003,2.440516e-001
3.845525e+003,2.469812e-001
3.849382e+003,2.480608e-001
3.853239e+003,2.477696e-001
3.857096e+003,2.461340e-001
3.860953e+003,2.447675e-001
3.864810e+003,2.448747e-001
3.868667e+003,2.463151e-001
3.872524e+003,2.469524e-001
3.876382e+003,2.455010e-001
3.880239e+003,2.421460e-001
3.884096e+003,2.432856e-001
3.887953e+003,2.432266e-001
3.891810e+003,2.400368e-001
3.895667e+003,2.381053e-001
3.899524e+003,2.383092e-001
3.903381e+003,2.390938e-001
3.907238e+003,2.418183e-001
3.911095e+003,2.453201e-001
3.914953e+003,2.465460e-001
3.918810e+003,2.430695e-001
3.922667e+003,2.430960e-001
3.926524e+003,2.446818e-001
3.930381e+003,2.444025e-001
3.934238e+003,2.452324e-001
3.938095e+003,2.453385e-001
3.941952e+003,2.452498e-001
3.945809e+003,2.447301e-001
3.949667e+003,2.486484e-001
3.953523e+003,2.478748e-001
3.957381e+003,2.439211e-001
3.961238e+003,2.427989e-001
3.965095e+003,2.445891e-001
3.968952e+003,2.461772e-001
3.972809e+003,2.436625e-001
3.976666e+003,2.422484e-001
3.980523e+003,2.440046e-001
3.984380e+003,2.432898e-001
3.988237e+003,2.420857e-001
3.992094e+003,2.441176e-001
3.995952e+003,2.449224e-001
3.999809e+003,2.444177e-001
4.003666e+003,2.457727e-001
4.007523e+003,2.437069e-001
4.011380e+003,2.417263e-001
4.015237e+003,2.433034e-001
4.019094e+003,2.426275e-001
4.022951e+003,2.422853e-001
4.026808e+003,2.428168e-001
4.030666e+003,2.450801e-001
4.034522e+003,2.443916e-001
4.038380e+003,2.440171e-001
4.042237e+003,2.469928e-001
4.046094e+003,2.455432e-001
4.049951e+003,2.446842e-001
4.053808e+003,2.480259e-001
4.057665e+003,2.456980e-001
4.061522e+003,2.415065e-001
4.065379e+003,2.416752e-001
4.069236e+003,2.409300e-001
4.073094e+003,2.388121e-001
4.076951e+003,2.407715e-001
4.080808e+003,2.410949e-001
4.084665e+003,2.404680e-001
4.088522e+003,2.405475e-001
4.092379e+003,2.379009e-001
4.096236e+003,2.395153e-001
4.100093e+003,2.413167e-001
4.103950e+003,2.397128e-001
4.107808e+003,2.391061e-001
4.111665e+003,2.392533e-001
4.115521e+003,2.357582e-001
4.119379e+003,2.354483e-001
4.123236e+003,2.374976e-001
4.127093e+003,2.413798e-001
4.130950e+003,2.412982e-001
4.134807e+003,2.402973e-001
4.138664e+003,2.428971e-001
4.142521e+003,2.435911e-001
4.146378e+003,2.409911e-001
4.150235e+003,2.381147e-001
4.154093e+003,2.388752e-001
4.157950e+003,2.428511e-001
4.161807e+003,2.461131e-001
4.165664e+003,2.435018e-001
4.169521e+003,2.401442e-001
4.173378e+003,2.384308e-001
4.177235e+003,2.345795e-001
4.181092e+003,2.347992e-001
4.184949e+003,2.362475e-001
4.188807e+003,2.374254e-001
4.192664e+003,2.378096e-001
4.196521e+003,2.372202e-001
4.200378e+003,2.368320e-001
4.204235e+003,2.356028e-001
4.208092e+003,2.326338e-001
4.211949e+003,2.342721e-001
4.215806e+003,2.361242e-001
4.219663e+003,2.343079e-001
4.223521e+003,2.383334e-001
4.227377e+003,2.396036e-001
4.231234e+003,2.390795e-001
4.235092e+003,2.414605e-001
4.238949e+003,2.410207e-001
4.242806e+003,2.386033e-001
4.246663e+003,2.358281e-001
4.250520e+003,2.367589e-001
4.254377e+003,2.391666e-001
4.258234e+003,2.368161e-001
4.262091e+003,2.363102e-001
4.265948e+003,2.412743e-001
4.269806e+003,2.420408e-001
4.273663e+003,2.395978e-001
4.277520e+003,2.363182e-001
4.281377e+003,2.323861e-001
4.285234e+003,2.312695e-001
4.289091e+003,2.336441e-001
4.292948e+003,2.322917e-001
4.296805e+003,2.284866e-001
4.300662e+003,2.318322e-001
4.304520e+003,2.364117e-001
4.308376e+003,2.410176e-001
4.312233e+003,2.411782e-001
4.316091e+003,2.388252e-001
4.319948e+003,2.367705e-001
4.323805e+003,2.374473e-001
4.327662e+003,2.391356e-001
4.331519e+003,2.422405e-001
4.335376e+003,2.409972e-001
4.339233e+003,2.419266e-001
4.343090e+003,2.444324e-001
4.346947e+003,2.443292e-001
4.350805e+003,2.448353e-001
4.354662e+003,2.446952e-001
4.358519e+003,2.429648e-001
4.362376e+003,2.419375e-001
4.366233e+003,2.401479e-001
4.370090e+003,2.346371e-001
4.373947e+003,2.343442e-001
4.377804e+003,2.382458e-001
4.381661e+003,2.413270e-001
4.385519e+003,2.384165e-001
4.389375e+003,2.387762e-001
4.393232e+003,2.420669e-001
4.397090e+003,2.379709e-001
4.400947e+003,2.384023e-001
4.404804e+003,2.423461e-001
4.408661e+003,2.394743e-001
4.412518e+003,2.366834e-001
4.416375e+003,2.378673e-001
4.420232e+003,2.388486e-001
4.424089e+003,2.366268e-001
4.427946e+003,2.383928e-001
4.431804e+003,2.448956e-001
4.435661e+003,2.450520e-001
4.439518e+003,2.401184e-001
4.443375e+003,2.411824e-001
4.447232e+003,2.428794e-001
4.451089e+003,2.431131e-001
4.454946e+003,2.412079e-001
4.458803e+003,2.411957e-001
4.462660e+003,2.390713e-001
4.466518e+003,2.407097e-001
4.470375e+003,2.435340e-001
4.474231e+003,2.419958e-001
4.478089e+003,2.362417e-001
4.481946e+003,2.338580e-001
4.485803e+003,2.354907e-001
4.489660e+003,2.342200e-001
4.493517e+003,2.348681e-001
4.497375e+003,2.400546e-001
4.501231e+003,2.385918e-001
4.505088e+003,2.326057e-001
4.508946e+003,2.302657e-001
4.512803e+003,2.322945e-001
4.516660e+003,2.344603e-001
4.520517e+003,2.304247e-001
4.524374e+003,2.253215e-001
4.528231e+003,2.291580e-001
4.532088e+003,2.374282e-001
4.535945e+003,2.378861e-001
4.539802e+003,2.363000e-001
4.543660e+003,2.347034e-001
4.547517e+003,2.336339e-001
4.551374e+003,2.320629e-001
4.555231e+003,2.303326e-001
4.559088e+003,2.312992e-001
4.562945e+003,2.363154e-001
4.566802e+003,2.347154e-001
4.570659e+003,2.319267e-001
4.574516e+003,2.347474e-001
4.578374e+003,2.304759e-001
4.582230e+003,2.210157e-001
4.586087e+003,2.225219e-001
4.589945e+003,2.268234e-001
4.593802e+003,2.284798e-001
4.597659e+003,2.307028e-001
4.601516e+003,2.268596e-001
4.605373e+003,2.262037e-001
4.609230e+003,2.244179e-001
4.613087e+003,2.248237e-001
4.616944e+003,2.251619e-001
4.620801e+003,2.243199e-001
4.624659e+003,2.263608e-001
4.628516e+003,2.291521e-001
4.632373e+003,2.253247e-001
4.636230e+003,2.260675e-001
4.640087e+003,2.277991e-001
4.643944e+003,2.264716e-001
4.647801e+003,2.290794e-001
4.651658e+003,2.329193e-001
4.655515e+003,2.270496e-001
4.659373e+003,2.210677e-001
4.663229e+003,2.220865e-001
4.667086e+003,2.251678e-001
4.670944e+003,2.255502e-001
4.674801e+003,2.279085e-001
4.678658e+003,2.277508e-001
4.682515e+003,2.232583e-001
4.686372e+003,2.259023e-001
4.690229e+003,2.302096e-001
4.694086e+003,2.280997e-001
4.697943e+003,2.236222e-001
4.701800e+003,2.212196e-001
4.705658e+003,2.248600e-001
4.709515e+003,2.259672e-001
4.713372e+003,2.257130e-001
4.717229e+003,2.250030e-001
4.721086e+003,2.242509e-001
4.724943e+003,2.242209e-001
4.728800e+003,2.237607e-001
4.732657e+003,2.273762e-001
4.736514e+003,2.273202e-001
4.740372e+003,2.215668e-001
4.744229e+003,2.224981e-001
4.748085e+003,2.238833e-001
4.751943e+003,2.258338e-001
4.755800e+003,2.198482e-001
4.759657e+003,2.157250e-001
4.763514e+003,2.214527e-001
4.767371e+003,2.257196e-001
4.771228e+003,2.267471e-001
4.775085e+003,2.253389e-001
4.778942e+003,2.233609e-001
4.782799e+003,2.236248e-001
4.786657e+003,2.268272e-001
4.790514e+003,2.275260e-001
4.794371e+003,2.259431e-001
4.798228e+003,2.181778e-001
4.802085e+003,2.153733e-001
4.805942e+003,2.167918e-001
4.809799e+003,2.142148e-001
4.813656e+003,2.162832e-001
4.817513e+003,2.199942e-001
4.821371e+003,2.191098e-001
4.825228e+003,2.163878e-001
4.829084e+003,2.169285e-001
4.832942e+003,2.134440e-001
4.836799e+003,2.148605e-001
4.840656e+003,2.164059e-001
4.844513e+003,2.168752e-001
4.848370e+003,2.179829e-001
4.852227e+003,2.197643e-001
4.856084e+003,2.196769e-001
4.859941e+003,2.167170e-001
4.863798e+003,2.102086e-001
4.867656e+003,2.107009e-001
4.871513e+003,2.151047e-001
4.875370e+003,2.188195e-001
4.879227e+003,2.141253e-001
4.883084e+003,2.109169e-001
4.886941e+003,2.147671e-001
4.890798e+003,2.142845e-001
4.894655e+003,2.111986e-001
4.898512e+003,2.144195e-001
4.902370e+003,2.163780e-001
4.906227e+003,2.108613e-001
4.910083e+003,2.141233e-001
4.913941e+003,2.167186e-001
4.917798e+003,2.150119e-001
4.921655e+003,2.183786e-001
4.925512e+003,2.191913e-001
4.929369e+003,2.173889e-001
4.933226e+003,2.184524e-001
4.937083e+003,2.202545e-001
4.940940e+003,2.202652e-001
4.944797e+003,2.188047e-001
4.948655e+003,2.111518e-001
4.952512e+003,2.029496e-001
4.956369e+003,1.989647e-001
4.960226e+003,2.019594e-001
4.964083e+003,2.103695e-001
4.967940e+003,2.152891e-001
4.971797e+003,2.196385e-001
4.975654e+003,2.188625e-001
4.979511e+003,2.130939e-001
4.983369e+003,2.101751e-001
4.987226e+003,2.135610e-001
4.991083e+003,2.166134e-001
4.994940e+003,2.188879e-001
4.998797e+003,2.187595e-001
5.002654e+003,2.168439e-001
5.006511e+003,2.126065e-001
5.010368e+003,2.124697e-001
5.014225e+003,2.151630e-001
5.018083e+003,2.137983e-001
5.021939e+003,2.110783e-001
5.025796e+003,2.122789e-001
5.029654e+003,2.149110e-001
5.033511e+003,2.116381e-001
5.037368e+003,2.065190e-001
5.041225e+003,2.062880e-001
5.045082e+003,2.114575e-001
5.048939e+003,2.160477e-001
5.052796e+003,2.154325e-001
5.056653e+003,2.102174e-001
5.060510e+003,2.053951e-001
5.064368e+003,2.063937e-001
5.068225e+003,2.089999e-001
5.072082e+003,2.066094e-001
5.075939e+003,2.039479e-001
5.079796e+003,2.102771e-001
5.083653e+003,2.147265e-001
5.087510e+003,2.116904e-001
5.091367e+003,2.055862e-001
5.095224e+003,2.047285e-001
5.099082e+003,2.125289e-001
5.102938e+003,2.165267e-001
5.106795e+003,2.116352e-001
5.110653e+003,2.050352e-001
5.114510e+003,2.045310e-001
5.118367e+003,2.026570e-001
5.122224e+003,2.001844e-001
5.126081e+003,2.039754e-001
5.129938e+003,2.049795e-001
5.133795e+003,2.050998e-001
5.137652e+003,2.111083e-001
5.141509e+003,2.149506e-001
5.145367e+003,2.162748e-001
5.149224e+003,2.126952e-001
5.153081e+003,2.094809e-001
5.156938e+003,2.108354e-001
5.160795e+003,2.086713e-001
5.164652e+003,2.084801e-001
5.168509e+003,2.106944e-001
5.172366e+003,2.079581e-001
5.176223e+003,2.055449e-001
5.180081e+003,2.118701e-001
5.183938e+003,2.150422e-001
5.187794e+003,2.095095e-001
5.191652e+003,2.008251e-001
5.195509e+003,2.011148e-001
5.199366e+003,2.081591e-001
5.203223e+003,2.104786e-001
5.207080e+003,2.091426e-001
5.210937e+003,2.076770e-001
5.214794e+003,2.102834e-001
5.218651e+003,2.073181e-001
5.222508e+003,2.027224e-001
5.226366e+003,2.037898e-001
5.230223e+003,2.012710e-001
5.234080e+003,2.041158e-001
5.237937e+003,2.084384e-001
5.241794e+003,2.077321e-001
5.245651e+003,2.038369e-001
5.249508e+003,1.929895e-001
5.253365e+003,1.922109e-001
5.257222e+003,1.995548e-001
5.261080e+003,1.966261e-001
5.264937e+003,1.944276e-001
5.268793e+003,1.961466e-001
5.272651e+003,2.007734e-001
5.276508e+003,1.993151e-001
5.280365e+003,1.961567e-001
5.284222e+003,1.928774e-001
5.288079e+003,1.895020e-001
5.291936e+003,1.879818e-001
5.295793e+003,1.897574e-001
5.299650e+003,1.957103e-001
5.303507e+003,1.975707e-001
5.307365e+003,1.944456e-001
5.311222e+003,1.897559e-001
5.315079e+003,1.887278e-001
5.318936e+003,1.927650e-001
5.322793e+003,1.891509e-001
5.326650e+003,1.890688e-001
5.330507e+003,1.917948e-001
5.334364e+003,2.000200e-001
5.338221e+003,1.991408e-001
5.342079e+003,1.891459e-001
5.345936e+003,1.855201e-001
5.349792e+003,1.867644e-001
5.353650e+003,1.901574e-001
5.357507e+003,1.928632e-001
5.361364e+003,1.906278e-001
5.365221e+003,1.950028e-001
5.369078e+003,2.005406e-001
5.372935e+003,2.032018e-001
5.376792e+003,1.997690e-001
5.380649e+003,1.922716e-001
5.384506e+003,1.872815e-001
5.388364e+003,1.903574e-001
5.392221e+003,1.918144e-001
5.396078e+003,1.911927e-001
5.399935e+003,1.915924e-001
5.403792e+003,1.901409e-001
5.407649e+003,1.865671e-001
5.411506e+003,1.870392e-001
5.415363e+003,1.856622e-001
5.419220e+003,1.875822e-001
5.423078e+003,1.858071e-001
5.426935e+003,1.812069e-001
5.430792e+003,1.828208e-001
5.434649e+003,1.839323e-001
5.438506e+003,1.865198e-001
5.442363e+003,1.919892e-001
5.446220e+003,1.962214e-001
5.450077e+003,1.977620e-001
5.453934e+003,1.974054e-001
5.457792e+003,1.933238e-001
5.461648e+003,1.895845e-001
5.465505e+003,1.866356e-001
5.469363e+003,1.865559e-001
5.473220e+003,1.833842e-001
5.477077e+003,1.827103e-001
5.480934e+003,1.883358e-001
5.484791e+003,1.879921e-001
5.488648e+003,1.842571e-001
5.492505e+003,1.864313e-001
5.496362e+003,1.896733e-001
5.500219e+003,1.808012e-001
5.504077e+003,1.837203e-001
5.507934e+003,1.847785e-001
5.511791e+003,1.802559e-001
5.515648e+003,1.832531e-001
5.519505e+003,1.848949e-001
5.523362e+003,1.829603e-001
5.527219e+003,1.812261e-001
5.531076e+003,1.886664e-001
5.534933e+003,1.926172e-001
5.538791e+003,1.871574e-001
5.542647e+003,1.879715e-001
5.546504e+003,1.927026e-001
5.550362e+003,1.941973e-001
5.554219e+003,1.878798e-001
5.558076e+003,1.824341e-001
5.561933e+003,1.818536e-001
5.565790e+003,1.884663e-001
5.569647e+003,1.896531e-001
5.573504e+003,1.830680e-001
5.577361e+003,1.793418e-001
5.581218e+003,1.810366e-001
5.585076e+003,1.816358e-001
5.588933e+003,1.822802e-001
5.592790e+003,1.815937e-001
5.596647e+003,1.813194e-001
5.600504e+003,1.821195e-001
5.604361e+003,1.835424e-001
5.608218e+003,1.866000e-001
5.612075e+003,1.893639e-001
5.615932e+003,1.934323e-001
5.619790e+003,1.872118e-001
5.623646e+003,1.801001e-001
5.627503e+003,1.839827e-001
5.631361e+003,1.929724e-001
5.635218e+003,1.890759e-001
5.639075e+003,1.813047e-001
5.642932e+003,1.824148e-001
5.646789e+003,1.813652e-001
5.650646e+003,1.783611e-001
5.654503e+003,1.785727e-001
5.658360e+003,1.788362e-001
5.662217e+003,1.831184e-001
5.666075e+003,1.876587e-001
5.669932e+003,1.816107e-001
5.673789e+003,1.811030e-001
5.677646e+003,1.887158e-001
5.681503e+003,1.923527e-001
5.685360e+003,1.886338e-001
5.689217e+003,1.809505e-001
5.693074e+003,1.765207e-001
5.696931e+003,1.759042e-001
5.700789e+003,1.788994e-001
5.704646e+003,1.797769e-001
5.708502e+003,1.775568e-001
5.712360e+003,1.790082e-001
5.716217e+003,1.820532e-001
5.720074e+003,1.864958e-001
5.723931e+003,1.815095e-001
5.727788e+003,1.779881e-001
5.731645e+003,1.771190e-001
5.735502e+003,1.726244e-001
5.739359e+003,1.740398e-001
5.743216e+003,1.784685e-001
5.747074e+003,1.818409e-001
5.750931e+003,1.890318e-001
5.754788e+003,1.898897e-001
5.758645e+003,1.845411e-001
5.762502e+003,1.878915e-001
5.766359e+003,1.892968e-001
5.770216e+003,1.885250e-001
5.774073e+003,1.858958e-001
5.777930e+003,1.777283e-001
5.781788e+003,1.744869e-001
5.785645e+003,1.721860e-001
5.789501e+003,1.756648e-001
5.793359e+003,1.795386e-001
5.797216e+003,1.757235e-001
5.801073e+003,1.853188e-001
5.804930e+003,1.908894e-001
5.808787e+003,1.843861e-001
5.812644e+003,1.814268e-001
5.816501e+003,1.841360e-001
5.820358e+003,1.821264e-001
5.824215e+003,1.805085e-001
5.828073e+003,1.804062e-001
5.831930e+003,1.852307e-001
5.835787e+003,1.957217e-001
5.839644e+003,1.912966e-001
5.843501e+003,1.835774e-001
5.847358e+003,1.837867e-001
5.851215e+003,1.872412e-001
5.855072e+003,1.868421e-001
5.858929e+003,1.843431e-001
5.862787e+003,1.771165e-001
5.866644e+003,1.798041e-001
5.870500e+003,1.833398e-001
5.874358e+003,1.758517e-001
5.878215e+003,1.790000e-001
5.882072e+003,1.883549e-001
5.885929e+003,1.775347e-001
5.889786e+003,1.699337e-001
5.893643e+003,1.847490e-001
5.897500e+003,1.971618e-001
5.901357e+003,1.928893e-001
5.905214e+003,1.900137e-001
5.909072e+003,1.978177e-001
5.912929e+003,1.935425e-001
5.916786e+003,1.809340e-001
5.920643e+003,1.838880e-001
5.924500e+003,1.906164e-001
5.928357e+003,1.883796e-001
5.932214e+003,1.761007e-001
5.936071e+003,1.727691e-001
5.939928e+003,1.788479e-001
5.943786e+003,1.817958e-001
5.947643e+003,1.846444e-001
5.951500e+003,1.838967e-001
5.955357e+003,1.835082e-001
5.959214e+003,1.871318e-001
5.963071e+003,1.942729e-001
5.966928e+003,1.973179e-001
5.970785e+003,1.863213e-001
5.974642e+003,1.845459e-001
5.978500e+003,1.947632e-001
5.982356e+003,1.951906e-001
5.986213e+003,1.902688e-001
5.990071e+003,1.881975e-001
5.993928e+003,1.839974e-001
5.997785e+003,1.812099e-001
6.001642e+003,1.803332e-001
6.005499e+003,1.801354e-001
6.009356e+003,1.874627e-001
6.013213e+003,1.949549e-001
6.017070e+003,1.996159e-001
6.020927e+003,1.924817e-001
6.024785e+003,1.869834e-001
6.028642e+003,1.892557e-001
6.032499e+003,1.866939e-001
6.036356e+003,1.839226e-001
6.040213e+003,1.861161e-001
6.044070e+003,1.871436e-001
6.047927e+003,1.919408e-001
6.051784e+003,1.973488e-001
6.055641e+003,1.987753e-001
6.059499e+003,1.925468e-001
6.063355e+003,1.931802e-001
6.067212e+003,1.908616e-001
6.071070e+003,1.915378e-001
6.074927e+003,1.940203e-001
6.078784e+003,1.947193e-001
6.082641e+003,1.915017e-001
6.086498e+003,1.912261e-001
6.090355e+003,1.940571e-001
6.094212e+003,1.936418e-001
6.098069e+003,2.024358e-001
6.101926e+003,2.011063e-001
6.105784e+003,1.847788e-001
6.109641e+003,1.848452e-001
6.113498e+003,1.936591e-001
6.117355e+003,1.911247e-001
6.121212e+003,1.942046e-001
6.125069e+003,1.943794e-001
6.128926e+003,1.896024e-001
6.132783e+003,1.874912e-001
6.136640e+003,1.861836e-001
6.140498e+003,1.934354e-001
6.144354e+003,1.977446e-001
6.148211e+003,1.944056e-001
6.152069e+003,1.929194e-001
6.155926e+003,1.942417e-001
6.159783e+003,1.966166e-001
6.163640e+003,1.982903e-001
6.167497e+003,2.001777e-001
6.171354e+003,1.977300e-001
6.175211e+003,1.983198e-001
6.179068e+003,2.034997e-001
6.182925e+003,1.982440e-001
6.186783e+003,1.929976e-001
6.190640e+003,1.956482e-001
6.194497e+003,1.939137e-001
6.198354e+003,1.928329e-001
6.202211e+003,1.905481e-001
6.206068e+003,1.960193e-001
6.209925e+003,2.013646e-001
6.213782e+003,1.947296e-001
6.217639e+003,1.942744e-001
6.221497e+003,1.927685e-001
6.225354e+003,1.869953e-001
6.229210e+003,1.876986e-001
6.233068e+003,1.892957e-001
6.236925e+003,1.870116e-001
6.240782e+003,1.866730e-001
6.244639e+003,2.014455e-001
6.248496e+003,2.152978e-001
6.252353e+003,2.195957e-001
6.256210e+003,2.121154e-001
6.260067e+003,1.997791e-001
6.263924e+003,1.931467e-001
6.267782e+003,1.954466e-001
6.271639e+003,2.020145e-001
6.275496e+003,2.061583e-001
6.279353e+003,2.059221e-001
6.283210e+003,2.045584e-001
6.287067e+003,2.015181e-001
6.290924e+003,1.989862e-001
6.294781e+003,2.006865e-001
6.298638e+003,2.036399e-001
6.302496e+003,1.970035e-001
6.306353e+003,1.913727e-001
6.310209e+003,1.893307e-001
6.314067e+003,1.991925e-001
6.317924e+003,2.026287e-001
6.321781e+003,2.040173e-001
6.325638e+003,2.118413e-001
6.329495e+003,2.147826e-001
6.333352e+003,2.174610e-001
6.337209e+003,2.103419e-001
6.341066e+003,2.064669e-001
6.344923e+003,2.072707e-001
6.348780e+003,2.093525e-001
6.352638e+003,2.212296e-001
6.356495e+003,2.227601e-001
6.360352e+003,2.015575e-001
6.364209e+003,2.019375e-001
6.368066e+003,2.190631e-001
6.371923e+003,2.155045e-001
6.375780e+003,2.062831e-001
6.379637e+003,2.044490e-001
6.383494e+003,2.059105e-001
6.387352e+003,2.176860e-001
6.391208e+003,2.229791e-001
6.395065e+003,2.175460e-001
6.398923e+003,2.051035e-001
6.402780e+003,1.970114e-001
6.406637e+003,2.062833e-001
6.410494e+003,2.105475e-001
6.414351e+003,2.073511e-001
6.418208e+003,2.015318e-001
6.422065e+003,1.908389e-001
6.425922e+003,1.883678e-001
6.429779e+003,2.058409e-001
6.433637e+003,2.137227e-001
6.437494e+003,2.066456e-001
6.441351e+003,2.050930e-001
6.445208e+003,2.001733e-001
6.449065e+003,2.046089e-001
6.452922e+003,2.191018e-001
6.456779e+003,2.220404e-001
6.460636e+003,2.183252e-001
6.464493e+003,2.099401e-001
6.468351e+003,1.967078e-001
6.472208e+003,2.054691e-001
6.476064e+003,2.077282e-001
6.479922e+003,1.984918e-001
6.483779e+003,1.988179e-001
6.487636e+003,2.048439e-001
6.491493e+003,2.055905e-001
6.495350e+003,2.084785e-001
6.499207e+003,2.060865e-001
6.503064e+003,2.094330e-001
6.506921e+003,2.190346e-001
6.510778e+003,2.214361e-001
6.514636e+003,2.246998e-001
6.518493e+003,2.135402e-001
6.522350e+003,2.059884e-001
6.526207e+003,2.183129e-001
6.530064e+003,2.202624e-001
6.533921e+003,2.056406e-001
6.537778e+003,1.963553e-001
6.541635e+003,1.983768e-001
6.545492e+003,2.014454e-001
6.549350e+003,2.077908e-001
6.553207e+003,2.131309e-001
6.557063e+003,2.180850e-001
6.560921e+003,2.241722e-001
6.564778e+003,2.250540e-001
6.568635e+003,2.192158e-001
6.572492e+003,2.108659e-001
6.576349e+003,2.170251e-001
6.580206e+003,2.239080e-001
6.584063e+003,2.178045e-001
6.587920e+003,2.013307e-001
6.591777e+003,2.041550e-001
6.595635e+003,2.158553e-001
6.599492e+003,2.213854e-001
6.603349e+003,2.161613e-001
6.607206e+003,2.068232e-001
6.611063e+003,2.088815e-001
6.614920e+003,2.160513e-001
6.618777e+003,2.169671e-001
6.622634e+003,2.087559e-001
6.626491e+003,2.171766e-001
6.630349e+003,2.191648e-001
6.634206e+003,2.082907e-001
6.638063e+003,2.102052e-001
6.641920e+003,2.241372e-001
6.645777e+003,2.349642e-001
6.649634e+003,2.348623e-001
6.653491e+003,2.147355e-001
6.657348e+003,2.108386e-001
6.661205e+003,2.156841e-001
6.665063e+003,2.203009e-001
6.668919e+003,2.185872e-001
6.672776e+003,2.214232e-001
6.676634e+003,2.388848e-001
6.680491e+003,2.337027e-001
6.684348e+003,2.216993e-001
6.688205e+003,2.214849e-001
6.692062e+003,2.154736e-001
6.695919e+003,2.261066e-001
6.699776e+003,2.266415e-001
6.703633e+003,2.123242e-001
6.707490e+003,2.011245e-001
6.711348e+003,2.018712e-001
6.715205e+003,2.217134e-001
6.719062e+003,2.487176e-001
6.722919e+003,2.366743e-001
6.726776e+003,2.162476e-001
6.730633e+003,2.188218e-001
6.734490e+003,2.345494e-001
6.738347e+003,2.373325e-001
6.742204e+003,2.433061e-001
6.746062e+003,2.436005e-001
6.749918e+003,2.184669e-001
6.753775e+003,2.153919e-001
6.757633e+003,2.262750e-001
6.761490e+003,2.342515e-001
6.765347e+003,2.386927e-001
6.769204e+003,2.388677e-001
6.773061e+003,2.390490e-001
6.776918e+003,2.537236e-001
6.780775e+003,2.433203e-001
6.784632e+003,2.144581e-001
6.788489e+003,2.195588e-001
6.792347e+003,2.343985e-001
6.796204e+003,2.227253e-001
6.800061e+003,2.173818e-001
6.803918e+003,2.361665e-001
6.807775e+003,2.423778e-001
6.811632e+003,2.283071e-001
6.815489e+003,2.245862e-001
6.819346e+003,2.318459e-001
6.823203e+003,2.428092e-001
6.827061e+003,2.349061e-001
6.830917e+003,2.414022e-001
6.834774e+003,2.531391e-001
6.838632e+003,2.388044e-001
6.842489e+003,2.152504e-001
6.846346e+003,2.242758e-001
6.850203e+003,2.283596e-001
6.854060e+003,2.198295e-001
6.857917e+003,2.404706e-001
6.861774e+003,2.540585e-001
6.865631e+003,2.190455e-001
6.869488e+003,2.148222e-001
6.873346e+003,2.231328e-001
6.877203e+003,2.202069e-001
6.881060e+003,2.195683e-001
6.884917e+003,2.298039e-001
6.888774e+003,2.388185e-001
6.892631e+003,2.519035e-001
6.896488e+003,2.502605e-001
6.900345e+003,2.557450e-001
6.904202e+003,2.690140e-001
6.908060e+003,2.601160e-001
6.911917e+003,2.454022e-001
6.915773e+003,2.391245e-001
6.919631e+003,2.237007e-001
6.923488e+003,2.210036e-001
6.927345e+003,2.156933e-001
6.931202e+003,2.316845e-001
6.935059e+003,2.458032e-001
6.938916e+003,2.273465e-001
6.942773e+003,2.292234e-001
6.946630e+003,2.330774e-001
6.950487e+003,2.264827e-001
6.954345e+003,2.501534e-001
6.958202e+003,2.679725e-001
6.962059e+003,2.616514e-001
6.965916e+003,2.568772e-001
6.969773e+003,2.621420e-001
6.973630e+003,2.560928e-001
6.977487e+003,2.293063e-001
6.981344e+003,2.151391e-001
6.985201e+003,2.352668e-001
6.989059e+003,2.685878e-001
6.992916e+003,2.675156e-001
6.996772e+003,2.612293e-001
7.000630e+003,2.720455e-001
7.004487e+003,2.577611e-001
7.008344e+003,2.311424e-001
7.012201e+003,2.247787e-001
7.016058e+003,2.290891e-001
7.019915e+003,2.144092e-001
7.023772e+003,2.122612e-001
7.027629e+003,2.408389e-001
7.031486e+003,2.496572e-001
7.035344e+003,2.546904e-001
7.039201e+003,2.546605e-001
7.043058e+003,2.496304e-001
7.046915e+003,2.415284e-001
7.050772e+003,2.480300e-001
7.054629e+003,2.629277e-001
7.058486e+003,2.489748e-001
7.062343e+003,2.213113e-001
7.066200e+003,2.186091e-001
7.070058e+003,2.382421e-001
7.073915e+003,2.396146e-001
7.077771e+003,2.269197e-001
7.081629e+003,2.447622e-001
7.085486e+003,2.420095e-001
7.089343e+003,2.330673e-001
7.093200e+003,2.536920e-001
7.097057e+003,2.578122e-001
7.100914e+003,2.494307e-001
7.104771e+003,2.723689e-001
7.108628e+003,2.589895e-001
7.112485e+003,2.360617e-001
7.116343e+003,2.448644e-001
7.120200e+003,2.548490e-001
7.124057e+003,2.269105e-001
7.127914e+003,2.083546e-001
7.131771e+003,2.165481e-001
7.135628e+003,2.306937e-001
7.139485e+003,2.316791e-001
7.143342e+003,2.133575e-001
7.147199e+003,2.148932e-001
7.151057e+003,2.366176e-001
7.154914e+003,2.370532e-001
7.158771e+003,2.385890e-001
7.162628e+003,2.500159e-001
7.166485e+003,2.464787e-001
7.170342e+003,2.392864e-001
7.174199e+003,2.248913e-001
7.178056e+003,2.145558e-001
7.181913e+003,2.212369e-001
7.185771e+003,2.391310e-001
7.189627e+003,2.585248e-001
7.193484e+003,2.831901e-001
7.197342e+003,2.704573e-001
7.201199e+003,2.485600e-001
7.205056e+003,2.480940e-001
7.208913e+003,2.465093e-001
7.212770e+003,2.565347e-001
7.216627e+003,2.512453e-001
7.220484e+003,2.472069e-001
7.224341e+003,2.443277e-001
7.228198e+003,2.506909e-001
7.232056e+003,2.565077e-001
7.235913e+003,2.675105e-001
7.239770e+003,2.493404e-001
7.243627e+003,2.447412e-001
7.247484e+003,2.539690e-001
7.251341e+003,2.416558e-001
7.255198e+003,2.283024e-001
7.259055e+003,2.423294e-001
7.262912e+003,2.687511e-001
7.266770e+003,2.770371e-001
7.270626e+003,2.559556e-001
7.274483e+003,2.382906e-001
7.278341e+003,2.334996e-001
7.282198e+003,2.089062e-001
7.286055e+003,2.234413e-001
7.289912e+003,2.278700e-001
7.293769e+003,2.062334e-001
7.297626e+003,2.105157e-001
7.301483e+003,2.445432e-001
7.305340e+003,2.424591e-001
7.309197e+003,2.242150e-001
7.313055e+003,2.115473e-001
7.316912e+003,2.162549e-001
7.320769e+003,2.394861e-001
7.324626e+003,2.607583e-001
7.328483e+003,2.465386e-001
7.332340e+003,2.158922e-001
7.336197e+003,1.935080e-001
7.340054e+003,1.989237e-001
7.343911e+003,2.201982e-001
7.347769e+003,2.358312e-001
7.351625e+003,2.366697e-001
7.355482e+003,2.223881e-001
7.359340e+003,2.112337e-001
7.363197e+003,2.005368e-001
7.367054e+003,1.910650e-001
7.370911e+003,2.054104e-001
7.374768e+003,2.230200e-001
7.378625e+003,2.305267e-001
7.382482e+003,2.296678e-001
7.386339e+003,2.182231e-001
7.390196e+003,2.089298e-001
7.394054e+003,1.957333e-001
7.397911e+003,2.193813e-001
7.401768e+003,2.361559e-001
7.405625e+003,2.321876e-001
7.409482e+003,2.054938e-001
7.413339e+003,1.779305e-001
7.417196e+003,1.865174e-001
7.421053e+003,2.028962e-001
7.424910e+003,2.144675e-001
7.428768e+003,2.059157e-001
7.432625e+003,1.965456e-001
7.436481e+003,1.967989e-001
7.440339e+003,1.615035e-001
7.444196e+003,1.746952e-001
7.448053e+003,2.075918e-001
7.451910e+003,2.244238e-001
7.455767e+003,2.413705e-001
7.459624e+003,2.123084e-001
7.463481e+003,1.632776e-001
7.467338e+003,1.796795e-001
7.471195e+003,1.939940e-001
7.475053e+003,1.673498e-001
7.478910e+003,1.927715e-001
7.482767e+003,2.193368e-001
7.486624e+003,2.270714e-001
7.490481e+003,2.381220e-001
7.494338e+003,2.052860e-001
7.498195e+003,1.690555e-001
7.502052e+003,1.348451e-001
7.505909e+003,1.175018e-001
7.509767e+003,1.571995e-001
7.513624e+003,1.825702e-001
7.517480e+003,1.822011e-001
7.521338e+003,2.182092e-001
7.525195e+003,2.572015e-001
7.529052e+003,2.362576e-001
7.532909e+003,2.056612e-001
7.536766e+003,1.918198e-001
7.540623e+003,1.911907e-001
7.544480e+003,2.163813e-001
7.548337e+003,2.295531e-001
7.552194e+003,1.879293e-001
7.556052e+003,1.752110e-001
7.559909e+003,1.930248e-001
7.563766e+003,2.059351e-001
7.567623e+003,2.120334e-001
7.571480e+003,1.904048e-001
7.575337e+003,1.491958e-001
7.579194e+003,1.601431e-001
7.583051e+003,1.798574e-001
7.586908e+003,1.691604e-001
7.590766e+003,1.781311e-001
7.594623e+003,2.265256e-001
7.598479e+003,2.069523e-001
7.602337e+003,1.672942e-001
7.606194e+003,1.630869e-001
7.610051e+003,1.957585e-001
7.613908e+003,2.059672e-001
7.617765e+003,1.870907e-001
7.621622e+003,1.988463e-001
7.625479e+003,2.262388e-001
7.629336e+003,1.913848e-001
7.633193e+003,1.663394e-001
7.637051e+003,1.931327e-001
7.640908e+003,2.488306e-001
7.644765e+003,2.424730e-001
7.648622e+003,2.104444e-001
7.652479e+003,2.458442e-001
7.656336e+003,2.491013e-001
7.660193e+003,2.311454e-001
7.664050e+003,2.031184e-001
7.667907e+003,2.176080e-001
7.671765e+003,2.206608e-001
7.675622e+003,1.596793e-001
7.679479e+003,1.558847e-001
7.683336e+003,1.807003e-001
7.687193e+003,2.238424e-001
7.691050e+003,2.745024e-001
7.694907e+003,2.647803e-001
7.698764e+003,2.190643e-001
7.702621e+003,2.056310e-001
7.706479e+003,2.385484e-001
7.710335e+003,2.500536e-001
7.714192e+003,1.908470e-001
7.718050e+003,1.081576e-001
7.721907e+003,1.088719e-001
7.725764e+003,1.805573e-001
7.729621e+003,2.304914e-001
7.733478e+003,1.948467e-001
7.737335e+003,1.858914e-001
7.741192e+003,2.067850e-001
7.745049e+003,1.904304e-001
7.748906e+003,1.681460e-001
7.752764e+003,2.137767e-001
7.756621e+003,2.116820e-001
7.760478e+003,1.847278e-001
7.764335e+003,1.393472e-001
7.768192e+003,1.267200e-001
7.772049e+003,1.674467e-001
7.775906e+003,1.661420e-001
7.779763e+003,1.329060e-001
7.783620e+003,1.148472e-001
7.787478e+003,1.380981e-001
7.791334e+003,1.734798e-001
7.795191e+003,1.562650e-001
7.799049e+003,2.088780e-001
7.802906e+003,2.472677e-001
7.806763e+003,1.727124e-001
7.810620e+003,1.005247e-001
7.814477e+003,1.315025e-001
7.818334e+003,1.885353e-001
7.822191e+003,1.834693e-001
7.826048e+003,1.463405e-001
7.829905e+003,1.416707e-001
7.833763e+003,1.809067e-001
7.837620e+003,2.265179e-001
7.841477e+003,2.079260e-001
7.845334e+003,1.854852e-001
7.849191e+003,2.098958e-001
7.853048e+003,2.268908e-001
7.856905e+003,2.224230e-001
7.860762e+003,2.371235e-001
7.864619e+003,2.319730e-001
7.868477e+003,1.898955e-001
7.872333e+003,1.236762e-001
7.876190e+003,1.350783e-001
7.880048e+003,1.616599e-001
7.883905e+003,2.224591e-001
7.887762e+003,2.678410e-001
7.891619e+003,2.817886e-001
7.895476e+003,3.010633e-001
7.899333e+003,2.722002e-001
7.903190e+003,2.462007e-001
7.907047e+003,1.896304e-001
7.910904e+003,1.513904e-001
7.914762e+003,1.665627e-001
7.918619e+003,1.885682e-001
7.922476e+003,1.853153e-001
7.926333e+003,1.720715e-001
7.930190e+003,1.782243e-001
7.934047e+003,1.446239e-001
7.937904e+003,1.196795e-001
7.941761e+003,1.426658e-001
7.945618e+003,1.503655e-001
7.949476e+003,1.529746e-001
7.953333e+003,2.195676e-001
7.957189e+003,2.101366e-001
7.961047e+003,2.258862e-001
7.964904e+003,2.973510e-001
7.968761e+003,2.549324e-001
7.972618e+003,1.940775e-001
7.976475e+003,1.673032e-001
7.980332e+003,1.075564e-001
7.984189e+003,1.064912e-001
7.988046e+003,1.381978e-001
7.991903e+003,1.897057e-001
7.995761e+003,1.590317e-001
7.999618e+003,1.695503e-001
