4.011380e+002,6.000000e+000
4.049951e+002,6.000000e+000
4.088522e+002,6.000000e+000
4.127093e+002,6.000000e+000
4.165664e+002,6.000000e+000
4.204235e+002,6.000000e+000
4.242806e+002,-5.165831e-003
4.281377e+002,-4.519687e-001
4.319948e+002,6.000000e+000
4.358519e+002,-3.570883e-001
4.397090e+002,5.252200e-001
4.435661e+002,2.030723e-002
4.474232e+002,6.000000e+000
4.512803e+002,6.000000e+000
4.551374e+002,2.754324e-001
4.589945e+002,-3.794827e-001
4.628516e+002,-8.075895e-002
4.667087e+002,-2.351144e-001
4.705658e+002,-3.304283e-001
4.744229e+002,-5.807165e-001
4.782800e+002,6.000000e+000
4.821371e+002,3.511201e-001
4.859941e+002,-5.081375e-002
4.898513e+002,-1.885285e-001
4.937083e+002,-1.017177e+000
4.975654e+002,6.000000e+000
5.014225e+002,-4.354856e-001
5.052796e+002,-4.678420e-001
5.091367e+002,-5.054396e-001
5.129938e+002,6.000000e+000
5.168509e+002,6.000000e+000
5.207080e+002,6.000000e+000
5.245651e+002,2.290203e-001
5.284222e+002,8.075643e-001
5.322793e+002,6.000000e+000
5.361364e+002,6.000000e+000
5.399935e+002,2.498546e-002
5.438506e+002,-2.680067e-001
5.477077e+002,-9.315123e-001
5.515648e+002,-7.352244e-002
5.554219e+002,7.390304e-001
5.592790e+002,6.000000e+000
5.631361e+002,6.000000e+000
5.669932e+002,6.000000e+000
5.708503e+002,6.000000e+000
5.747074e+002,6.000000e+000
5.785645e+002,-1.834651e-001
5.824216e+002,6.000000e+000
5.862787e+002,-1.494079e-001
5.901357e+002,6.000000e+000
5.939929e+002,-6.326759e-001
5.978499e+002,-2.305483e-001
6.017070e+002,-4.187842e-001
6.055641e+002,6.327455e-001
6.094212e+002,6.000000e+000
6.132783e+002,-6.092128e-001
6.171354e+002,-2.456796e+000
6.209925e+002,6.000000e+000
6.248496e+002,-7.018557e-001
6.287067e+002,6.000000e+000
6.325638e+002,6.000000e+000
6.364209e+002,2.103940e-001
6.402780e+002,6.000000e+000
6.441351e+002,1.360537e+000
6.479922e+002,6.000000e+000
6.518493e+002,6.000000e+000
6.557064e+002,-6.289621e-001
6.595635e+002,-6.929750e-001
6.634205e+002,6.000000e+000
6.672777e+002,-9.616036e-001
6.711348e+002,-1.792679e-001
6.749918e+002,6.000000e+000
6.788490e+002,6.000000e+000
6.827061e+002,6.000000e+000
6.865631e+002,-4.339453e-001
6.904203e+002,6.000000e+000
6.942773e+002,6.000000e+000
6.981344e+002,6.000000e+000
7.019916e+002,6.535435e-002
7.058486e+002,3.110652e-001
7.097057e+002,2.695101e-001
7.135629e+002,-4.546085e-001
7.174199e+002,-1.183466e+000
7.212770e+002,6.000000e+000
7.251342e+002,1.096148e+000
7.289912e+002,6.000000e+000
7.328483e+002,3.296052e-001
7.367054e+002,6.000000e+000
7.405625e+002,6.915362e-001
7.444196e+002,6.000000e+000
7.482767e+002,6.000000e+000
7.521338e+002,-1.422101e+000
7.559908e+002,1.304232e-001
7.598480e+002,-6.051142e-001
7.637051e+002,-1.747526e+000
7.675621e+002,-2.620720e-001
7.714193e+002,6.000000e+000
7.752764e+002,1.380698e-001
7.791334e+002,-6.961614e-001
7.829905e+002,-6.324701e-001
7.868477e+002,6.000000e+000
7.907047e+002,4.552058e-001
7.945618e+002,6.000000e+000
7.984189e+002,6.000000e+000
8.022760e+002,6.000000e+000
8.061331e+002,6.000000e+000
8.099902e+002,6.000000e+000
8.138473e+002,6.000000e+000
8.177044e+002,6.000000e+000
8.215615e+002,6.000000e+000
8.254186e+002,6.000000e+000
8.292757e+002,6.000000e+000
8.331328e+002,6.000000e+000
8.369899e+002,6.000000e+000
8.408470e+002,6.000000e+000
8.447041e+002,6.000000e+000
8.485612e+002,1.070292e+000
8.524183e+002,1.393950e+000
8.562754e+002,6.000000e+000
8.601324e+002,6.000000e+000
8.639896e+002,2.108353e+000
8.678467e+002,1.458191e+000
8.717037e+002,1.859197e+000
8.755609e+002,2.026809e+000
8.794180e+002,1.459929e+000
8.832750e+002,1.452772e+000
8.871321e+002,1.414960e+000
8.909893e+002,2.232977e+000
8.948463e+002,1.553507e+000
8.987034e+002,1.385863e+000
9.025605e+002,1.787957e+000
9.064176e+002,2.006056e+000
9.102747e+002,1.774655e+000
9.141318e+002,1.569291e+000
9.179889e+002,1.418454e+000
9.218461e+002,1.580806e+000
9.257031e+002,1.671237e+000
9.295602e+002,2.376544e+000
9.334174e+002,1.797154e+000
9.372744e+002,1.363811e+000
9.411315e+002,1.491648e+000
9.449886e+002,2.345870e+000
9.488457e+002,6.000000e+000
9.527028e+002,2.223279e+000
9.565599e+002,1.911954e+000
9.604170e+002,1.826832e+000
9.642740e+002,1.696809e+000
9.681312e+002,2.089480e+000
9.719883e+002,2.145653e+000
9.758453e+002,1.793462e+000
9.797025e+002,1.853135e+000
9.835596e+002,1.988997e+000
9.874166e+002,2.167714e+000
9.912738e+002,6.000000e+000
9.951309e+002,6.000000e+000
9.989879e+002,3.025308e+000
1.002845e+003,2.417376e+000
1.006702e+003,2.036271e+000
1.010559e+003,1.959036e+000
1.014416e+003,1.960054e+000
1.018273e+003,2.023512e+000
1.022130e+003,1.972616e+000
1.025988e+003,1.792537e+000
1.029845e+003,1.801146e+000
1.033702e+003,1.756914e+000
1.037559e+003,1.713533e+000
1.041416e+003,1.770926e+000
1.045273e+003,1.865077e+000
1.049130e+003,1.785650e+000
1.052987e+003,1.749832e+000
1.056844e+003,1.760057e+000
1.060702e+003,1.663224e+000
1.064559e+003,1.628572e+000
1.068416e+003,1.747938e+000
1.072273e+003,1.668300e+000
1.076130e+003,1.579319e+000
1.079987e+003,1.603615e+000
1.083844e+003,1.655365e+000
1.087701e+003,1.557181e+000
1.091558e+003,1.526746e+000
1.095415e+003,1.615437e+000
1.099272e+003,1.625057e+000
1.103130e+003,1.522454e+000
1.106987e+003,1.455892e+000
1.110844e+003,1.447484e+000
1.114701e+003,1.481602e+000
1.118558e+003,1.550604e+000
1.122415e+003,1.574590e+000
1.126272e+003,1.489604e+000
1.130129e+003,1.465890e+000
1.133986e+003,1.427824e+000
1.137843e+003,1.400219e+000
1.141701e+003,1.435664e+000
1.145558e+003,1.499958e+000
1.149415e+003,1.554470e+000
1.153272e+003,1.493158e+000
1.157129e+003,1.466972e+000
1.160986e+003,1.447271e+000
1.164843e+003,1.455716e+000
1.168700e+003,1.515710e+000
1.172557e+003,1.520280e+000
1.176414e+003,1.480078e+000
1.180271e+003,1.439129e+000
1.184129e+003,1.437005e+000
1.187986e+003,1.439010e+000
1.191843e+003,1.380803e+000
1.195700e+003,1.377461e+000
1.199557e+003,1.402305e+000
1.203414e+003,1.337271e+000
1.207271e+003,1.273706e+000
1.211128e+003,1.254691e+000
1.214985e+003,1.215053e+000
1.218842e+003,1.161365e+000
1.222699e+003,1.107566e+000
1.226557e+003,1.029756e+000
1.230414e+003,9.562793e-001
1.234271e+003,9.118102e-001
1.238128e+003,8.691480e-001
1.241985e+003,8.221185e-001
1.245842e+003,7.855378e-001
1.249699e+003,7.506250e-001
1.253556e+003,7.153773e-001
1.257413e+003,6.884739e-001
1.261271e+003,6.708421e-001
1.265128e+003,6.553471e-001
1.268985e+003,6.332316e-001
1.272842e+003,6.142194e-001
1.276699e+003,5.979162e-001
1.280556e+003,5.829325e-001
1.284413e+003,5.681745e-001
1.288270e+003,5.556617e-001
1.292127e+003,5.459799e-001
1.295984e+003,5.279927e-001
1.299841e+003,5.104647e-001
1.303698e+003,4.973611e-001
1.307556e+003,4.919130e-001
1.311413e+003,4.837491e-001
1.315270e+003,4.732821e-001
1.319127e+003,4.656195e-001
1.322984e+003,4.622490e-001
1.326841e+003,4.553945e-001
1.330698e+003,4.446956e-001
1.334555e+003,4.364854e-001
1.338412e+003,4.312673e-001
1.342270e+003,4.231895e-001
1.346127e+003,4.235912e-001
1.349984e+003,4.279264e-001
1.353841e+003,4.364924e-001
1.357698e+003,4.417143e-001
1.361555e+003,4.427352e-001
1.365412e+003,4.417094e-001
1.369269e+003,4.477398e-001
1.373126e+003,4.578297e-001
1.376983e+003,4.653952e-001
1.380840e+003,4.709839e-001
1.384698e+003,4.832708e-001
1.388555e+003,4.945862e-001
1.392412e+003,5.010319e-001
1.396269e+003,5.152883e-001
1.400126e+003,5.293952e-001
1.403983e+003,5.493190e-001
1.407840e+003,5.695399e-001
1.411697e+003,5.802532e-001
1.415554e+003,5.931301e-001
1.419411e+003,6.077136e-001
1.423269e+003,6.210285e-001
1.427126e+003,6.251780e-001
1.430983e+003,6.276277e-001
1.434840e+003,6.294215e-001
1.438697e+003,6.257713e-001
1.442554e+003,6.239805e-001
1.446411e+003,6.205159e-001
1.450268e+003,6.124828e-001
1.454125e+003,5.989463e-001
1.457982e+003,5.837787e-001
1.461839e+003,5.769926e-001
1.465697e+003,5.742267e-001
1.469554e+003,5.702787e-001
1.473411e+003,5.668033e-001
1.477268e+003,5.718300e-001
1.481125e+003,5.754781e-001
1.484982e+003,5.828129e-001
1.488839e+003,5.992617e-001
1.492696e+003,6.103285e-001
1.496553e+003,6.190962e-001
1.500411e+003,6.294165e-001
1.504268e+003,6.359761e-001
1.508125e+003,6.426436e-001
1.511982e+003,6.434718e-001
1.515839e+003,6.380440e-001
1.519696e+003,6.326562e-001
1.523553e+003,6.229607e-001
1.527410e+003,6.096732e-001
1.531267e+003,5.939738e-001
1.535124e+003,5.804230e-001
1.538981e+003,5.683313e-001
1.542839e+003,5.541832e-001
1.546696e+003,5.396010e-001
1.550553e+003,5.263741e-001
1.554410e+003,5.153458e-001
1.558267e+003,5.088399e-001
1.562124e+003,5.018113e-001
1.565981e+003,4.958452e-001
1.569838e+003,4.928784e-001
1.573695e+003,4.871554e-001
1.577552e+003,4.843666e-001
1.581410e+003,4.887828e-001
1.585267e+003,4.912006e-001
1.589124e+003,4.922658e-001
1.592981e+003,4.955986e-001
1.596838e+003,5.042959e-001
1.600695e+003,5.148508e-001
1.604552e+003,5.274730e-001
1.608409e+003,5.433071e-001
1.612266e+003,5.621496e-001
1.616123e+003,5.884874e-001
1.619980e+003,6.183628e-001
1.623838e+003,6.423653e-001
1.627695e+003,6.627418e-001
1.631552e+003,6.779236e-001
1.635409e+003,6.859836e-001
1.639266e+003,6.846676e-001
1.643123e+003,6.779695e-001
1.646980e+003,6.702268e-001
1.650837e+003,6.596403e-001
1.654694e+003,6.423656e-001
1.658551e+003,6.221730e-001
1.662409e+003,6.043451e-001
1.666266e+003,5.818229e-001
1.670123e+003,5.596167e-001
1.673980e+003,5.389472e-001
1.677837e+003,5.190924e-001
1.681694e+003,5.003804e-001
1.685551e+003,4.829559e-001
1.689408e+003,4.678127e-001
1.693265e+003,4.524893e-001
1.697122e+003,4.384582e-001
1.700979e+003,4.274012e-001
1.704837e+003,4.195337e-001
1.708694e+003,4.110428e-001
1.712551e+003,4.037333e-001
1.716408e+003,3.982466e-001
1.720265e+003,3.955073e-001
1.724122e+003,3.965523e-001
1.727979e+003,3.938050e-001
1.731836e+003,3.903737e-001
1.735693e+003,3.907275e-001
1.739550e+003,3.941022e-001
1.743408e+003,3.955389e-001
1.747265e+003,3.966547e-001
1.751122e+003,3.970805e-001
1.754979e+003,3.937052e-001
1.758836e+003,3.899489e-001
1.762693e+003,3.910438e-001
1.766550e+003,3.930573e-001
1.770407e+003,3.918043e-001
1.774264e+003,3.905110e-001
1.778121e+003,3.864297e-001
1.781979e+003,3.819233e-001
1.785836e+003,3.786997e-001
1.789693e+003,3.743625e-001
1.793550e+003,3.710085e-001
1.797407e+003,3.682710e-001
1.801264e+003,3.679285e-001
1.805121e+003,3.678354e-001
1.808978e+003,3.642778e-001
1.812835e+003,3.616579e-001
1.816692e+003,3.629323e-001
1.820549e+003,3.652466e-001
1.824407e+003,3.677214e-001
1.828264e+003,3.684254e-001
1.832121e+003,3.687508e-001
1.835978e+003,3.702223e-001
1.839835e+003,3.692008e-001
1.843692e+003,3.650514e-001
1.847549e+003,3.616046e-001
1.851406e+003,3.587705e-001
1.855263e+003,3.566902e-001
1.859120e+003,3.519590e-001
1.862978e+003,3.493859e-001
1.866835e+003,3.501609e-001
1.870692e+003,3.467739e-001
1.874549e+003,3.421461e-001
1.878406e+003,3.407149e-001
1.882263e+003,3.370657e-001
1.886120e+003,3.344472e-001
1.889977e+003,3.330090e-001
1.893834e+003,3.340433e-001
1.897691e+003,3.357956e-001
1.901548e+003,3.345679e-001
1.905406e+003,3.351116e-001
1.909263e+003,3.355176e-001
1.913120e+003,3.370447e-001
1.916977e+003,3.379287e-001
1.920834e+003,3.357209e-001
1.924691e+003,3.348778e-001
1.928548e+003,3.344548e-001
1.932405e+003,3.322110e-001
1.936262e+003,3.309282e-001
1.940119e+003,3.277705e-001
1.943977e+003,3.242595e-001
1.947834e+003,3.225870e-001
1.951691e+003,3.180564e-001
1.955548e+003,3.140168e-001
1.959405e+003,3.118945e-001
1.963262e+003,3.111446e-001
1.967119e+003,3.088285e-001
1.970976e+003,3.075645e-001
1.974833e+003,3.081734e-001
1.978690e+003,3.064362e-001
1.982547e+003,3.041086e-001
1.986405e+003,3.044018e-001
1.990262e+003,3.055511e-001
1.994119e+003,3.068009e-001
1.997976e+003,3.068452e-001
2.001833e+003,3.071775e-001
2.005690e+003,3.087875e-001
2.009547e+003,3.101896e-001
2.013404e+003,3.112133e-001
2.017261e+003,3.106056e-001
2.021118e+003,3.101273e-001
2.024976e+003,3.091818e-001
2.028833e+003,3.075982e-001
2.032690e+003,3.040200e-001
2.036547e+003,2.984623e-001
2.040404e+003,2.959783e-001
2.044261e+003,2.959913e-001
2.048118e+003,2.933686e-001
2.051975e+003,2.907137e-001
2.055832e+003,2.899746e-001
2.059689e+003,2.882409e-001
2.063546e+003,2.896239e-001
2.067404e+003,2.906950e-001
2.071261e+003,2.888110e-001
2.075118e+003,2.878308e-001
2.078975e+003,2.897968e-001
2.082832e+003,2.933265e-001
2.086689e+003,2.958503e-001
2.090546e+003,2.962595e-001
2.094403e+003,2.947033e-001
2.098260e+003,2.936633e-001
2.102117e+003,2.951896e-001
2.105975e+003,2.965298e-001
2.109832e+003,2.948886e-001
2.113689e+003,2.938206e-001
2.117546e+003,2.919916e-001
2.121403e+003,2.895310e-001
2.125260e+003,2.872667e-001
2.129117e+003,2.858952e-001
2.132974e+003,2.841097e-001
2.136831e+003,2.843067e-001
2.140688e+003,2.840802e-001
2.144545e+003,2.836031e-001
2.148403e+003,2.838076e-001
2.152260e+003,2.835374e-001
2.156117e+003,2.843921e-001
2.159974e+003,2.860141e-001
2.163831e+003,2.864110e-001
2.167688e+003,2.869107e-001
2.171545e+003,2.893462e-001
2.175402e+003,2.920928e-001
2.179259e+003,2.907100e-001
2.183116e+003,2.882055e-001
2.186974e+003,2.897771e-001
2.190831e+003,2.922138e-001
2.194688e+003,2.937765e-001
2.198545e+003,2.949679e-001
2.202402e+003,2.954566e-001
2.206259e+003,2.940750e-001
2.210116e+003,2.902370e-001
2.213973e+003,2.885170e-001
2.217830e+003,2.908899e-001
2.221688e+003,2.920131e-001
2.225544e+003,2.884295e-001
2.229402e+003,2.858495e-001
2.233259e+003,2.867033e-001
2.237116e+003,2.862760e-001
2.240973e+003,2.848754e-001
2.244830e+003,2.850734e-001
2.248687e+003,2.862583e-001
2.252544e+003,2.873376e-001
2.256401e+003,2.893851e-001
2.260258e+003,2.902658e-001
2.264115e+003,2.909267e-001
2.267973e+003,2.936912e-001
2.271830e+003,2.976356e-001
2.275687e+003,3.003276e-001
2.279544e+003,3.011314e-001
2.283401e+003,2.990184e-001
2.287258e+003,2.986502e-001
2.291115e+003,2.985453e-001
2.294972e+003,2.972665e-001
2.298829e+003,2.955807e-001
2.302687e+003,2.951127e-001
2.306543e+003,2.952960e-001
2.310401e+003,2.915953e-001
2.314258e+003,2.873198e-001
2.318115e+003,2.872154e-001
2.321972e+003,2.874928e-001
2.325829e+003,2.874181e-001
2.329686e+003,2.893525e-001
2.333543e+003,2.881263e-001
2.337400e+003,2.879353e-001
2.341257e+003,2.904837e-001
2.345115e+003,2.913736e-001
2.348972e+003,2.899639e-001
2.352829e+003,2.909790e-001
2.356686e+003,2.942798e-001
2.360543e+003,2.937321e-001
2.364400e+003,2.933004e-001
2.368257e+003,2.939052e-001
2.372114e+003,2.944677e-001
2.375971e+003,2.960638e-001
2.379828e+003,2.980960e-001
2.383686e+003,2.998957e-001
2.387542e+003,2.980170e-001
2.391400e+003,2.978249e-001
2.395257e+003,2.948115e-001
2.399114e+003,2.893139e-001
2.402971e+003,2.885157e-001
2.406828e+003,2.892093e-001
2.410685e+003,2.894081e-001
2.414542e+003,2.883695e-001
2.418399e+003,2.851914e-001
2.422256e+003,2.840412e-001
2.426114e+003,2.867334e-001
2.429971e+003,2.881485e-001
2.433828e+003,2.873535e-001
2.437685e+003,2.861459e-001
2.441542e+003,2.884849e-001
2.445399e+003,2.889722e-001
2.449256e+003,2.880802e-001
2.453113e+003,2.879400e-001
2.456970e+003,2.896343e-001
2.460827e+003,2.889231e-001
2.464684e+003,2.878918e-001
2.468542e+003,2.878052e-001
2.472399e+003,2.871052e-001
2.476256e+003,2.869638e-001
2.480113e+003,2.863561e-001
2.483970e+003,2.847500e-001
2.487827e+003,2.840244e-001
2.491684e+003,2.832546e-001
2.495541e+003,2.813896e-001
2.499398e+003,2.798863e-001
2.503255e+003,2.780789e-001
2.507113e+003,2.781735e-001
2.510969e+003,2.792695e-001
2.514827e+003,2.796682e-001
2.518684e+003,2.791246e-001
2.522541e+003,2.782058e-001
2.526398e+003,2.796260e-001
2.530255e+003,2.820545e-001
2.534112e+003,2.839012e-001
2.537969e+003,2.853476e-001
2.541826e+003,2.855923e-001
2.545683e+003,2.871969e-001
2.549541e+003,2.876825e-001
2.553398e+003,2.873891e-001
2.557255e+003,2.890014e-001
2.561112e+003,2.889516e-001
2.564969e+003,2.886583e-001
2.568826e+003,2.888447e-001
2.572683e+003,2.896345e-001
2.576540e+003,2.914744e-001
2.580397e+003,2.940965e-001
2.584254e+003,2.953863e-001
2.588112e+003,2.956597e-001
2.591969e+003,2.971233e-001
2.595826e+003,2.967124e-001
2.599683e+003,2.964755e-001
2.603540e+003,2.997035e-001
2.607397e+003,2.990769e-001
2.611254e+003,2.991077e-001
2.615111e+003,3.027630e-001
2.618968e+003,3.058901e-001
2.622825e+003,3.101313e-001
2.626682e+003,3.127632e-001
2.630540e+003,3.123671e-001
2.634397e+003,3.130473e-001
2.638254e+003,3.173655e-001
2.642111e+003,3.228481e-001
2.645968e+003,3.242271e-001
2.649825e+003,3.236484e-001
2.653682e+003,3.254999e-001
2.657539e+003,3.282518e-001
2.661396e+003,3.296042e-001
2.665253e+003,3.314953e-001
2.669111e+003,3.310114e-001
2.672968e+003,3.322071e-001
2.676825e+003,3.357026e-001
2.680682e+003,3.390145e-001
2.684539e+003,3.394992e-001
2.688396e+003,3.421436e-001
2.692253e+003,3.452365e-001
2.696110e+003,3.480860e-001
2.699967e+003,3.510757e-001
2.703824e+003,3.542177e-001
2.707681e+003,3.574454e-001
2.711539e+003,3.598812e-001
2.715396e+003,3.639852e-001
2.719253e+003,3.700803e-001
2.723110e+003,3.725099e-001
2.726967e+003,3.719646e-001
2.730824e+003,3.756875e-001
2.734681e+003,3.810639e-001
2.738538e+003,3.833422e-001
2.742395e+003,3.855945e-001
2.746252e+003,3.885827e-001
2.750110e+003,3.933165e-001
2.753967e+003,3.968369e-001
2.757824e+003,3.970415e-001
2.761681e+003,4.006786e-001
2.765538e+003,4.054447e-001
2.769395e+003,4.057275e-001
2.773252e+003,4.067631e-001
2.777109e+003,4.114583e-001
2.780966e+003,4.139463e-001
2.784823e+003,4.153809e-001
2.788680e+003,4.201711e-001
2.792538e+003,4.255910e-001
2.796395e+003,4.297265e-001
2.800252e+003,4.345045e-001
2.804109e+003,4.348656e-001
2.807966e+003,4.378282e-001
2.811823e+003,4.455659e-001
2.815680e+003,4.505924e-001
2.819537e+003,4.524290e-001
2.823394e+003,4.551034e-001
2.827251e+003,4.620508e-001
2.831109e+003,4.679914e-001
2.834966e+003,4.690582e-001
2.838823e+003,4.733483e-001
2.842680e+003,4.789912e-001
2.846537e+003,4.811106e-001
2.850394e+003,4.829067e-001
2.854251e+003,4.884951e-001
2.858108e+003,4.968915e-001
2.861965e+003,4.996299e-001
2.865823e+003,4.980199e-001
2.869679e+003,5.018226e-001
2.873537e+003,5.087984e-001
2.877394e+003,5.148913e-001
2.881251e+003,5.213752e-001
2.885108e+003,5.275946e-001
2.888965e+003,5.327197e-001
2.892822e+003,5.384398e-001
2.896679e+003,5.390931e-001
2.900536e+003,5.414672e-001
2.904393e+003,5.439680e-001
2.908250e+003,5.471152e-001
2.912108e+003,5.529705e-001
2.915965e+003,5.570067e-001
2.919822e+003,5.634242e-001
2.923679e+003,5.688387e-001
2.927536e+003,5.753865e-001
2.931393e+003,5.812639e-001
2.935250e+003,5.839607e-001
2.939107e+003,5.916919e-001
2.942964e+003,5.981162e-001
2.946822e+003,6.022359e-001
2.950678e+003,6.065302e-001
2.954536e+003,6.113163e-001
2.958393e+003,6.162732e-001
2.962250e+003,6.228876e-001
2.966107e+003,6.277038e-001
2.969964e+003,6.303269e-001
2.973821e+003,6.334940e-001
2.977678e+003,6.336201e-001
2.981535e+003,6.382682e-001
2.985392e+003,6.459458e-001
2.989250e+003,6.502938e-001
2.993107e+003,6.512720e-001
2.996964e+003,6.564293e-001
3.000821e+003,6.655359e-001
3.004678e+003,6.692833e-001
3.008535e+003,6.788275e-001
3.012392e+003,6.848923e-001
3.016249e+003,6.872029e-001
3.020106e+003,6.890617e-001
3.023963e+003,6.940478e-001
3.027821e+003,6.989157e-001
3.031677e+003,7.003493e-001
3.035535e+003,7.049710e-001
3.039392e+003,7.134383e-001
3.043249e+003,7.212431e-001
3.047106e+003,7.291262e-001
3.050963e+003,7.373905e-001
3.054820e+003,7.460859e-001
3.058677e+003,7.496933e-001
3.062534e+003,7.522093e-001
3.066391e+003,7.602828e-001
3.070249e+003,7.637473e-001
3.074106e+003,7.665954e-001
3.077963e+003,7.731021e-001
3.081820e+003,7.795011e-001
3.085677e+003,7.827792e-001
3.089534e+003,7.937301e-001
3.093391e+003,8.040189e-001
3.097248e+003,8.086760e-001
3.101105e+003,8.092883e-001
3.104962e+003,8.097878e-001
3.108820e+003,8.128598e-001
3.112677e+003,8.223336e-001
3.116534e+003,8.322982e-001
3.120391e+003,8.439559e-001
3.124248e+003,8.592421e-001
3.128105e+003,8.618236e-001
3.131962e+003,8.640084e-001
3.135819e+003,8.634660e-001
3.139676e+003,8.699880e-001
3.143533e+003,8.856420e-001
3.147390e+003,8.931547e-001
3.151248e+003,9.007469e-001
3.155105e+003,8.992873e-001
3.158962e+003,8.974926e-001
3.162819e+003,9.087869e-001
3.166676e+003,9.211652e-001
3.170533e+003,9.308280e-001
3.174390e+003,9.383906e-001
3.178247e+003,9.454185e-001
3.182104e+003,9.556160e-001
3.185961e+003,9.667413e-001
3.189819e+003,9.647929e-001
3.193676e+003,9.688613e-001
3.197533e+003,9.778352e-001
3.201390e+003,9.858484e-001
3.205247e+003,9.905178e-001
3.209104e+003,9.879713e-001
3.212961e+003,9.956750e-001
3.216818e+003,1.003568e+000
3.220675e+003,1.013069e+000
3.224532e+003,1.012127e+000
3.228389e+003,1.013217e+000
3.232247e+003,1.019982e+000
3.236104e+003,1.028471e+000
3.239961e+003,1.035090e+000
3.243818e+003,1.039141e+000
3.247675e+003,1.042784e+000
3.251532e+003,1.053687e+000
3.255389e+003,1.062637e+000
3.259246e+003,1.063571e+000
3.263103e+003,1.064969e+000
3.266960e+003,1.065179e+000
3.270818e+003,1.066175e+000
3.274675e+003,1.070698e+000
3.278532e+003,1.082101e+000
3.282389e+003,1.096909e+000
3.286246e+003,1.103405e+000
3.290103e+003,1.095164e+000
3.293960e+003,1.077774e+000
3.297817e+003,1.084273e+000
3.301674e+003,1.103744e+000
3.305531e+003,1.124493e+000
3.309388e+003,1.136835e+000
3.313246e+003,1.136434e+000
3.317103e+003,1.136302e+000
3.320960e+003,1.134385e+000
3.324817e+003,1.135369e+000
3.328674e+003,1.153858e+000
3.332531e+003,1.167061e+000
3.336388e+003,1.171352e+000
3.340245e+003,1.174427e+000
3.344102e+003,1.183758e+000
3.347959e+003,1.187823e+000
3.351817e+003,1.189287e+000
3.355674e+003,1.191787e+000
3.359531e+003,1.209065e+000
3.363388e+003,1.225115e+000
3.367245e+003,1.213860e+000
3.371102e+003,1.216550e+000
3.374959e+003,1.230210e+000
3.378816e+003,1.234822e+000
3.382673e+003,1.232490e+000
3.386530e+003,1.232341e+000
3.390387e+003,1.240918e+000
3.394245e+003,1.234987e+000
3.398102e+003,1.231176e+000
3.401959e+003,1.268556e+000
3.405816e+003,1.294591e+000
3.409673e+003,1.288010e+000
3.413530e+003,1.268260e+000
3.417387e+003,1.251682e+000
3.421244e+003,1.261808e+000
3.425101e+003,1.287189e+000
3.428958e+003,1.313647e+000
3.432815e+003,1.314776e+000
3.436673e+003,1.269722e+000
3.440530e+003,1.260028e+000
3.444387e+003,1.283093e+000
3.448244e+003,1.297103e+000
3.452101e+003,1.291745e+000
3.455958e+003,1.281382e+000
3.459815e+003,1.292058e+000
3.463672e+003,1.313308e+000
3.467529e+003,1.314028e+000
3.471386e+003,1.311193e+000
3.475244e+003,1.310920e+000
3.479101e+003,1.329530e+000
3.482958e+003,1.334892e+000
3.486815e+003,1.320969e+000
3.490672e+003,1.320851e+000
3.494529e+003,1.325271e+000
3.498386e+003,1.330814e+000
3.502243e+003,1.328907e+000
3.506100e+003,1.338068e+000
3.509958e+003,1.329283e+000
3.513814e+003,1.335322e+000
3.517672e+003,1.348975e+000
3.521529e+003,1.351657e+000
3.525386e+003,1.362970e+000
3.529243e+003,1.342752e+000
3.533100e+003,1.311169e+000
3.536957e+003,1.312104e+000
3.540814e+003,1.321197e+000
3.544671e+003,1.329199e+000
3.548528e+003,1.336696e+000
3.552385e+003,1.333665e+000
3.556243e+003,1.319568e+000
3.560100e+003,1.301838e+000
3.563957e+003,1.315484e+000
3.567814e+003,1.298798e+000
3.571671e+003,1.255606e+000
3.575528e+003,1.230049e+000
3.579385e+003,1.237772e+000
3.583242e+003,1.217921e+000
3.587099e+003,1.202962e+000
3.590957e+003,1.202136e+000
3.594813e+003,1.181029e+000
3.598671e+003,1.157834e+000
3.602528e+003,1.110062e+000
3.606385e+003,1.060462e+000
3.610242e+003,1.023836e+000
3.614099e+003,9.819967e-001
3.617956e+003,9.305381e-001
3.621813e+003,8.840052e-001
3.625670e+003,8.426253e-001
3.629527e+003,7.930505e-001
3.633385e+003,7.332278e-001
3.637242e+003,6.801722e-001
3.641099e+003,6.339189e-001
3.644956e+003,5.847795e-001
3.648813e+003,5.358398e-001
3.652670e+003,4.912160e-001
3.656527e+003,4.464640e-001
3.660384e+003,4.064096e-001
3.664241e+003,3.702028e-001
3.668098e+003,3.354713e-001
3.671956e+003,3.056775e-001
3.675813e+003,2.828088e-001
3.679670e+003,2.597511e-001
3.683527e+003,2.389514e-001
3.687384e+003,2.220670e-001
3.691241e+003,2.076999e-001
3.695098e+003,1.964920e-001
3.698955e+003,1.863105e-001
3.702812e+003,1.778148e-001
3.706669e+003,1.720288e-001
3.710526e+003,1.643607e-001
3.714384e+003,1.581216e-001
3.718241e+003,1.541972e-001
3.722098e+003,1.505818e-001
3.725955e+003,1.478385e-001
3.729812e+003,1.465403e-001
3.733669e+003,1.452522e-001
3.737526e+003,1.408391e-001
3.741383e+003,1.372596e-001
3.745240e+003,1.349731e-001
3.749097e+003,1.322952e-001
3.752955e+003,1.285872e-001
3.756812e+003,1.264256e-001
3.760669e+003,1.262330e-001
3.764526e+003,1.245491e-001
3.768383e+003,1.232841e-001
3.772240e+003,1.223399e-001
3.776097e+003,1.226562e-001
3.779954e+003,1.242938e-001
3.783811e+003,1.237750e-001
3.787668e+003,1.227476e-001
3.791525e+003,1.210800e-001
3.795383e+003,1.202188e-001
3.799240e+003,1.207940e-001
3.803097e+003,1.212716e-001
3.806954e+003,1.221263e-001
3.810811e+003,1.226937e-001
3.814668e+003,1.221949e-001
3.818525e+003,1.214800e-001
3.822382e+003,1.195046e-001
3.826239e+003,1.196649e-001
3.830096e+003,1.211492e-001
3.833954e+003,1.199246e-001
3.837811e+003,1.183385e-001
3.841668e+003,1.191035e-001
3.845525e+003,1.203894e-001
3.849382e+003,1.199519e-001
3.853239e+003,1.187995e-001
3.857096e+003,1.173678e-001
3.860953e+003,1.166933e-001
3.864810e+003,1.144226e-001
3.868667e+003,1.138254e-001
3.872524e+003,1.183025e-001
3.876382e+003,1.180751e-001
3.880239e+003,1.186355e-001
3.884096e+003,1.202620e-001
3.887953e+003,1.188553e-001
3.891810e+003,1.193429e-001
3.895667e+003,1.206258e-001
3.899524e+003,1.205315e-001
3.903381e+003,1.212479e-001
3.907238e+003,1.239809e-001
3.911095e+003,1.244462e-001
3.914953e+003,1.241079e-001
3.918810e+003,1.225427e-001
3.922667e+003,1.202342e-001
3.926524e+003,1.178954e-001
3.930381e+003,1.149207e-001
3.934238e+003,1.139579e-001
3.938095e+003,1.167161e-001
3.941952e+003,1.186242e-001
3.945809e+003,1.166950e-001
3.949667e+003,1.177323e-001
3.953523e+003,1.198358e-001
3.957381e+003,1.178883e-001
3.961238e+003,1.166014e-001
3.965095e+003,1.172706e-001
3.968952e+003,1.190025e-001
3.972809e+003,1.187310e-001
3.976666e+003,1.191109e-001
3.980523e+003,1.204916e-001
3.984380e+003,1.225343e-001
3.988237e+003,1.256306e-001
3.992094e+003,1.259719e-001
3.995952e+003,1.235056e-001
3.999809e+003,1.235159e-001
4.003666e+003,1.239251e-001
4.007523e+003,1.235240e-001
4.011380e+003,1.231909e-001
4.015237e+003,1.229105e-001
4.019094e+003,1.220511e-001
4.022951e+003,1.201659e-001
4.026808e+003,1.172849e-001
4.030666e+003,1.169360e-001
4.034522e+003,1.197353e-001
4.038380e+003,1.191594e-001
4.042237e+003,1.175876e-001
4.046094e+003,1.170548e-001
4.049951e+003,1.174397e-001
4.053808e+003,1.185075e-001
4.057665e+003,1.222416e-001
4.061522e+003,1.247507e-001
4.065379e+003,1.233940e-001
4.069236e+003,1.235932e-001
4.073094e+003,1.247400e-001
4.076951e+003,1.234372e-001
4.080808e+003,1.206101e-001
4.084665e+003,1.194165e-001
4.088522e+003,1.209691e-001
4.092379e+003,1.214634e-001
4.096236e+003,1.200657e-001
4.100093e+003,1.199729e-001
4.103950e+003,1.190691e-001
4.107808e+003,1.200145e-001
4.111665e+003,1.214784e-001
4.115521e+003,1.196998e-001
4.119379e+003,1.214453e-001
4.123236e+003,1.240942e-001
4.127093e+003,1.200445e-001
4.130950e+003,1.145526e-001
4.134807e+003,1.157619e-001
4.138664e+003,1.179587e-001
4.142521e+003,1.165116e-001
4.146378e+003,1.172539e-001
4.150235e+003,1.217377e-001
4.154093e+003,1.218173e-001
4.157950e+003,1.213646e-001
4.161807e+003,1.224584e-001
4.165664e+003,1.220928e-001
4.169521e+003,1.242431e-001
4.173378e+003,1.266340e-001
4.177235e+003,1.254604e-001
4.181092e+003,1.241714e-001
4.184949e+003,1.247272e-001
4.188807e+003,1.221834e-001
4.192664e+003,1.180189e-001
4.196521e+003,1.187885e-001
4.200378e+003,1.212138e-001
4.204235e+003,1.223556e-001
4.208092e+003,1.198034e-001
4.211949e+003,1.181275e-001
4.215806e+003,1.156088e-001
4.219663e+003,1.173926e-001
4.223521e+003,1.214855e-001
4.227377e+003,1.220265e-001
4.231234e+003,1.217998e-001
4.235092e+003,1.217199e-001
4.238949e+003,1.200332e-001
4.242806e+003,1.194848e-001
4.246663e+003,1.222926e-001
4.250520e+003,1.227875e-001
4.254377e+003,1.211323e-001
4.258234e+003,1.210638e-001
4.262091e+003,1.230539e-001
4.265948e+003,1.273218e-001
4.269806e+003,1.284159e-001
4.273663e+003,1.259722e-001
4.277520e+003,1.268460e-001
4.281377e+003,1.279126e-001
4.285234e+003,1.221002e-001
4.289091e+003,1.207995e-001
4.292948e+003,1.214653e-001
4.296805e+003,1.222267e-001
4.300662e+003,1.241174e-001
4.304520e+003,1.224281e-001
4.308376e+003,1.196514e-001
4.312233e+003,1.212295e-001
4.316091e+003,1.237992e-001
4.319948e+003,1.254899e-001
4.323805e+003,1.248439e-001
4.327662e+003,1.263981e-001
4.331519e+003,1.282455e-001
4.335376e+003,1.304754e-001
4.339233e+003,1.311649e-001
4.343090e+003,1.315542e-001
4.346947e+003,1.345200e-001
4.350805e+003,1.307127e-001
4.354662e+003,1.277553e-001
4.358519e+003,1.327214e-001
4.362376e+003,1.365478e-001
4.366233e+003,1.349511e-001
4.370090e+003,1.315847e-001
4.373947e+003,1.321530e-001
4.377804e+003,1.338727e-001
4.381661e+003,1.313758e-001
4.385519e+003,1.297162e-001
4.389375e+003,1.315310e-001
4.393232e+003,1.312745e-001
4.397090e+003,1.285372e-001
4.400947e+003,1.309111e-001
4.404804e+003,1.329268e-001
4.408661e+003,1.326269e-001
4.412518e+003,1.333744e-001
4.416375e+003,1.346819e-001
4.420232e+003,1.372286e-001
4.424089e+003,1.401637e-001
4.427946e+003,1.380703e-001
4.431804e+003,1.339572e-001
4.435661e+003,1.368857e-001
4.439518e+003,1.387285e-001
4.443375e+003,1.408138e-001
4.447232e+003,1.404153e-001
4.451089e+003,1.404734e-001
4.454946e+003,1.404542e-001
4.458803e+003,1.367738e-001
4.462660e+003,1.371414e-001
4.466518e+003,1.370865e-001
4.470375e+003,1.372043e-001
4.474231e+003,1.390280e-001
4.478089e+003,1.396417e-001
4.481946e+003,1.401370e-001
4.485803e+003,1.396899e-001
4.489660e+003,1.390539e-001
4.493517e+003,1.402542e-001
4.497375e+003,1.409082e-001
4.501231e+003,1.402542e-001
4.505088e+003,1.391291e-001
4.508946e+003,1.360839e-001
4.512803e+003,1.328767e-001
4.516660e+003,1.337511e-001
4.520517e+003,1.398586e-001
4.524374e+003,1.425102e-001
4.528231e+003,1.426102e-001
4.532088e+003,1.465806e-001
4.535945e+003,1.491845e-001
4.539802e+003,1.454480e-001
4.543660e+003,1.418778e-001
4.547517e+003,1.417616e-001
4.551374e+003,1.408624e-001
4.555231e+003,1.414431e-001
4.559088e+003,1.425426e-001
4.562945e+003,1.434153e-001
4.566802e+003,1.373252e-001
4.570659e+003,1.349612e-001
4.574516e+003,1.370437e-001
4.578374e+003,1.358229e-001
4.582230e+003,1.323524e-001
4.586087e+003,1.351323e-001
4.589945e+003,1.404250e-001
4.593802e+003,1.405942e-001
4.597659e+003,1.407094e-001
4.601516e+003,1.417896e-001
4.605373e+003,1.414215e-001
4.609230e+003,1.420204e-001
4.613087e+003,1.390880e-001
4.616944e+003,1.398426e-001
4.620801e+003,1.399850e-001
4.624659e+003,1.400516e-001
4.628516e+003,1.399316e-001
4.632373e+003,1.447290e-001
4.636230e+003,1.475359e-001
4.640087e+003,1.448352e-001
4.643944e+003,1.438451e-001
4.647801e+003,1.416493e-001
4.651658e+003,1.437644e-001
4.655515e+003,1.468711e-001
4.659373e+003,1.461838e-001
4.663229e+003,1.423951e-001
4.667086e+003,1.454982e-001
4.670944e+003,1.477510e-001
4.674801e+003,1.468163e-001
4.678658e+003,1.468329e-001
4.682515e+003,1.461216e-001
4.686372e+003,1.456021e-001
4.690229e+003,1.421821e-001
4.694086e+003,1.405950e-001
4.697943e+003,1.417479e-001
4.701800e+003,1.412340e-001
4.705658e+003,1.401041e-001
4.709515e+003,1.440566e-001
4.713372e+003,1.496039e-001
4.717229e+003,1.509505e-001
4.721086e+003,1.473176e-001
4.724943e+003,1.510369e-001
4.728800e+003,1.551571e-001
4.732657e+003,1.546204e-001
4.736514e+003,1.526008e-001
4.740372e+003,1.495895e-001
4.744229e+003,1.520413e-001
4.748085e+003,1.519617e-001
4.751943e+003,1.522064e-001
4.755800e+003,1.519017e-001
4.759657e+003,1.489438e-001
4.763514e+003,1.451992e-001
4.767371e+003,1.429636e-001
4.771228e+003,1.438935e-001
4.775085e+003,1.470530e-001
4.778942e+003,1.499991e-001
4.782799e+003,1.481734e-001
4.786657e+003,1.453355e-001
4.790514e+003,1.477267e-001
4.794371e+003,1.486194e-001
4.798228e+003,1.496563e-001
4.802085e+003,1.504518e-001
4.805942e+003,1.555964e-001
4.809799e+003,1.627207e-001
4.813656e+003,1.593815e-001
4.817513e+003,1.549513e-001
4.821371e+003,1.523925e-001
4.825228e+003,1.499212e-001
4.829084e+003,1.526682e-001
4.832942e+003,1.531566e-001
4.836799e+003,1.509019e-001
4.840656e+003,1.476831e-001
4.844513e+003,1.485893e-001
4.848370e+003,1.487456e-001
4.852227e+003,1.471728e-001
4.856084e+003,1.540363e-001
4.859941e+003,1.575064e-001
4.863798e+003,1.579023e-001
4.867656e+003,1.571996e-001
4.871513e+003,1.572238e-001
4.875370e+003,1.556602e-001
4.879227e+003,1.503608e-001
4.883084e+003,1.491603e-001
4.886941e+003,1.477267e-001
4.890798e+003,1.552953e-001
4.894655e+003,1.613805e-001
4.898512e+003,1.603026e-001
4.902370e+003,1.606572e-001
4.906227e+003,1.593073e-001
4.910083e+003,1.591752e-001
4.913941e+003,1.598439e-001
4.917798e+003,1.609289e-001
4.921655e+003,1.590091e-001
4.925512e+003,1.596541e-001
4.929369e+003,1.595612e-001
4.933226e+003,1.575897e-001
4.937083e+003,1.596546e-001
4.940940e+003,1.576125e-001
4.944797e+003,1.531175e-001
4.948655e+003,1.578242e-001
4.952512e+003,1.577059e-001
4.956369e+003,1.562551e-001
4.960226e+003,1.578429e-001
4.964083e+003,1.562871e-001
4.967940e+003,1.579691e-001
4.971797e+003,1.603270e-001
4.975654e+003,1.589622e-001
4.979511e+003,1.632143e-001
4.983369e+003,1.658378e-001
4.987226e+003,1.633901e-001
4.991083e+003,1.601942e-001
4.994940e+003,1.605596e-001
4.998797e+003,1.620851e-001
5.002654e+003,1.648367e-001
5.006511e+003,1.633377e-001
5.010368e+003,1.619286e-001
5.014225e+003,1.648358e-001
5.018083e+003,1.658323e-001
5.021939e+003,1.650530e-001
5.025796e+003,1.633628e-001
5.029654e+003,1.564545e-001
5.033511e+003,1.559884e-001
5.037368e+003,1.614803e-001
5.041225e+003,1.604763e-001
5.045082e+003,1.579349e-001
5.048939e+003,1.591372e-001
5.052796e+003,1.627844e-001
5.056653e+003,1.662452e-001
5.060510e+003,1.644538e-001
5.064368e+003,1.647397e-001
5.068225e+003,1.627461e-001
5.072082e+003,1.583982e-001
5.075939e+003,1.611631e-001
5.079796e+003,1.581390e-001
5.083653e+003,1.568421e-001
5.087510e+003,1.644676e-001
5.091367e+003,1.710302e-001
5.095224e+003,1.684649e-001
5.099082e+003,1.701490e-001
5.102938e+003,1.706001e-001
5.106795e+003,1.629340e-001
5.110653e+003,1.654622e-001
5.114510e+003,1.720123e-001
5.118367e+003,1.719914e-001
5.122224e+003,1.699625e-001
5.126081e+003,1.706865e-001
5.129938e+003,1.720191e-001
5.133795e+003,1.722942e-001
5.137652e+003,1.734809e-001
5.141509e+003,1.727741e-001
5.145367e+003,1.718246e-001
5.149224e+003,1.711399e-001
5.153081e+003,1.711080e-001
5.156938e+003,1.723759e-001
5.160795e+003,1.690298e-001
5.164652e+003,1.622691e-001
5.168509e+003,1.648104e-001
5.172366e+003,1.755565e-001
5.176223e+003,1.780081e-001
5.180081e+003,1.753240e-001
5.183938e+003,1.690163e-001
5.187794e+003,1.678773e-001
5.191652e+003,1.691790e-001
5.195509e+003,1.712119e-001
5.199366e+003,1.744588e-001
5.203223e+003,1.747827e-001
5.207080e+003,1.769955e-001
5.210937e+003,1.766949e-001
5.214794e+003,1.722799e-001
5.218651e+003,1.736392e-001
5.222508e+003,1.723628e-001
5.226366e+003,1.675580e-001
5.230223e+003,1.689704e-001
5.234080e+003,1.679676e-001
5.237937e+003,1.589575e-001
5.241794e+003,1.599125e-001
5.245651e+003,1.649845e-001
5.249508e+003,1.655396e-001
5.253365e+003,1.617721e-001
5.257222e+003,1.578548e-001
5.261080e+003,1.585311e-001
5.264937e+003,1.640473e-001
5.268793e+003,1.685149e-001
5.272651e+003,1.688696e-001
5.276508e+003,1.671593e-001
5.280365e+003,1.668790e-001
5.284222e+003,1.684715e-001
5.288079e+003,1.646422e-001
5.291936e+003,1.622091e-001
5.295793e+003,1.652873e-001
5.299650e+003,1.705794e-001
5.303507e+003,1.657240e-001
5.307365e+003,1.568614e-001
5.311222e+003,1.622737e-001
5.315079e+003,1.633125e-001
5.318936e+003,1.641508e-001
5.322793e+003,1.643242e-001
5.326650e+003,1.643342e-001
5.330507e+003,1.659092e-001
5.334364e+003,1.642850e-001
5.338221e+003,1.592160e-001
5.342079e+003,1.549768e-001
5.345936e+003,1.565869e-001
5.349792e+003,1.594030e-001
5.353650e+003,1.608999e-001
5.357507e+003,1.639744e-001
5.361364e+003,1.602378e-001
5.365221e+003,1.568789e-001
5.369078e+003,1.571901e-001
5.372935e+003,1.602710e-001
5.376792e+003,1.644920e-001
5.380649e+003,1.709879e-001
5.384506e+003,1.744185e-001
5.388364e+003,1.734266e-001
5.392221e+003,1.704106e-001
5.396078e+003,1.659809e-001
5.399935e+003,1.596543e-001
5.403792e+003,1.587510e-001
5.407649e+003,1.628977e-001
5.411506e+003,1.595334e-001
5.415363e+003,1.615739e-001
5.419220e+003,1.624636e-001
5.423078e+003,1.554606e-001
5.426935e+003,1.534003e-001
5.430792e+003,1.585676e-001
5.434649e+003,1.584125e-001
5.438506e+003,1.592752e-001
5.442363e+003,1.620649e-001
5.446220e+003,1.599238e-001
5.450077e+003,1.598430e-001
5.453934e+003,1.646114e-001
5.457792e+003,1.678393e-001
5.461648e+003,1.666796e-001
5.465505e+003,1.619642e-001
5.469363e+003,1.606210e-001
5.473220e+003,1.622111e-001
5.477077e+003,1.611450e-001
5.480934e+003,1.582371e-001
5.484791e+003,1.611737e-001
5.488648e+003,1.644862e-001
5.492505e+003,1.684163e-001
5.496362e+003,1.638753e-001
5.500219e+003,1.608851e-001
5.504077e+003,1.597215e-001
5.507934e+003,1.561567e-001
5.511791e+003,1.579630e-001
5.515648e+003,1.559874e-001
5.519505e+003,1.559178e-001
5.523362e+003,1.591184e-001
5.527219e+003,1.538146e-001
5.531076e+003,1.545139e-001
5.534933e+003,1.581893e-001
5.538791e+003,1.533411e-001
5.542647e+003,1.513481e-001
5.546504e+003,1.520545e-001
5.550362e+003,1.553276e-001
5.554219e+003,1.582191e-001
5.558076e+003,1.639255e-001
5.561933e+003,1.650496e-001
5.565790e+003,1.569220e-001
5.569647e+003,1.517317e-001
5.573504e+003,1.506885e-001
5.577361e+003,1.552605e-001
5.581218e+003,1.594485e-001
5.585076e+003,1.599842e-001
5.588933e+003,1.548342e-001
5.592790e+003,1.494737e-001
5.596647e+003,1.563893e-001
5.600504e+003,1.616048e-001
5.604361e+003,1.559855e-001
5.608218e+003,1.509399e-001
5.612075e+003,1.499772e-001
5.615932e+003,1.532274e-001
5.619790e+003,1.585377e-001
5.623646e+003,1.573836e-001
5.627503e+003,1.554256e-001
5.631361e+003,1.615691e-001
5.635218e+003,1.659729e-001
5.639075e+003,1.608796e-001
5.642932e+003,1.554117e-001
5.646789e+003,1.521544e-001
5.650646e+003,1.471810e-001
5.654503e+003,1.494885e-001
5.658360e+003,1.561098e-001
5.662217e+003,1.579178e-001
5.666075e+003,1.588236e-001
5.669932e+003,1.575771e-001
5.673789e+003,1.584213e-001
5.677646e+003,1.583086e-001
5.681503e+003,1.515723e-001
5.685360e+003,1.468194e-001
5.689217e+003,1.524178e-001
5.693074e+003,1.536101e-001
5.696931e+003,1.529394e-001
5.700789e+003,1.539033e-001
5.704646e+003,1.508638e-001
5.708502e+003,1.455561e-001
5.712360e+003,1.453069e-001
5.716217e+003,1.471090e-001
5.720074e+003,1.417652e-001
5.723931e+003,1.441801e-001
5.727788e+003,1.506791e-001
5.731645e+003,1.548716e-001
5.735502e+003,1.548557e-001
5.739359e+003,1.501677e-001
5.743216e+003,1.438235e-001
5.747074e+003,1.445355e-001
5.750931e+003,1.523179e-001
5.754788e+003,1.558583e-001
5.758645e+003,1.543288e-001
5.762502e+003,1.560377e-001
5.766359e+003,1.554028e-001
5.770216e+003,1.537578e-001
5.774073e+003,1.572363e-001
5.777930e+003,1.527865e-001
5.781788e+003,1.458120e-001
5.785645e+003,1.488982e-001
5.789501e+003,1.478805e-001
5.793359e+003,1.419959e-001
5.797216e+003,1.471382e-001
5.801073e+003,1.501689e-001
5.804930e+003,1.454801e-001
5.808787e+003,1.462743e-001
5.812644e+003,1.517767e-001
5.816501e+003,1.515743e-001
5.820358e+003,1.394813e-001
5.824215e+003,1.394585e-001
5.828073e+003,1.495197e-001
5.831930e+003,1.452213e-001
5.835787e+003,1.423570e-001
5.839644e+003,1.500429e-001
5.843501e+003,1.540658e-001
5.847358e+003,1.548488e-001
5.851215e+003,1.511694e-001
5.855072e+003,1.480478e-001
5.858929e+003,1.536935e-001
5.862787e+003,1.499396e-001
5.866644e+003,1.430679e-001
5.870500e+003,1.404818e-001
5.874358e+003,1.427192e-001
5.878215e+003,1.424613e-001
5.882072e+003,1.340326e-001
5.885929e+003,1.275498e-001
5.889786e+003,1.322775e-001
5.893643e+003,1.381134e-001
5.897500e+003,1.384139e-001
5.901357e+003,1.391235e-001
5.905214e+003,1.335586e-001
5.909072e+003,1.309500e-001
5.912929e+003,1.383986e-001
5.916786e+003,1.407710e-001
5.920643e+003,1.419116e-001
5.924500e+003,1.389023e-001
5.928357e+003,1.371509e-001
5.932214e+003,1.376203e-001
5.936071e+003,1.393550e-001
5.939928e+003,1.402782e-001
5.943786e+003,1.357616e-001
5.947643e+003,1.341881e-001
5.951500e+003,1.413686e-001
5.955357e+003,1.408642e-001
5.959214e+003,1.401835e-001
5.963071e+003,1.399418e-001
5.966928e+003,1.417426e-001
5.970785e+003,1.448737e-001
5.974642e+003,1.399605e-001
5.978500e+003,1.377483e-001
5.982356e+003,1.335534e-001
5.986213e+003,1.328570e-001
5.990071e+003,1.426162e-001
5.993928e+003,1.424741e-001
5.997785e+003,1.342098e-001
6.001642e+003,1.351973e-001
6.005499e+003,1.336804e-001
6.009356e+003,1.363394e-001
6.013213e+003,1.422494e-001
6.017070e+003,1.461971e-001
6.020927e+003,1.427752e-001
6.024785e+003,1.369928e-001
6.028642e+003,1.369230e-001
6.032499e+003,1.373049e-001
6.036356e+003,1.359794e-001
6.040213e+003,1.351706e-001
6.044070e+003,1.356887e-001
6.047927e+003,1.383841e-001
6.051784e+003,1.350473e-001
6.055641e+003,1.327314e-001
6.059499e+003,1.307496e-001
6.063355e+003,1.308627e-001
6.067212e+003,1.323112e-001
6.071070e+003,1.337882e-001
6.074927e+003,1.373207e-001
6.078784e+003,1.413546e-001
6.082641e+003,1.360440e-001
6.086498e+003,1.332395e-001
6.090355e+003,1.310125e-001
6.094212e+003,1.329303e-001
6.098069e+003,1.362892e-001
6.101926e+003,1.356863e-001
6.105784e+003,1.258690e-001
6.109641e+003,1.294160e-001
6.113498e+003,1.312182e-001
6.117355e+003,1.262296e-001
6.121212e+003,1.255709e-001
6.125069e+003,1.238510e-001
6.128926e+003,1.264759e-001
6.132783e+003,1.393266e-001
6.136640e+003,1.385694e-001
6.140498e+003,1.332390e-001
6.144354e+003,1.394329e-001
6.148211e+003,1.388534e-001
6.152069e+003,1.285166e-001
6.155926e+003,1.329681e-001
6.159783e+003,1.295001e-001
6.163640e+003,1.234179e-001
6.167497e+003,1.259589e-001
6.171354e+003,1.258098e-001
6.175211e+003,1.206316e-001
6.179068e+003,1.244734e-001
6.182925e+003,1.264674e-001
6.186783e+003,1.237313e-001
6.190640e+003,1.257709e-001
6.194497e+003,1.276579e-001
6.198354e+003,1.253982e-001
6.202211e+003,1.299419e-001
6.206068e+003,1.395681e-001
6.209925e+003,1.356000e-001
6.213782e+003,1.278318e-001
6.217639e+003,1.238730e-001
6.221497e+003,1.295480e-001
6.225354e+003,1.335806e-001
6.229210e+003,1.264362e-001
6.233068e+003,1.247831e-001
6.236925e+003,1.242800e-001
6.240782e+003,1.235209e-001
6.244639e+003,1.163748e-001
6.248496e+003,1.246422e-001
6.252353e+003,1.352310e-001
6.256210e+003,1.234419e-001
6.260067e+003,1.151339e-001
6.263924e+003,1.206112e-001
6.267782e+003,1.196905e-001
6.271639e+003,1.196156e-001
6.275496e+003,1.262729e-001
6.279353e+003,1.328707e-001
6.283210e+003,1.307091e-001
6.287067e+003,1.271817e-001
6.290924e+003,1.198276e-001
6.294781e+003,1.230500e-001
6.298638e+003,1.233274e-001
6.302496e+003,1.238401e-001
6.306353e+003,1.209655e-001
6.310209e+003,1.145008e-001
6.314067e+003,1.212298e-001
6.317924e+003,1.279846e-001
6.321781e+003,1.185269e-001
6.325638e+003,1.183863e-001
6.329495e+003,1.224934e-001
6.333352e+003,1.164946e-001
6.337209e+003,1.141958e-001
6.341066e+003,1.136696e-001
6.344923e+003,1.117949e-001
6.348780e+003,1.106597e-001
6.352638e+003,1.130617e-001
6.356495e+003,1.233336e-001
6.360352e+003,1.330685e-001
6.364209e+003,1.344918e-001
6.368066e+003,1.201578e-001
6.371923e+003,1.088913e-001
6.375780e+003,1.132408e-001
6.379637e+003,1.040796e-001
6.383494e+003,9.966534e-002
6.387352e+003,1.188575e-001
6.391208e+003,1.171593e-001
6.395065e+003,1.074775e-001
6.398923e+003,1.192189e-001
6.402780e+003,1.263279e-001
6.406637e+003,1.246680e-001
6.410494e+003,1.218410e-001
6.414351e+003,1.158443e-001
6.418208e+003,1.059671e-001
6.422065e+003,1.044111e-001
6.425922e+003,1.030053e-001
6.429779e+003,1.025127e-001
6.433637e+003,1.127871e-001
6.437494e+003,1.290621e-001
6.441351e+003,1.332916e-001
6.445208e+003,1.242772e-001
6.449065e+003,1.173389e-001
6.452922e+003,1.131591e-001
6.456779e+003,1.062708e-001
6.460636e+003,1.017646e-001
6.464493e+003,1.045613e-001
6.468351e+003,1.113290e-001
6.472208e+003,1.116114e-001
6.476064e+003,1.151953e-001
6.479922e+003,1.079158e-001
6.483779e+003,1.022328e-001
6.487636e+003,1.128594e-001
6.491493e+003,1.197285e-001
6.495350e+003,1.202663e-001
6.499207e+003,1.131181e-001
6.503064e+003,1.025016e-001
6.506921e+003,1.010837e-001
6.510778e+003,1.158930e-001
6.514636e+003,1.238753e-001
6.518493e+003,1.152863e-001
6.522350e+003,1.091591e-001
6.526207e+003,1.118893e-001
6.530064e+003,1.144744e-001
6.533921e+003,1.138625e-001
6.537778e+003,1.172986e-001
6.541635e+003,1.193127e-001
6.545492e+003,1.220137e-001
6.549350e+003,1.239025e-001
6.553207e+003,1.116901e-001
6.557063e+003,1.070760e-001
6.560921e+003,1.109960e-001
6.564778e+003,1.038686e-001
6.568635e+003,9.763588e-002
6.572492e+003,1.034256e-001
6.576349e+003,1.092450e-001
6.580206e+003,1.174692e-001
6.584063e+003,1.284095e-001
6.587920e+003,1.110497e-001
6.591777e+003,8.830429e-002
6.595635e+003,9.476521e-002
6.599492e+003,1.038567e-001
6.603349e+003,1.094423e-001
6.607206e+003,1.117817e-001
6.611063e+003,1.054031e-001
6.614920e+003,9.688363e-002
6.618777e+003,1.067058e-001
6.622634e+003,1.221505e-001
6.626491e+003,1.234430e-001
6.630349e+003,1.128080e-001
6.634206e+003,1.202901e-001
6.638063e+003,1.303586e-001
6.641920e+003,1.253101e-001
6.645777e+003,1.173711e-001
6.649634e+003,1.212885e-001
6.653491e+003,1.280517e-001
6.657348e+003,1.202428e-001
6.661205e+003,1.010003e-001
6.665063e+003,9.906825e-002
6.668919e+003,1.009530e-001
6.672776e+003,1.049715e-001
6.676634e+003,1.074902e-001
6.680491e+003,1.186557e-001
6.684348e+003,1.205870e-001
6.688205e+003,1.129855e-001
6.692062e+003,1.098198e-001
6.695919e+003,1.176977e-001
6.699776e+003,1.283052e-001
6.703633e+003,1.272984e-001
6.707490e+003,1.197647e-001
6.711348e+003,1.131557e-001
6.715205e+003,1.137607e-001
6.719062e+003,1.151812e-001
6.722919e+003,1.192239e-001
6.726776e+003,1.128730e-001
6.730633e+003,1.015470e-001
6.734490e+003,9.963816e-002
6.738347e+003,1.035389e-001
6.742204e+003,1.120026e-001
6.746062e+003,1.156909e-001
6.749918e+003,1.286371e-001
6.753775e+003,1.239449e-001
6.757633e+003,1.072739e-001
6.761490e+003,9.654251e-002
6.765347e+003,9.801150e-002
6.769204e+003,1.091713e-001
6.773061e+003,1.205224e-001
6.776918e+003,1.200192e-001
6.780775e+003,1.192379e-001
6.784632e+003,1.160302e-001
6.788489e+003,1.015232e-001
6.792347e+003,1.118748e-001
6.796204e+003,1.271176e-001
6.800061e+003,1.357699e-001
6.803918e+003,1.457787e-001
6.807775e+003,1.350954e-001
6.811632e+003,1.181614e-001
6.815489e+003,1.133112e-001
6.819346e+003,1.089974e-001
6.823203e+003,1.081544e-001
6.827061e+003,1.244164e-001
6.830917e+003,1.320258e-001
6.834774e+003,1.181038e-001
6.838632e+003,1.174153e-001
6.842489e+003,1.204961e-001
6.846346e+003,1.194769e-001
6.850203e+003,1.176113e-001
6.854060e+003,1.111705e-001
6.857917e+003,1.074499e-001
6.861774e+003,1.123073e-001
6.865631e+003,1.146105e-001
6.869488e+003,1.209761e-001
6.873346e+003,1.204754e-001
6.877203e+003,1.141017e-001
6.881060e+003,1.191439e-001
6.884917e+003,1.186526e-001
6.888774e+003,1.164417e-001
6.892631e+003,1.108719e-001
6.896488e+003,1.221160e-001
6.900345e+003,1.286317e-001
6.904202e+003,1.181024e-001
6.908060e+003,9.930478e-002
6.911917e+003,1.027729e-001
6.915773e+003,1.282406e-001
6.919631e+003,1.157164e-001
6.923488e+003,9.060638e-002
6.927345e+003,1.049519e-001
6.931202e+003,1.251570e-001
6.935059e+003,1.399147e-001
6.938916e+003,1.300931e-001
6.942773e+003,1.238136e-001
6.946630e+003,1.394904e-001
6.950487e+003,1.388040e-001
6.954345e+003,1.217170e-001
6.958202e+003,1.014905e-001
6.962059e+003,1.069490e-001
6.965916e+003,1.166833e-001
6.969773e+003,1.176760e-001
6.973630e+003,1.102546e-001
6.977487e+003,9.760124e-002
6.981344e+003,1.091881e-001
6.985201e+003,1.297894e-001
6.989059e+003,1.129118e-001
6.992916e+003,1.059835e-001
6.996772e+003,1.041334e-001
7.000630e+003,9.831908e-002
7.004487e+003,1.021668e-001
7.008344e+003,1.248019e-001
7.012201e+003,1.348909e-001
7.016058e+003,1.274721e-001
7.019915e+003,1.388417e-001
7.023772e+003,1.330211e-001
7.027629e+003,1.011876e-001
7.031486e+003,9.843142e-002
7.035344e+003,1.002535e-001
7.039201e+003,1.020834e-001
7.043058e+003,1.178688e-001
7.046915e+003,1.208652e-001
7.050772e+003,1.212098e-001
7.054629e+003,1.242243e-001
7.058486e+003,1.163060e-001
7.062343e+003,1.111819e-001
7.066200e+003,9.085771e-002
7.070058e+003,7.615064e-002
7.073915e+003,8.698113e-002
7.077771e+003,1.041305e-001
7.081629e+003,1.067681e-001
7.085486e+003,1.094734e-001
7.089343e+003,1.163125e-001
7.093200e+003,1.219611e-001
7.097057e+003,1.239999e-001
7.100914e+003,1.208248e-001
7.104771e+003,1.141165e-001
7.108628e+003,1.009146e-001
7.112485e+003,9.904148e-002
7.116343e+003,1.055621e-001
7.120200e+003,1.242216e-001
7.124057e+003,1.510314e-001
7.127914e+003,1.549434e-001
7.131771e+003,1.420293e-001
7.135628e+003,1.296419e-001
7.139485e+003,1.144910e-001
7.143342e+003,1.141413e-001
7.147199e+003,1.367235e-001
7.151057e+003,1.497187e-001
7.154914e+003,1.393724e-001
7.158771e+003,1.324030e-001
7.162628e+003,1.302956e-001
7.166485e+003,1.406109e-001
7.170342e+003,1.194772e-001
7.174199e+003,1.203839e-001
7.178056e+003,1.241519e-001
7.181913e+003,1.129628e-001
7.185771e+003,1.178603e-001
7.189627e+003,1.200111e-001
7.193484e+003,1.162586e-001
7.197342e+003,1.201802e-001
7.201199e+003,1.330291e-001
7.205056e+003,1.456810e-001
7.208913e+003,1.420156e-001
7.212770e+003,1.269695e-001
7.216627e+003,1.278131e-001
7.220484e+003,1.465589e-001
7.224341e+003,1.492876e-001
7.228198e+003,1.240336e-001
7.232056e+003,9.149989e-002
7.235913e+003,1.071054e-001
7.239770e+003,1.225414e-001
7.243627e+003,1.162211e-001
7.247484e+003,1.120128e-001
7.251341e+003,1.155440e-001
7.255198e+003,1.186679e-001
7.259055e+003,1.193134e-001
7.262912e+003,1.225227e-001
7.266770e+003,1.077920e-001
7.270626e+003,9.650514e-002
7.274483e+003,1.243376e-001
7.278341e+003,1.573287e-001
7.282198e+003,1.381496e-001
7.286055e+003,1.190823e-001
7.289912e+003,1.197067e-001
7.293769e+003,1.352700e-001
7.297626e+003,1.261392e-001
7.301483e+003,1.021475e-001
7.305340e+003,9.749784e-002
7.309197e+003,1.126533e-001
7.313055e+003,1.207602e-001
7.316912e+003,1.340370e-001
7.320769e+003,1.260031e-001
7.324626e+003,1.034552e-001
7.328483e+003,1.135153e-001
7.332340e+003,1.262880e-001
7.336197e+003,1.342980e-001
7.340054e+003,1.137865e-001
7.343911e+003,1.034822e-001
7.347769e+003,1.169794e-001
7.351625e+003,1.109450e-001
7.355482e+003,1.206343e-001
7.359340e+003,1.430404e-001
7.363197e+003,1.441159e-001
7.367054e+003,1.533949e-001
7.370911e+003,1.475547e-001
7.374768e+003,1.117359e-001
7.378625e+003,9.765401e-002
7.382482e+003,1.119512e-001
7.386339e+003,1.328083e-001
7.390196e+003,1.354529e-001
7.394054e+003,1.361435e-001
7.397911e+003,1.267591e-001
7.401768e+003,1.090917e-001
7.405625e+003,1.049637e-001
7.409482e+003,1.303995e-001
7.413339e+003,1.390264e-001
7.417196e+003,1.215480e-001
7.421053e+003,1.112943e-001
7.424910e+003,1.017865e-001
7.428768e+003,8.583459e-002
7.432625e+003,1.175162e-001
7.436481e+003,1.217504e-001
7.440339e+003,9.199581e-002
7.444196e+003,8.206226e-002
7.448053e+003,1.204560e-001
7.451910e+003,1.243775e-001
7.455767e+003,1.033013e-001
7.459624e+003,1.111442e-001
7.463481e+003,1.397160e-001
7.467338e+003,1.450938e-001
7.471195e+003,1.316211e-001
7.475053e+003,1.299378e-001
7.478910e+003,1.335306e-001
7.482767e+003,1.279644e-001
7.486624e+003,1.238470e-001
7.490481e+003,1.330424e-001
7.494338e+003,1.159015e-001
7.498195e+003,1.144776e-001
7.502052e+003,1.279660e-001
7.505909e+003,1.248178e-001
7.509767e+003,1.121291e-001
7.513624e+003,1.310649e-001
7.517480e+003,1.648834e-001
7.521338e+003,1.840609e-001
7.525195e+003,1.759319e-001
7.529052e+003,1.504659e-001
7.532909e+003,1.536785e-001
7.536766e+003,1.622784e-001
7.540623e+003,1.595455e-001
7.544480e+003,1.703005e-001
7.548337e+003,1.824754e-001
7.552194e+003,1.965769e-001
7.556052e+003,1.578873e-001
7.559909e+003,1.081032e-001
7.563766e+003,1.208016e-001
7.567623e+003,1.319055e-001
7.571480e+003,1.233277e-001
7.575337e+003,1.233769e-001
7.579194e+003,1.320716e-001
7.583051e+003,1.392794e-001
7.586908e+003,1.485900e-001
7.590766e+003,1.302746e-001
7.594623e+003,1.218899e-001
7.598479e+003,1.333451e-001
7.602337e+003,1.393325e-001
7.606194e+003,1.524304e-001
7.610051e+003,1.321772e-001
7.613908e+003,1.408433e-001
7.617765e+003,1.878226e-001
7.621622e+003,1.273338e-001
7.625479e+003,8.331261e-002
7.629336e+003,9.721980e-002
7.633193e+003,1.510158e-001
7.637051e+003,1.695538e-001
7.640908e+003,1.307717e-001
7.644765e+003,1.222709e-001
7.648622e+003,1.219219e-001
7.652479e+003,8.390051e-002
7.656336e+003,8.257011e-002
7.660193e+003,1.322807e-001
7.664050e+003,1.232905e-001
7.667907e+003,1.224367e-001
7.671765e+003,1.347388e-001
7.675622e+003,1.157400e-001
7.679479e+003,1.314224e-001
7.683336e+003,1.406514e-001
7.687193e+003,1.063099e-001
7.691050e+003,1.117597e-001
7.694907e+003,1.326301e-001
7.698764e+003,1.350774e-001
7.702621e+003,1.645155e-001
7.706479e+003,1.681395e-001
7.710335e+003,1.857159e-001
7.714192e+003,1.788218e-001
7.718050e+003,1.436235e-001
7.721907e+003,1.426798e-001
7.725764e+003,1.700007e-001
7.729621e+003,1.838558e-001
7.733478e+003,1.508820e-001
7.737335e+003,1.195848e-001
7.741192e+003,1.007382e-001
7.745049e+003,7.058782e-002
7.748906e+003,8.969809e-002
7.752764e+003,1.426259e-001
7.756621e+003,1.359619e-001
7.760478e+003,1.022929e-001
7.764335e+003,1.020472e-001
7.768192e+003,1.198271e-001
7.772049e+003,1.248001e-001
7.775906e+003,1.173546e-001
7.779763e+003,1.304277e-001
7.783620e+003,1.403576e-001
7.787478e+003,1.164051e-001
7.791334e+003,1.417381e-001
7.795191e+003,1.805719e-001
7.799049e+003,2.052197e-001
7.802906e+003,1.732604e-001
7.806763e+003,1.324273e-001
7.810620e+003,1.262477e-001
7.814477e+003,1.257846e-001
7.818334e+003,1.329494e-001
7.822191e+003,7.812425e-002
7.826048e+003,6.265359e-002
7.829905e+003,1.330619e-001
7.833763e+003,1.768164e-001
7.837620e+003,1.545173e-001
7.841477e+003,1.020215e-001
7.845334e+003,8.168854e-002
7.849191e+003,1.138997e-001
7.853048e+003,1.413362e-001
7.856905e+003,1.813899e-001
7.860762e+003,2.212657e-001
7.864619e+003,2.005946e-001
7.868477e+003,1.231328e-001
7.872333e+003,1.467281e-001
7.876190e+003,2.144910e-001
7.880048e+003,2.314851e-001
7.883905e+003,1.684566e-001
7.887762e+003,1.431589e-001
7.891619e+003,1.196344e-001
7.895476e+003,7.671671e-002
7.899333e+003,4.132564e-002
7.903190e+003,6.075261e-002
7.907047e+003,8.420554e-002
7.910904e+003,1.085015e-001
7.914762e+003,1.876210e-001
7.918619e+003,2.208369e-001
7.922476e+003,1.933396e-001
7.926333e+003,1.715943e-001
7.930190e+003,1.912691e-001
7.934047e+003,2.205176e-001
7.937904e+003,1.754592e-001
7.941761e+003,1.516730e-001
7.945618e+003,1.833832e-001
7.949476e+003,1.968364e-001
7.953333e+003,1.979891e-001
7.957189e+003,1.890786e-001
7.961047e+003,1.419195e-001
7.964904e+003,1.377379e-001
7.968761e+003,8.055028e-002
7.972618e+003,7.645909e-002
7.976475e+003,1.963587e-001
7.980332e+003,2.414810e-001
7.984189e+003,1.828441e-001
7.988046e+003,8.915690e-002
7.991903e+003,7.843258e-002
7.995761e+003,2.221267e-001
7.999618e+003,2.723910e-001
