4.011380e+002,-9.487280e-002
4.049951e+002,6.270947e-001
4.088522e+002,2.496744e-001
4.127093e+002,2.967683e-001
4.165664e+002,-4.123812e-001
4.204235e+002,6.000000e+000
4.242806e+002,6.000000e+000
4.281377e+002,6.000000e+000
4.319948e+002,-1.547639e+000
4.358519e+002,4.408655e-001
4.397090e+002,6.000000e+000
4.435661e+002,6.000000e+000
4.474232e+002,-5.991264e-003
4.512803e+002,4.664798e-002
4.551374e+002,7.714251e-001
4.589945e+002,6.000000e+000
4.628516e+002,-9.816309e-001
4.667087e+002,-4.970932e-001
4.705658e+002,-1.495109e-001
4.744229e+002,5.019614e-001
4.782800e+002,6.000000e+000
4.821371e+002,6.000000e+000
4.859941e+002,5.490702e-001
4.898513e+002,6.000000e+000
4.937083e+002,6.000000e+000
4.975654e+002,1.009926e+000
5.014225e+002,6.000000e+000
5.052796e+002,6.000000e+000
5.091367e+002,1.277467e-001
5.129938e+002,-9.809703e-002
5.168509e+002,4.219582e-001
5.207080e+002,6.000000e+000
5.245651e+002,-9.245373e-002
5.284222e+002,-3.599878e-001
5.322793e+002,1.514660e+000
5.361364e+002,-2.156688e-001
5.399935e+002,6.000000e+000
5.438506e+002,6.000000e+000
5.477077e+002,-1.222220e+000
5.515648e+002,-1.556150e-001
5.554219e+002,6.000000e+000
5.592790e+002,-7.060317e-001
5.631361e+002,7.692441e-001
5.669932e+002,6.000000e+000
5.708503e+002,-3.233167e-001
5.747074e+002,1.490376e-001
5.785645e+002,6.000000e+000
5.824216e+002,5.640361e-001
5.862787e+002,6.000000e+000
5.901357e+002,-1.898840e-001
5.939929e+002,3.055347e-001
5.978499e+002,2.156716e-001
6.017070e+002,-6.844992e-001
6.055641e+002,6.000000e+000
6.094212e+002,-1.247262e+000
6.132783e+002,-2.565274e-001
6.171354e+002,-3.568921e-001
6.209925e+002,-1.077575e+000
6.248496e+002,6.000000e+000
6.287067e+002,6.000000e+000
6.325638e+002,6.000000e+000
6.364209e+002,6.000000e+000
6.402780e+002,8.592073e-001
6.441351e+002,2.881417e-001
6.479922e+002,6.000000e+000
6.518493e+002,6.873418e-001
6.557064e+002,-6.504456e-001
6.595635e+002,1.921402e+000
6.634205e+002,7.114735e-001
6.672777e+002,-5.645899e-001
6.711348e+002,6.000000e+000
6.749918e+002,6.000000e+000
6.788490e+002,6.000000e+000
6.827061e+002,-3.054301e-001
6.865631e+002,6.000000e+000
6.904203e+002,6.000000e+000
6.942773e+002,6.000000e+000
6.981344e+002,6.000000e+000
7.019916e+002,6.000000e+000
7.058486e+002,6.000000e+000
7.097057e+002,5.163786e-001
7.135629e+002,-1.683376e-002
7.174199e+002,-1.275570e-001
7.212770e+002,-2.218966e-001
7.251342e+002,6.000000e+000
7.289912e+002,6.000000e+000
7.328483e+002,6.000000e+000
7.367054e+002,6.000000e+000
7.405625e+002,6.000000e+000
7.444196e+002,-7.764558e-002
7.482767e+002,-7.408863e-001
7.521338e+002,6.000000e+000
7.559908e+002,6.000000e+000
7.598480e+002,2.537564e-001
7.637051e+002,6.000000e+000
7.675621e+002,6.000000e+000
7.714193e+002,-3.530893e-001
7.752764e+002,-2.604629e-001
7.791334e+002,1.876346e-001
7.829905e+002,6.000000e+000
7.868477e+002,-1.499649e+000
7.907047e+002,6.000000e+000
7.945618e+002,6.000000e+000
7.984189e+002,-2.127636e+000
8.022760e+002,-2.405640e-001
8.061331e+002,6.000000e+000
8.099902e+002,3.167565e-001
8.138473e+002,6.000000e+000
8.177044e+002,8.229709e-001
8.215615e+002,1.890844e-001
8.254186e+002,1.560869e-001
8.292757e+002,6.108087e-001
8.331328e+002,6.000000e+000
8.369899e+002,6.000000e+000
8.408470e+002,6.000000e+000
8.447041e+002,6.000000e+000
8.485612e+002,6.000000e+000
8.524183e+002,6.000000e+000
8.562754e+002,6.000000e+000
8.601324e+002,1.482143e+000
8.639896e+002,9.477823e-001
8.678467e+002,1.226932e+000
8.717037e+002,6.000000e+000
8.755609e+002,1.099641e+000
8.794180e+002,9.971833e-001
8.832750e+002,1.198688e+000
8.871321e+002,1.484628e+000
8.909893e+002,1.486882e+000
8.948463e+002,6.000000e+000
8.987034e+002,6.000000e+000
9.025605e+002,1.764987e+000
9.064176e+002,1.094312e+000
9.102747e+002,9.942453e-001
9.141318e+002,2.655303e+000
9.179889e+002,6.000000e+000
9.218461e+002,6.000000e+000
9.257031e+002,6.000000e+000
9.295602e+002,2.144874e+000
9.334174e+002,1.743465e+000
9.372744e+002,6.000000e+000
9.411315e+002,6.000000e+000
9.449886e+002,6.000000e+000
9.488457e+002,6.000000e+000
9.527028e+002,1.832116e+000
9.565599e+002,1.585135e+000
9.604170e+002,1.955464e+000
9.642740e+002,6.000000e+000
9.681312e+002,6.000000e+000
9.719883e+002,6.000000e+000
9.758453e+002,2.263634e+000
9.797025e+002,6.000000e+000
9.835596e+002,2.563152e+000
9.874166e+002,1.709769e+000
9.912738e+002,1.695375e+000
9.951309e+002,1.692631e+000
9.989879e+002,1.727239e+000
1.002845e+003,1.664550e+000
1.006702e+003,1.627892e+000
1.010559e+003,1.884424e+000
1.014416e+003,1.756753e+000
1.018273e+003,1.472342e+000
1.022130e+003,1.861162e+000
1.025988e+003,4.517533e+000
1.029845e+003,6.000000e+000
1.033702e+003,6.000000e+000
1.037559e+003,1.998702e+000
1.041416e+003,1.574989e+000
1.045273e+003,1.699741e+000
1.049130e+003,1.818761e+000
1.052987e+003,1.671554e+000
1.056844e+003,1.695222e+000
1.060702e+003,2.039845e+000
1.064559e+003,1.884543e+000
1.068416e+003,1.699269e+000
1.072273e+003,1.575332e+000
1.076130e+003,1.510476e+000
1.079987e+003,1.884045e+000
1.083844e+003,2.809602e+000
1.087701e+003,1.760126e+000
1.091558e+003,1.381652e+000
1.095415e+003,1.330747e+000
1.099272e+003,1.351603e+000
1.103130e+003,1.392537e+000
1.106987e+003,1.404469e+000
1.110844e+003,1.366413e+000
1.114701e+003,1.290115e+000
1.118558e+003,1.331402e+000
1.122415e+003,1.478274e+000
1.126272e+003,1.444180e+000
1.130129e+003,1.269815e+000
1.133986e+003,1.247247e+000
1.137843e+003,1.275077e+000
1.141701e+003,1.274746e+000
1.145558e+003,1.248700e+000
1.149415e+003,1.282445e+000
1.153272e+003,1.336586e+000
1.157129e+003,1.312132e+000
1.160986e+003,1.251571e+000
1.164843e+003,1.208373e+000
1.168700e+003,1.194259e+000
1.172557e+003,1.199352e+000
1.176414e+003,1.192852e+000
1.180271e+003,1.225607e+000
1.184129e+003,1.274397e+000
1.187986e+003,1.333021e+000
1.191843e+003,1.265803e+000
1.195700e+003,1.184124e+000
1.199557e+003,1.164617e+000
1.203414e+003,1.170977e+000
1.207271e+003,1.137672e+000
1.211128e+003,1.066020e+000
1.214985e+003,1.021576e+000
1.218842e+003,9.821987e-001
1.222699e+003,9.436089e-001
1.226557e+003,8.876308e-001
1.230414e+003,8.221771e-001
1.234271e+003,7.752978e-001
1.238128e+003,7.298656e-001
1.241985e+003,6.842771e-001
1.245842e+003,6.520301e-001
1.249699e+003,6.304252e-001
1.253556e+003,6.058532e-001
1.257413e+003,5.789216e-001
1.261271e+003,5.615121e-001
1.265128e+003,5.447190e-001
1.268985e+003,5.240358e-001
1.272842e+003,5.068913e-001
1.276699e+003,4.970911e-001
1.280556e+003,4.878721e-001
1.284413e+003,4.767246e-001
1.288270e+003,4.615952e-001
1.292127e+003,4.501759e-001
1.295984e+003,4.425971e-001
1.299841e+003,4.351818e-001
1.303698e+003,4.290468e-001
1.307556e+003,4.178126e-001
1.311413e+003,4.083314e-001
1.315270e+003,3.988038e-001
1.319127e+003,3.911503e-001
1.322984e+003,3.860491e-001
1.326841e+003,3.828414e-001
1.330698e+003,3.772708e-001
1.334555e+003,3.691333e-001
1.338412e+003,3.658322e-001
1.342270e+003,3.612096e-001
1.346127e+003,3.567717e-001
1.349984e+003,3.506671e-001
1.353841e+003,3.474872e-001
1.357698e+003,3.543529e-001
1.361555e+003,3.596573e-001
1.365412e+003,3.605867e-001
1.369269e+003,3.677814e-001
1.373126e+003,3.755503e-001
1.376983e+003,3.818449e-001
1.380840e+003,3.874093e-001
1.384698e+003,3.990729e-001
1.388555e+003,4.051424e-001
1.392412e+003,4.104222e-001
1.396269e+003,4.205357e-001
1.400126e+003,4.303062e-001
1.403983e+003,4.416742e-001
1.407840e+003,4.532286e-001
1.411697e+003,4.639089e-001
1.415554e+003,4.690059e-001
1.419411e+003,4.725537e-001
1.423269e+003,4.847737e-001
1.427126e+003,4.955947e-001
1.430983e+003,4.933116e-001
1.434840e+003,4.924363e-001
1.438697e+003,4.939449e-001
1.442554e+003,4.884636e-001
1.446411e+003,4.870779e-001
1.450268e+003,4.785379e-001
1.454125e+003,4.675666e-001
1.457982e+003,4.642398e-001
1.461839e+003,4.601695e-001
1.465697e+003,4.520533e-001
1.469554e+003,4.453491e-001
1.473411e+003,4.480827e-001
1.477268e+003,4.573576e-001
1.481125e+003,4.649141e-001
1.484982e+003,4.754096e-001
1.488839e+003,4.856354e-001
1.492696e+003,4.891316e-001
1.496553e+003,4.960105e-001
1.500411e+003,5.016695e-001
1.504268e+003,5.072584e-001
1.508125e+003,5.099609e-001
1.511982e+003,5.100352e-001
1.515839e+003,5.017419e-001
1.519696e+003,4.879468e-001
1.523553e+003,4.871079e-001
1.527410e+003,4.889190e-001
1.531267e+003,4.816653e-001
1.535124e+003,4.766780e-001
1.538981e+003,4.647075e-001
1.542839e+003,4.474024e-001
1.546696e+003,4.368642e-001
1.550553e+003,4.310707e-001
1.554410e+003,4.177359e-001
1.558267e+003,4.018794e-001
1.562124e+003,3.945846e-001
1.565981e+003,3.902475e-001
1.569838e+003,3.888915e-001
1.573695e+003,3.884222e-001
1.577552e+003,3.830516e-001
1.581410e+003,3.785648e-001
1.585267e+003,3.805366e-001
1.589124e+003,3.846595e-001
1.592981e+003,3.907159e-001
1.596838e+003,3.986908e-001
1.600695e+003,4.089208e-001
1.604552e+003,4.269665e-001
1.608409e+003,4.446017e-001
1.612266e+003,4.618319e-001
1.616123e+003,4.875546e-001
1.619980e+003,5.156854e-001
1.623838e+003,5.397242e-001
1.627695e+003,5.522191e-001
1.631552e+003,5.654657e-001
1.635409e+003,5.797063e-001
1.639266e+003,5.805622e-001
1.643123e+003,5.750814e-001
1.646980e+003,5.628510e-001
1.650837e+003,5.423696e-001
1.654694e+003,5.235578e-001
1.658551e+003,5.017246e-001
1.662409e+003,4.830174e-001
1.666266e+003,4.697502e-001
1.670123e+003,4.524269e-001
1.673980e+003,4.315870e-001
1.677837e+003,4.140012e-001
1.681694e+003,3.967832e-001
1.685551e+003,3.762663e-001
1.689408e+003,3.618385e-001
1.693265e+003,3.469414e-001
1.697122e+003,3.348226e-001
1.700979e+003,3.316463e-001
1.704837e+003,3.304880e-001
1.708694e+003,3.263819e-001
1.712551e+003,3.178474e-001
1.716408e+003,3.102270e-001
1.720265e+003,3.075752e-001
1.724122e+003,3.055166e-001
1.727979e+003,3.060128e-001
1.731836e+003,3.046678e-001
1.735693e+003,3.013190e-001
1.739550e+003,3.009188e-001
1.743408e+003,3.018413e-001
1.747265e+003,2.984311e-001
1.751122e+003,2.972150e-001
1.754979e+003,3.017968e-001
1.758836e+003,3.063547e-001
1.762693e+003,3.058276e-001
1.766550e+003,3.016708e-001
1.770407e+003,2.981949e-001
1.774264e+003,2.960982e-001
1.778121e+003,2.951670e-001
1.781979e+003,2.902463e-001
1.785836e+003,2.858450e-001
1.789693e+003,2.858622e-001
1.793550e+003,2.841036e-001
1.797407e+003,2.883170e-001
1.801264e+003,2.853755e-001
1.805121e+003,2.789043e-001
1.808978e+003,2.776653e-001
1.812835e+003,2.741710e-001
1.816692e+003,2.719537e-001
1.820549e+003,2.740034e-001
1.824407e+003,2.744728e-001
1.828264e+003,2.728556e-001
1.832121e+003,2.733375e-001
1.835978e+003,2.761604e-001
1.839835e+003,2.746716e-001
1.843692e+003,2.716070e-001
1.847549e+003,2.729701e-001
1.851406e+003,2.694549e-001
1.855263e+003,2.624933e-001
1.859120e+003,2.599627e-001
1.862978e+003,2.616704e-001
1.866835e+003,2.631225e-001
1.870692e+003,2.577799e-001
1.874549e+003,2.551047e-001
1.878406e+003,2.561600e-001
1.882263e+003,2.565975e-001
1.886120e+003,2.547777e-001
1.889977e+003,2.525899e-001
1.893834e+003,2.563700e-001
1.897691e+003,2.592964e-001
1.901548e+003,2.575119e-001
1.905406e+003,2.575751e-001
1.909263e+003,2.600855e-001
1.913120e+003,2.620489e-001
1.916977e+003,2.615614e-001
1.920834e+003,2.601443e-001
1.924691e+003,2.566655e-001
1.928548e+003,2.556300e-001
1.932405e+003,2.558142e-001
1.936262e+003,2.558500e-001
1.940119e+003,2.530303e-001
1.943977e+003,2.492279e-001
1.947834e+003,2.477852e-001
1.951691e+003,2.456551e-001
1.955548e+003,2.468535e-001
1.959405e+003,2.450600e-001
1.963262e+003,2.420890e-001
1.967119e+003,2.391081e-001
1.970976e+003,2.373737e-001
1.974833e+003,2.382369e-001
1.978690e+003,2.388630e-001
1.982547e+003,2.353493e-001
1.986405e+003,2.310173e-001
1.990262e+003,2.319221e-001
1.994119e+003,2.349434e-001
1.997976e+003,2.354365e-001
2.001833e+003,2.329669e-001
2.005690e+003,2.336193e-001
2.009547e+003,2.338528e-001
2.013404e+003,2.326145e-001
2.017261e+003,2.346984e-001
2.021118e+003,2.357402e-001
2.024976e+003,2.344386e-001
2.028833e+003,2.302884e-001
2.032690e+003,2.273786e-001
2.036547e+003,2.296200e-001
2.040404e+003,2.322911e-001
2.044261e+003,2.309860e-001
2.048118e+003,2.292744e-001
2.051975e+003,2.246338e-001
2.055832e+003,2.201156e-001
2.059689e+003,2.208707e-001
2.063546e+003,2.214002e-001
2.067404e+003,2.187346e-001
2.071261e+003,2.186395e-001
2.075118e+003,2.168712e-001
2.078975e+003,2.137405e-001
2.082832e+003,2.130217e-001
2.086689e+003,2.165274e-001
2.090546e+003,2.195234e-001
2.094403e+003,2.183146e-001
2.098260e+003,2.166765e-001
2.102117e+003,2.157225e-001
2.105975e+003,2.169280e-001
2.109832e+003,2.181672e-001
2.113689e+003,2.184963e-001
2.117546e+003,2.201015e-001
2.121403e+003,2.202583e-001
2.125260e+003,2.202954e-001
2.129117e+003,2.216536e-001
2.132974e+003,2.199930e-001
2.136831e+003,2.170723e-001
2.140688e+003,2.174149e-001
2.144545e+003,2.176140e-001
2.148403e+003,2.176467e-001
2.152260e+003,2.170168e-001
2.156117e+003,2.178998e-001
2.159974e+003,2.189142e-001
2.163831e+003,2.167677e-001
2.167688e+003,2.169841e-001
2.171545e+003,2.181415e-001
2.175402e+003,2.160507e-001
2.179259e+003,2.145221e-001
2.183116e+003,2.141054e-001
2.186974e+003,2.162451e-001
2.190831e+003,2.156095e-001
2.194688e+003,2.147471e-001
2.198545e+003,2.153826e-001
2.202402e+003,2.146852e-001
2.206259e+003,2.182708e-001
2.210116e+003,2.226389e-001
2.213973e+003,2.238351e-001
2.217830e+003,2.209703e-001
2.221688e+003,2.224424e-001
2.225544e+003,2.281145e-001
2.229402e+003,2.294031e-001
2.233259e+003,2.257924e-001
2.237116e+003,2.282427e-001
2.240973e+003,2.301849e-001
2.244830e+003,2.274970e-001
2.248687e+003,2.250130e-001
2.252544e+003,2.228292e-001
2.256401e+003,2.215169e-001
2.260258e+003,2.216056e-001
2.264115e+003,2.196696e-001
2.267973e+003,2.195321e-001
2.271830e+003,2.226018e-001
2.275687e+003,2.258687e-001
2.279544e+003,2.242331e-001
2.283401e+003,2.204384e-001
2.287258e+003,2.221974e-001
2.291115e+003,2.241718e-001
2.294972e+003,2.232169e-001
2.298829e+003,2.255593e-001
2.302687e+003,2.281790e-001
2.306543e+003,2.242462e-001
2.310401e+003,2.217207e-001
2.314258e+003,2.214339e-001
2.318115e+003,2.257270e-001
2.321972e+003,2.324090e-001
2.325829e+003,2.278700e-001
2.329686e+003,2.265625e-001
2.333543e+003,2.272911e-001
2.337400e+003,2.246504e-001
2.341257e+003,2.223825e-001
2.345115e+003,2.252925e-001
2.348972e+003,2.286473e-001
2.352829e+003,2.249120e-001
2.356686e+003,2.182144e-001
2.360543e+003,2.167759e-001
2.364400e+003,2.215075e-001
2.368257e+003,2.263433e-001
2.372114e+003,2.273153e-001
2.375971e+003,2.237762e-001
2.379828e+003,2.242078e-001
2.383686e+003,2.280678e-001
2.387542e+003,2.290969e-001
2.391400e+003,2.276827e-001
2.395257e+003,2.256457e-001
2.399114e+003,2.244308e-001
2.402971e+003,2.245129e-001
2.406828e+003,2.288772e-001
2.410685e+003,2.286158e-001
2.414542e+003,2.283714e-001
2.418399e+003,2.283243e-001
2.422256e+003,2.279154e-001
2.426114e+003,2.271832e-001
2.429971e+003,2.253075e-001
2.433828e+003,2.251191e-001
2.437685e+003,2.244887e-001
2.441542e+003,2.235800e-001
2.445399e+003,2.206443e-001
2.449256e+003,2.228992e-001
2.453113e+003,2.249607e-001
2.456970e+003,2.202147e-001
2.460827e+003,2.167998e-001
2.464684e+003,2.185996e-001
2.468542e+003,2.200014e-001
2.472399e+003,2.176788e-001
2.476256e+003,2.143957e-001
2.480113e+003,2.165343e-001
2.483970e+003,2.215477e-001
2.487827e+003,2.234575e-001
2.491684e+003,2.216733e-001
2.495541e+003,2.207212e-001
2.499398e+003,2.177581e-001
2.503255e+003,2.173359e-001
2.507113e+003,2.193877e-001
2.510969e+003,2.181905e-001
2.514827e+003,2.183665e-001
2.518684e+003,2.195459e-001
2.522541e+003,2.200960e-001
2.526398e+003,2.219529e-001
2.530255e+003,2.227792e-001
2.534112e+003,2.231230e-001
2.537969e+003,2.235634e-001
2.541826e+003,2.238284e-001
2.545683e+003,2.250168e-001
2.549541e+003,2.246764e-001
2.553398e+003,2.204089e-001
2.557255e+003,2.197109e-001
2.561112e+003,2.231024e-001
2.564969e+003,2.247009e-001
2.568826e+003,2.235945e-001
2.572683e+003,2.259632e-001
2.576540e+003,2.293036e-001
2.580397e+003,2.296222e-001
2.584254e+003,2.327435e-001
2.588112e+003,2.317020e-001
2.591969e+003,2.307324e-001
2.595826e+003,2.320743e-001
2.599683e+003,2.346454e-001
2.603540e+003,2.379277e-001
2.607397e+003,2.399154e-001
2.611254e+003,2.419523e-001
2.615111e+003,2.438288e-001
2.618968e+003,2.433310e-001
2.622825e+003,2.443375e-001
2.626682e+003,2.505132e-001
2.630540e+003,2.559951e-001
2.634397e+003,2.557192e-001
2.638254e+003,2.514844e-001
2.642111e+003,2.515280e-001
2.645968e+003,2.550422e-001
2.649825e+003,2.573703e-001
2.653682e+003,2.579234e-001
2.657539e+003,2.636254e-001
2.661396e+003,2.700773e-001
2.665253e+003,2.727689e-001
2.669111e+003,2.716829e-001
2.672968e+003,2.701921e-001
2.676825e+003,2.715786e-001
2.680682e+003,2.755708e-001
2.684539e+003,2.756107e-001
2.688396e+003,2.755160e-001
2.692253e+003,2.784684e-001
2.696110e+003,2.806440e-001
2.699967e+003,2.819560e-001
2.703824e+003,2.840213e-001
2.707681e+003,2.880944e-001
2.711539e+003,2.965575e-001
2.715396e+003,3.002447e-001
2.719253e+003,3.024810e-001
2.723110e+003,3.058766e-001
2.726967e+003,3.081622e-001
2.730824e+003,3.099085e-001
2.734681e+003,3.147399e-001
2.738538e+003,3.191304e-001
2.742395e+003,3.190211e-001
2.746252e+003,3.157095e-001
2.750110e+003,3.159272e-001
2.753967e+003,3.238868e-001
2.757824e+003,3.272960e-001
2.761681e+003,3.304524e-001
2.765538e+003,3.372554e-001
2.769395e+003,3.393359e-001
2.773252e+003,3.383885e-001
2.777109e+003,3.391703e-001
2.780966e+003,3.425317e-001
2.784823e+003,3.460521e-001
2.788680e+003,3.490383e-001
2.792538e+003,3.530707e-001
2.796395e+003,3.575963e-001
2.800252e+003,3.604872e-001
2.804109e+003,3.611111e-001
2.807966e+003,3.662899e-001
2.811823e+003,3.701685e-001
2.815680e+003,3.706106e-001
2.819537e+003,3.743946e-001
2.823394e+003,3.793419e-001
2.827251e+003,3.835069e-001
2.831109e+003,3.877454e-001
2.834966e+003,3.865120e-001
2.838823e+003,3.850176e-001
2.842680e+003,3.931478e-001
2.846537e+003,4.017128e-001
2.850394e+003,4.088033e-001
2.854251e+003,4.105336e-001
2.858108e+003,4.099623e-001
2.861965e+003,4.090308e-001
2.865823e+003,4.125244e-001
2.869679e+003,4.187327e-001
2.873537e+003,4.246577e-001
2.877394e+003,4.276035e-001
2.881251e+003,4.308644e-001
2.885108e+003,4.380280e-001
2.888965e+003,4.427934e-001
2.892822e+003,4.455795e-001
2.896679e+003,4.496758e-001
2.900536e+003,4.567983e-001
2.904393e+003,4.619114e-001
2.908250e+003,4.659609e-001
2.912108e+003,4.680984e-001
2.915965e+003,4.712525e-001
2.919822e+003,4.756384e-001
2.923679e+003,4.823465e-001
2.927536e+003,4.851135e-001
2.931393e+003,4.888766e-001
2.935250e+003,4.901804e-001
2.939107e+003,4.917234e-001
2.942964e+003,4.922950e-001
2.946822e+003,4.944083e-001
2.950678e+003,5.026550e-001
2.954536e+003,5.092950e-001
2.958393e+003,5.130559e-001
2.962250e+003,5.196209e-001
2.966107e+003,5.180441e-001
2.969964e+003,5.283819e-001
2.973821e+003,5.382405e-001
2.977678e+003,5.407058e-001
2.981535e+003,5.403475e-001
2.985392e+003,5.357388e-001
2.989250e+003,5.399778e-001
2.993107e+003,5.452657e-001
2.996964e+003,5.541780e-001
3.000821e+003,5.656590e-001
3.004678e+003,5.708754e-001
3.008535e+003,5.747044e-001
3.012392e+003,5.833318e-001
3.016249e+003,5.833527e-001
3.020106e+003,5.833105e-001
3.023963e+003,5.964060e-001
3.027821e+003,6.011444e-001
3.031677e+003,5.949950e-001
3.035535e+003,5.997071e-001
3.039392e+003,6.088513e-001
3.043249e+003,6.205103e-001
3.047106e+003,6.235974e-001
3.050963e+003,6.181913e-001
3.054820e+003,6.231508e-001
3.058677e+003,6.291274e-001
3.062534e+003,6.314090e-001
3.066391e+003,6.404133e-001
3.070249e+003,6.524075e-001
3.074106e+003,6.539197e-001
3.077963e+003,6.597828e-001
3.081820e+003,6.601849e-001
3.085677e+003,6.609419e-001
3.089534e+003,6.690766e-001
3.093391e+003,6.724653e-001
3.097248e+003,6.809576e-001
3.101105e+003,6.929600e-001
3.104962e+003,6.970987e-001
3.108820e+003,7.019045e-001
3.112677e+003,7.038955e-001
3.116534e+003,7.200918e-001
3.120391e+003,7.264112e-001
3.124248e+003,7.230305e-001
3.128105e+003,7.302838e-001
3.131962e+003,7.407002e-001
3.135819e+003,7.485737e-001
3.139676e+003,7.477004e-001
3.143533e+003,7.486302e-001
3.147390e+003,7.606166e-001
3.151248e+003,7.721729e-001
3.155105e+003,7.787006e-001
3.158962e+003,7.796154e-001
3.162819e+003,7.840289e-001
3.166676e+003,7.852010e-001
3.170533e+003,7.844431e-001
3.174390e+003,7.897999e-001
3.178247e+003,7.993104e-001
3.182104e+003,8.071154e-001
3.185961e+003,8.169191e-001
3.189819e+003,8.335280e-001
3.193676e+003,8.461328e-001
3.197533e+003,8.476150e-001
3.201390e+003,8.421065e-001
3.205247e+003,8.515503e-001
3.209104e+003,8.604868e-001
3.212961e+003,8.689526e-001
3.216818e+003,8.697758e-001
3.220675e+003,8.703715e-001
3.224532e+003,8.809932e-001
3.228389e+003,8.916888e-001
3.232247e+003,8.896302e-001
3.236104e+003,8.946216e-001
3.239961e+003,8.949164e-001
3.243818e+003,8.819425e-001
3.247675e+003,8.907886e-001
3.251532e+003,8.989921e-001
3.255389e+003,9.002232e-001
3.259246e+003,8.988172e-001
3.263103e+003,9.006292e-001
3.266960e+003,9.063776e-001
3.270818e+003,9.132906e-001
3.274675e+003,9.184123e-001
3.278532e+003,9.214445e-001
3.282389e+003,9.055314e-001
3.286246e+003,8.949697e-001
3.290103e+003,9.028038e-001
3.293960e+003,9.113433e-001
3.297817e+003,9.249082e-001
3.301674e+003,9.413691e-001
3.305531e+003,9.508939e-001
3.309388e+003,9.500799e-001
3.313246e+003,9.475400e-001
3.317103e+003,9.707600e-001
3.320960e+003,1.001541e+000
3.324817e+003,9.951656e-001
3.328674e+003,9.702871e-001
3.332531e+003,9.853191e-001
3.336388e+003,1.004828e+000
3.340245e+003,1.009080e+000
3.344102e+003,1.008614e+000
3.347959e+003,9.966943e-001
3.351817e+003,1.013641e+000
3.355674e+003,1.027121e+000
3.359531e+003,1.015284e+000
3.363388e+003,1.017983e+000
3.367245e+003,1.024057e+000
3.371102e+003,1.011979e+000
3.374959e+003,1.012394e+000
3.378816e+003,1.035855e+000
3.382673e+003,1.055807e+000
3.386530e+003,1.052736e+000
3.390387e+003,1.053682e+000
3.394245e+003,1.054476e+000
3.398102e+003,1.054739e+000
3.401959e+003,1.066376e+000
3.405816e+003,1.066231e+000
3.409673e+003,1.066526e+000
3.413530e+003,1.065429e+000
3.417387e+003,1.083551e+000
3.421244e+003,1.076184e+000
3.425101e+003,1.074830e+000
3.428958e+003,1.089774e+000
3.432815e+003,1.105895e+000
3.436673e+003,1.107914e+000
3.440530e+003,1.105315e+000
3.444387e+003,1.093151e+000
3.448244e+003,1.089237e+000
3.452101e+003,1.090639e+000
3.455958e+003,1.107074e+000
3.459815e+003,1.115942e+000
3.463672e+003,1.119353e+000
3.467529e+003,1.123109e+000
3.471386e+003,1.117026e+000
3.475244e+003,1.126586e+000
3.479101e+003,1.120258e+000
3.482958e+003,1.121429e+000
3.486815e+003,1.127269e+000
3.490672e+003,1.136539e+000
3.494529e+003,1.134982e+000
3.498386e+003,1.120609e+000
3.502243e+003,1.128162e+000
3.506100e+003,1.133784e+000
3.509958e+003,1.128510e+000
3.513814e+003,1.141824e+000
3.517672e+003,1.151971e+000
3.521529e+003,1.127841e+000
3.525386e+003,1.123543e+000
3.529243e+003,1.126400e+000
3.533100e+003,1.106529e+000
3.536957e+003,1.096524e+000
3.540814e+003,1.115380e+000
3.544671e+003,1.127717e+000
3.548528e+003,1.132512e+000
3.552385e+003,1.137416e+000
3.556243e+003,1.126318e+000
3.560100e+003,1.115777e+000
3.563957e+003,1.079143e+000
3.567814e+003,1.078811e+000
3.571671e+003,1.103028e+000
3.575528e+003,1.106486e+000
3.579385e+003,1.081405e+000
3.583242e+003,1.063901e+000
3.587099e+003,1.042573e+000
3.590957e+003,1.004122e+000
3.594813e+003,9.926904e-001
3.598671e+003,9.770299e-001
3.602528e+003,9.413628e-001
3.606385e+003,9.336222e-001
3.610242e+003,9.071091e-001
3.614099e+003,8.643337e-001
3.617956e+003,8.235965e-001
3.621813e+003,7.805783e-001
3.625670e+003,7.377862e-001
3.629527e+003,7.032268e-001
3.633385e+003,6.577073e-001
3.637242e+003,6.147566e-001
3.641099e+003,5.719272e-001
3.644956e+003,5.229783e-001
3.648813e+003,4.752857e-001
3.652670e+003,4.340872e-001
3.656527e+003,3.984354e-001
3.660384e+003,3.642055e-001
3.664241e+003,3.358648e-001
3.668098e+003,3.102732e-001
3.671956e+003,2.850178e-001
3.675813e+003,2.578252e-001
3.679670e+003,2.363085e-001
3.683527e+003,2.226515e-001
3.687384e+003,2.086151e-001
3.691241e+003,1.973091e-001
3.695098e+003,1.910188e-001
3.698955e+003,1.806035e-001
3.702812e+003,1.723854e-001
3.706669e+003,1.649760e-001
3.710526e+003,1.528189e-001
3.714384e+003,1.469329e-001
3.718241e+003,1.461965e-001
3.722098e+003,1.436285e-001
3.725955e+003,1.388144e-001
3.729812e+003,1.383733e-001
3.733669e+003,1.382461e-001
3.737526e+003,1.353326e-001
3.741383e+003,1.309784e-001
3.745240e+003,1.271820e-001
3.749097e+003,1.269476e-001
3.752955e+003,1.231445e-001
3.756812e+003,1.232599e-001
3.760669e+003,1.283182e-001
3.764526e+003,1.292818e-001
3.768383e+003,1.242673e-001
3.772240e+003,1.199509e-001
3.776097e+003,1.208981e-001
3.779954e+003,1.238806e-001
3.783811e+003,1.249557e-001
3.787668e+003,1.236534e-001
3.791525e+003,1.199785e-001
3.795383e+003,1.197797e-001
3.799240e+003,1.201173e-001
3.803097e+003,1.203315e-001
3.806954e+003,1.220662e-001
3.810811e+003,1.191974e-001
3.814668e+003,1.151619e-001
3.818525e+003,1.128997e-001
3.822382e+003,1.093666e-001
3.826239e+003,1.085060e-001
3.830096e+003,1.128620e-001
3.833954e+003,1.133092e-001
3.837811e+003,1.092414e-001
3.841668e+003,1.090041e-001
3.845525e+003,1.109319e-001
3.849382e+003,1.132283e-001
3.853239e+003,1.126406e-001
3.857096e+003,1.117671e-001
3.860953e+003,1.122935e-001
3.864810e+003,1.142730e-001
3.868667e+003,1.183591e-001
3.872524e+003,1.201494e-001
3.876382e+003,1.167872e-001
3.880239e+003,1.125066e-001
3.884096e+003,1.126774e-001
3.887953e+003,1.166169e-001
3.891810e+003,1.156043e-001
3.895667e+003,1.102892e-001
3.899524e+003,1.070432e-001
3.903381e+003,1.076821e-001
3.907238e+003,1.089861e-001
3.911095e+003,1.098875e-001
3.914953e+003,1.141672e-001
3.918810e+003,1.187014e-001
3.922667e+003,1.175776e-001
3.926524e+003,1.135438e-001
3.930381e+003,1.108798e-001
3.934238e+003,1.102853e-001
3.938095e+003,1.127668e-001
3.941952e+003,1.116172e-001
3.945809e+003,1.120344e-001
3.949667e+003,1.134997e-001
3.953523e+003,1.119379e-001
3.957381e+003,1.066708e-001
3.961238e+003,1.070675e-001
3.965095e+003,1.116944e-001
3.968952e+003,1.098424e-001
3.972809e+003,1.077308e-001
3.976666e+003,1.102963e-001
3.980523e+003,1.127675e-001
3.984380e+003,1.163063e-001
3.988237e+003,1.177805e-001
3.992094e+003,1.139447e-001
3.995952e+003,1.118548e-001
3.999809e+003,1.129776e-001
4.003666e+003,1.111507e-001
4.007523e+003,1.088554e-001
4.011380e+003,1.115522e-001
4.015237e+003,1.128683e-001
4.019094e+003,1.107500e-001
4.022951e+003,1.070519e-001
4.026808e+003,1.069106e-001
4.030666e+003,1.057428e-001
4.034522e+003,1.063789e-001
4.038380e+003,1.059559e-001
4.042237e+003,1.047292e-001
4.046094e+003,1.003010e-001
4.049951e+003,1.001948e-001
4.053808e+003,1.019230e-001
4.057665e+003,1.014924e-001
4.061522e+003,1.048669e-001
4.065379e+003,1.072758e-001
4.069236e+003,1.075704e-001
4.073094e+003,1.100613e-001
4.076951e+003,1.099765e-001
4.080808e+003,1.100524e-001
4.084665e+003,1.118970e-001
4.088522e+003,1.088883e-001
4.092379e+003,1.062265e-001
4.096236e+003,1.093284e-001
4.100093e+003,1.073026e-001
4.103950e+003,1.057428e-001
4.107808e+003,1.076305e-001
4.111665e+003,1.122763e-001
4.115521e+003,1.151769e-001
4.119379e+003,1.137996e-001
4.123236e+003,1.064548e-001
4.127093e+003,9.847780e-002
4.130950e+003,1.013495e-001
4.134807e+003,1.027193e-001
4.138664e+003,1.003056e-001
4.142521e+003,1.024074e-001
4.146378e+003,1.056644e-001
4.150235e+003,1.065469e-001
4.154093e+003,1.040230e-001
4.157950e+003,1.019914e-001
4.161807e+003,1.067721e-001
4.165664e+003,1.123235e-001
4.169521e+003,1.111867e-001
4.173378e+003,1.090046e-001
4.177235e+003,1.091851e-001
4.181092e+003,1.088978e-001
4.184949e+003,1.113798e-001
4.188807e+003,1.114737e-001
4.192664e+003,1.087197e-001
4.196521e+003,1.070665e-001
4.200378e+003,1.075316e-001
4.204235e+003,1.051682e-001
4.208092e+003,1.062816e-001
4.211949e+003,1.063172e-001
4.215806e+003,1.015712e-001
4.219663e+003,9.999141e-002
4.223521e+003,9.853113e-002
4.227377e+003,1.028008e-001
4.231234e+003,1.097133e-001
4.235092e+003,1.108901e-001
4.238949e+003,1.070214e-001
4.242806e+003,1.037900e-001
4.246663e+003,9.972524e-002
4.250520e+003,9.807151e-002
4.254377e+003,9.951723e-002
4.258234e+003,9.996067e-002
4.262091e+003,9.864498e-002
4.265948e+003,9.951948e-002
4.269806e+003,1.018810e-001
4.273663e+003,1.037766e-001
4.277520e+003,1.074843e-001
4.281377e+003,1.037661e-001
4.285234e+003,1.029595e-001
4.289091e+003,1.075598e-001
4.292948e+003,1.052971e-001
4.296805e+003,1.051554e-001
4.300662e+003,1.084499e-001
4.304520e+003,1.069551e-001
4.308376e+003,1.083464e-001
4.312233e+003,1.079459e-001
4.316091e+003,1.063310e-001
4.319948e+003,1.038559e-001
4.323805e+003,1.048521e-001
4.327662e+003,1.076761e-001
4.331519e+003,1.063602e-001
4.335376e+003,1.027359e-001
4.339233e+003,9.915550e-002
4.343090e+003,1.002236e-001
4.346947e+003,1.063471e-001
4.350805e+003,1.104429e-001
4.354662e+003,1.033497e-001
4.358519e+003,9.734976e-002
4.362376e+003,9.396295e-002
4.366233e+003,9.267462e-002
4.370090e+003,9.445754e-002
4.373947e+003,9.737995e-002
4.377804e+003,1.015950e-001
4.381661e+003,1.064504e-001
4.385519e+003,1.098543e-001
4.389375e+003,1.127345e-001
4.393232e+003,1.120590e-001
4.397090e+003,1.100885e-001
4.400947e+003,1.104110e-001
4.404804e+003,1.110766e-001
4.408661e+003,1.106048e-001
4.412518e+003,1.118345e-001
4.416375e+003,1.121577e-001
4.420232e+003,1.115051e-001
4.424089e+003,1.089481e-001
4.427946e+003,1.081856e-001
4.431804e+003,1.085450e-001
4.435661e+003,1.077460e-001
4.439518e+003,1.090853e-001
4.443375e+003,1.149301e-001
4.447232e+003,1.124192e-001
4.451089e+003,1.052245e-001
4.454946e+003,9.756345e-002
4.458803e+003,9.810838e-002
4.462660e+003,1.025605e-001
4.466518e+003,1.001840e-001
4.470375e+003,1.019705e-001
4.474231e+003,1.093933e-001
4.478089e+003,1.084143e-001
4.481946e+003,1.056502e-001
4.485803e+003,1.079113e-001
4.489660e+003,1.072318e-001
4.493517e+003,1.075247e-001
4.497375e+003,1.086616e-001
4.501231e+003,1.124945e-001
4.505088e+003,1.149694e-001
4.508946e+003,1.143925e-001
4.512803e+003,1.176935e-001
4.516660e+003,1.164704e-001
4.520517e+003,1.130131e-001
4.524374e+003,1.117708e-001
4.528231e+003,1.087035e-001
4.532088e+003,1.117004e-001
4.535945e+003,1.175210e-001
4.539802e+003,1.168771e-001
4.543660e+003,1.103491e-001
4.547517e+003,1.019367e-001
4.551374e+003,9.851900e-002
4.555231e+003,9.813114e-002
4.559088e+003,1.010262e-001
4.562945e+003,1.058166e-001
4.566802e+003,1.043732e-001
4.570659e+003,1.031964e-001
4.574516e+003,1.006286e-001
4.578374e+003,9.441384e-002
4.582230e+003,9.392349e-002
4.586087e+003,9.647378e-002
4.589945e+003,9.696100e-002
4.593802e+003,9.958869e-002
4.597659e+003,1.024019e-001
4.601516e+003,1.058443e-001
4.605373e+003,1.096316e-001
4.609230e+003,1.152725e-001
4.613087e+003,1.148358e-001
4.616944e+003,1.155763e-001
4.620801e+003,1.131901e-001
4.624659e+003,1.114578e-001
4.628516e+003,1.074579e-001
4.632373e+003,1.067242e-001
4.636230e+003,1.053148e-001
4.640087e+003,1.019220e-001
4.643944e+003,1.039884e-001
4.647801e+003,1.087567e-001
4.651658e+003,1.124526e-001
4.655515e+003,1.106441e-001
4.659373e+003,1.073750e-001
4.663229e+003,9.962779e-002
4.667086e+003,9.947798e-002
4.670944e+003,1.050300e-001
4.674801e+003,1.020170e-001
4.678658e+003,1.071706e-001
4.682515e+003,1.131989e-001
4.686372e+003,1.091322e-001
4.690229e+003,1.057441e-001
4.694086e+003,1.058941e-001
4.697943e+003,1.133169e-001
4.701800e+003,1.120438e-001
4.705658e+003,1.081532e-001
4.709515e+003,1.094015e-001
4.713372e+003,1.105510e-001
4.717229e+003,1.157833e-001
4.721086e+003,1.155246e-001
4.724943e+003,1.108269e-001
4.728800e+003,1.100988e-001
4.732657e+003,1.092090e-001
4.736514e+003,1.061003e-001
4.740372e+003,1.080292e-001
4.744229e+003,1.109905e-001
4.748085e+003,1.063277e-001
4.751943e+003,1.096251e-001
4.755800e+003,1.167626e-001
4.759657e+003,1.146593e-001
4.763514e+003,1.137735e-001
4.767371e+003,1.137803e-001
4.771228e+003,1.099064e-001
4.775085e+003,1.064650e-001
4.778942e+003,1.060052e-001
4.782799e+003,1.092891e-001
4.786657e+003,1.096802e-001
4.790514e+003,1.025992e-001
4.794371e+003,1.013332e-001
4.798228e+003,1.102010e-001
4.802085e+003,1.138040e-001
4.805942e+003,1.097259e-001
4.809799e+003,1.071681e-001
4.813656e+003,1.088771e-001
4.817513e+003,1.070976e-001
4.821371e+003,1.068458e-001
4.825228e+003,1.092978e-001
4.829084e+003,1.178038e-001
4.832942e+003,1.188516e-001
4.836799e+003,1.094348e-001
4.840656e+003,1.100553e-001
4.844513e+003,1.164789e-001
4.848370e+003,1.216059e-001
4.852227e+003,1.144062e-001
4.856084e+003,1.135366e-001
4.859941e+003,1.155655e-001
4.863798e+003,1.147123e-001
4.867656e+003,1.137338e-001
4.871513e+003,1.122575e-001
4.875370e+003,1.071587e-001
4.879227e+003,1.078227e-001
4.883084e+003,1.129112e-001
4.886941e+003,1.212846e-001
4.890798e+003,1.229990e-001
4.894655e+003,1.119235e-001
4.898512e+003,1.116279e-001
4.902370e+003,1.193682e-001
4.906227e+003,1.207874e-001
4.910083e+003,1.151767e-001
4.913941e+003,1.114541e-001
4.917798e+003,1.153944e-001
4.921655e+003,1.122028e-001
4.925512e+003,1.064290e-001
4.929369e+003,1.085794e-001
4.933226e+003,1.192154e-001
4.937083e+003,1.267618e-001
4.940940e+003,1.175299e-001
4.944797e+003,1.104075e-001
4.948655e+003,1.133236e-001
4.952512e+003,1.207808e-001
4.956369e+003,1.271421e-001
4.960226e+003,1.229932e-001
4.964083e+003,1.196480e-001
4.967940e+003,1.158071e-001
4.971797e+003,1.192870e-001
4.975654e+003,1.228737e-001
4.979511e+003,1.208518e-001
4.983369e+003,1.144519e-001
4.987226e+003,1.097160e-001
4.991083e+003,1.132227e-001
4.994940e+003,1.179398e-001
4.998797e+003,1.133935e-001
5.002654e+003,1.104005e-001
5.006511e+003,1.078851e-001
5.010368e+003,1.073753e-001
5.014225e+003,1.084340e-001
5.018083e+003,1.102740e-001
5.021939e+003,1.115959e-001
5.025796e+003,1.177714e-001
5.029654e+003,1.222886e-001
5.033511e+003,1.236442e-001
5.037368e+003,1.293708e-001
5.041225e+003,1.372043e-001
5.045082e+003,1.305650e-001
5.048939e+003,1.237366e-001
5.052796e+003,1.216723e-001
5.056653e+003,1.190998e-001
5.060510e+003,1.195710e-001
5.064368e+003,1.228899e-001
5.068225e+003,1.228682e-001
5.072082e+003,1.195236e-001
5.075939e+003,1.169894e-001
5.079796e+003,1.169370e-001
5.083653e+003,1.185730e-001
5.087510e+003,1.180193e-001
5.091367e+003,1.158320e-001
5.095224e+003,1.164632e-001
5.099082e+003,1.141803e-001
5.102938e+003,1.146454e-001
5.106795e+003,1.252130e-001
5.110653e+003,1.250487e-001
5.114510e+003,1.165612e-001
5.118367e+003,1.122726e-001
5.122224e+003,1.041453e-001
5.126081e+003,1.112834e-001
5.129938e+003,1.134219e-001
5.133795e+003,1.154846e-001
5.137652e+003,1.277382e-001
5.141509e+003,1.334681e-001
5.145367e+003,1.344312e-001
5.149224e+003,1.320412e-001
5.153081e+003,1.219758e-001
5.156938e+003,1.280614e-001
5.160795e+003,1.331402e-001
5.164652e+003,1.293060e-001
5.168509e+003,1.235973e-001
5.172366e+003,1.243782e-001
5.176223e+003,1.252376e-001
5.180081e+003,1.173256e-001
5.183938e+003,1.163999e-001
5.187794e+003,1.230681e-001
5.191652e+003,1.208209e-001
5.195509e+003,1.211663e-001
5.199366e+003,1.255181e-001
5.203223e+003,1.261126e-001
5.207080e+003,1.218131e-001
5.210937e+003,1.197075e-001
5.214794e+003,1.133091e-001
5.218651e+003,1.083655e-001
5.222508e+003,1.146535e-001
5.226366e+003,1.235159e-001
5.230223e+003,1.349600e-001
5.234080e+003,1.350724e-001
5.237937e+003,1.272757e-001
5.241794e+003,1.316123e-001
5.245651e+003,1.346076e-001
5.249508e+003,1.292135e-001
5.253365e+003,1.289403e-001
5.257222e+003,1.268059e-001
5.261080e+003,1.244789e-001
5.264937e+003,1.264301e-001
5.268793e+003,1.214176e-001
5.272651e+003,1.201882e-001
5.276508e+003,1.203266e-001
5.280365e+003,1.170903e-001
5.284222e+003,1.122563e-001
5.288079e+003,1.166677e-001
5.291936e+003,1.154137e-001
5.295793e+003,1.089618e-001
5.299650e+003,1.116216e-001
5.303507e+003,1.168653e-001
5.307365e+003,1.138580e-001
5.311222e+003,1.166400e-001
5.315079e+003,1.133797e-001
5.318936e+003,1.140628e-001
5.322793e+003,1.228880e-001
5.326650e+003,1.236257e-001
5.330507e+003,1.225119e-001
5.334364e+003,1.219510e-001
5.338221e+003,1.302424e-001
5.342079e+003,1.201741e-001
5.345936e+003,1.090109e-001
5.349792e+003,1.124242e-001
5.353650e+003,1.120352e-001
5.357507e+003,1.150002e-001
5.361364e+003,1.222168e-001
5.365221e+003,1.311950e-001
5.369078e+003,1.325677e-001
5.372935e+003,1.239728e-001
5.376792e+003,1.200737e-001
5.380649e+003,1.212321e-001
5.384506e+003,1.161279e-001
5.388364e+003,1.164002e-001
5.392221e+003,1.269780e-001
5.396078e+003,1.214507e-001
5.399935e+003,1.088399e-001
5.403792e+003,1.125849e-001
5.407649e+003,1.209345e-001
5.411506e+003,1.180702e-001
5.415363e+003,1.192312e-001
5.419220e+003,1.272071e-001
5.423078e+003,1.228949e-001
5.426935e+003,1.132150e-001
5.430792e+003,1.119910e-001
5.434649e+003,1.122543e-001
5.438506e+003,1.105738e-001
5.442363e+003,1.173869e-001
5.446220e+003,1.246711e-001
5.450077e+003,1.250303e-001
5.453934e+003,1.279415e-001
5.457792e+003,1.218772e-001
5.461648e+003,1.206921e-001
5.465505e+003,1.198060e-001
5.469363e+003,1.180151e-001
5.473220e+003,1.234628e-001
5.477077e+003,1.227247e-001
5.480934e+003,1.259783e-001
5.484791e+003,1.298465e-001
5.488648e+003,1.270024e-001
5.492505e+003,1.278114e-001
5.496362e+003,1.321252e-001
5.500219e+003,1.385183e-001
5.504077e+003,1.354239e-001
5.507934e+003,1.254365e-001
5.511791e+003,1.176104e-001
5.515648e+003,1.181177e-001
5.519505e+003,1.132076e-001
5.523362e+003,1.155832e-001
5.527219e+003,1.178562e-001
5.531076e+003,1.144265e-001
5.534933e+003,1.190154e-001
5.538791e+003,1.167851e-001
5.542647e+003,1.127018e-001
5.546504e+003,1.235459e-001
5.550362e+003,1.240259e-001
5.554219e+003,1.171733e-001
5.558076e+003,1.069089e-001
5.561933e+003,1.085910e-001
5.565790e+003,1.235249e-001
5.569647e+003,1.280903e-001
5.573504e+003,1.258228e-001
5.577361e+003,1.193826e-001
5.581218e+003,1.235629e-001
5.585076e+003,1.292515e-001
5.588933e+003,1.287764e-001
5.592790e+003,1.301624e-001
5.596647e+003,1.294757e-001
5.600504e+003,1.219972e-001
5.604361e+003,1.187955e-001
5.608218e+003,1.176996e-001
5.612075e+003,1.150836e-001
5.615932e+003,1.082106e-001
5.619790e+003,1.129079e-001
5.623646e+003,1.203943e-001
5.627503e+003,1.263974e-001
5.631361e+003,1.248189e-001
5.635218e+003,1.195197e-001
5.639075e+003,1.198563e-001
5.642932e+003,1.219765e-001
5.646789e+003,1.163934e-001
5.650646e+003,1.187353e-001
5.654503e+003,1.250189e-001
5.658360e+003,1.277821e-001
5.662217e+003,1.287535e-001
5.666075e+003,1.363476e-001
5.669932e+003,1.293524e-001
5.673789e+003,1.182077e-001
5.677646e+003,1.189764e-001
5.681503e+003,1.249996e-001
5.685360e+003,1.300132e-001
5.689217e+003,1.325004e-001
5.693074e+003,1.311818e-001
5.696931e+003,1.248705e-001
5.700789e+003,1.169004e-001
5.704646e+003,1.179282e-001
5.708502e+003,1.198217e-001
5.712360e+003,1.191551e-001
5.716217e+003,1.261402e-001
5.720074e+003,1.216557e-001
5.723931e+003,1.254430e-001
5.727788e+003,1.271405e-001
5.731645e+003,1.220903e-001
5.735502e+003,1.222135e-001
5.739359e+003,1.213188e-001
5.743216e+003,1.192821e-001
5.747074e+003,1.184428e-001
5.750931e+003,1.186118e-001
5.754788e+003,1.210383e-001
5.758645e+003,1.228200e-001
5.762502e+003,1.266127e-001
5.766359e+003,1.347027e-001
5.770216e+003,1.307776e-001
5.774073e+003,1.235274e-001
5.777930e+003,1.214529e-001
5.781788e+003,1.210798e-001
5.785645e+003,1.239492e-001
5.789501e+003,1.256540e-001
5.793359e+003,1.252931e-001
5.797216e+003,1.206957e-001
5.801073e+003,1.217385e-001
5.804930e+003,1.296056e-001
5.808787e+003,1.252551e-001
5.812644e+003,1.283323e-001
5.816501e+003,1.316596e-001
5.820358e+003,1.268751e-001
5.824215e+003,1.303862e-001
5.828073e+003,1.337968e-001
5.831930e+003,1.258317e-001
5.835787e+003,1.192293e-001
5.839644e+003,1.263718e-001
5.843501e+003,1.370025e-001
5.847358e+003,1.284758e-001
5.851215e+003,1.187984e-001
5.855072e+003,1.250248e-001
5.858929e+003,1.230673e-001
5.862787e+003,1.193774e-001
5.866644e+003,1.194437e-001
5.870500e+003,1.237146e-001
5.874358e+003,1.315219e-001
5.878215e+003,1.324241e-001
5.882072e+003,1.157368e-001
5.885929e+003,1.024038e-001
5.889786e+003,1.124826e-001
5.893643e+003,1.292305e-001
5.897500e+003,1.331427e-001
5.901357e+003,1.358055e-001
5.905214e+003,1.349972e-001
5.909072e+003,1.301251e-001
5.912929e+003,1.381595e-001
5.916786e+003,1.325821e-001
5.920643e+003,1.266941e-001
5.924500e+003,1.308556e-001
5.928357e+003,1.221975e-001
5.932214e+003,1.231102e-001
5.936071e+003,1.205709e-001
5.939928e+003,1.184491e-001
5.943786e+003,1.204002e-001
5.947643e+003,1.117628e-001
5.951500e+003,1.076685e-001
5.955357e+003,1.124583e-001
5.959214e+003,1.238025e-001
5.963071e+003,1.397780e-001
5.966928e+003,1.344193e-001
5.970785e+003,1.315009e-001
5.974642e+003,1.344909e-001
5.978500e+003,1.259436e-001
5.982356e+003,1.184471e-001
5.986213e+003,1.119563e-001
5.990071e+003,1.227173e-001
5.993928e+003,1.373336e-001
5.997785e+003,1.260691e-001
6.001642e+003,1.125243e-001
6.005499e+003,1.142472e-001
6.009356e+003,1.220289e-001
6.013213e+003,1.258785e-001
6.017070e+003,1.345770e-001
6.020927e+003,1.314845e-001
6.024785e+003,1.252524e-001
6.028642e+003,1.248038e-001
6.032499e+003,1.140667e-001
6.036356e+003,1.145165e-001
6.040213e+003,1.304753e-001
6.044070e+003,1.457158e-001
6.047927e+003,1.344174e-001
6.051784e+003,1.205843e-001
6.055641e+003,1.239916e-001
6.059499e+003,1.206024e-001
6.063355e+003,1.077349e-001
6.067212e+003,1.155247e-001
6.071070e+003,1.138685e-001
6.074927e+003,1.141301e-001
6.078784e+003,1.185726e-001
6.082641e+003,1.281816e-001
6.086498e+003,1.216807e-001
6.090355e+003,1.179368e-001
6.094212e+003,1.257472e-001
6.098069e+003,1.305379e-001
6.101926e+003,1.355994e-001
6.105784e+003,1.398497e-001
6.109641e+003,1.459840e-001
6.113498e+003,1.400785e-001
6.117355e+003,1.264694e-001
6.121212e+003,1.267346e-001
6.125069e+003,1.359001e-001
6.128926e+003,1.271531e-001
6.132783e+003,1.134174e-001
6.136640e+003,1.109880e-001
6.140498e+003,1.233779e-001
6.144354e+003,1.363018e-001
6.148211e+003,1.311185e-001
6.152069e+003,1.207819e-001
6.155926e+003,1.173914e-001
6.159783e+003,1.136448e-001
6.163640e+003,1.220420e-001
6.167497e+003,1.264094e-001
6.171354e+003,1.336942e-001
6.175211e+003,1.382985e-001
6.179068e+003,1.312155e-001
6.182925e+003,1.196161e-001
6.186783e+003,1.154466e-001
6.190640e+003,1.199606e-001
6.194497e+003,1.325395e-001
6.198354e+003,1.342232e-001
6.202211e+003,1.336336e-001
6.206068e+003,1.297790e-001
6.209925e+003,1.211584e-001
6.213782e+003,1.175715e-001
6.217639e+003,1.151098e-001
6.221497e+003,1.202660e-001
6.225354e+003,1.307592e-001
6.229210e+003,1.333875e-001
6.233068e+003,1.447617e-001
6.236925e+003,1.416788e-001
6.240782e+003,1.321585e-001
6.244639e+003,1.242188e-001
6.248496e+003,1.161168e-001
6.252353e+003,1.249743e-001
6.256210e+003,1.240212e-001
6.260067e+003,1.156206e-001
6.263924e+003,1.114031e-001
6.267782e+003,1.196318e-001
6.271639e+003,1.221177e-001
6.275496e+003,1.153419e-001
6.279353e+003,1.163248e-001
6.283210e+003,1.254138e-001
6.287067e+003,1.334295e-001
6.290924e+003,1.391664e-001
6.294781e+003,1.342142e-001
6.298638e+003,1.266099e-001
6.302496e+003,1.301550e-001
6.306353e+003,1.287175e-001
6.310209e+003,1.215753e-001
6.314067e+003,1.205073e-001
6.317924e+003,1.246934e-001
6.321781e+003,1.303563e-001
6.325638e+003,1.372691e-001
6.329495e+003,1.331277e-001
6.333352e+003,1.298694e-001
6.337209e+003,1.243990e-001
6.341066e+003,1.252390e-001
6.344923e+003,1.218947e-001
6.348780e+003,1.101312e-001
6.352638e+003,1.121819e-001
6.356495e+003,1.134824e-001
6.360352e+003,1.241267e-001
6.364209e+003,1.343983e-001
6.368066e+003,1.338644e-001
6.371923e+003,1.385833e-001
6.375780e+003,1.295617e-001
6.379637e+003,1.229000e-001
6.383494e+003,1.223993e-001
6.387352e+003,1.259224e-001
6.391208e+003,1.321973e-001
6.395065e+003,1.357123e-001
6.398923e+003,1.345928e-001
6.402780e+003,1.373783e-001
6.406637e+003,1.363824e-001
6.410494e+003,1.423446e-001
6.414351e+003,1.364640e-001
6.418208e+003,1.232682e-001
6.422065e+003,1.276595e-001
6.425922e+003,1.187506e-001
6.429779e+003,1.097445e-001
6.433637e+003,1.334638e-001
6.437494e+003,1.402626e-001
6.441351e+003,1.377451e-001
6.445208e+003,1.465127e-001
6.449065e+003,1.501327e-001
6.452922e+003,1.206115e-001
6.456779e+003,1.143375e-001
6.460636e+003,1.241339e-001
6.464493e+003,1.256827e-001
6.468351e+003,1.306188e-001
6.472208e+003,1.256323e-001
6.476064e+003,1.237335e-001
6.479922e+003,1.277223e-001
6.483779e+003,1.196007e-001
6.487636e+003,1.290409e-001
6.491493e+003,1.295049e-001
6.495350e+003,1.306089e-001
6.499207e+003,1.308856e-001
6.503064e+003,1.226500e-001
6.506921e+003,1.075207e-001
6.510778e+003,9.605790e-002
6.514636e+003,1.029263e-001
6.518493e+003,1.255467e-001
6.522350e+003,1.388104e-001
6.526207e+003,1.346848e-001
6.530064e+003,1.155911e-001
6.533921e+003,1.190799e-001
6.537778e+003,1.286688e-001
6.541635e+003,1.180908e-001
6.545492e+003,1.090566e-001
6.549350e+003,1.212907e-001
6.553207e+003,1.302221e-001
6.557063e+003,1.200128e-001
6.560921e+003,1.169139e-001
6.564778e+003,1.152302e-001
6.568635e+003,1.310552e-001
6.572492e+003,1.450099e-001
6.576349e+003,1.399796e-001
6.580206e+003,1.222279e-001
6.584063e+003,9.920072e-002
6.587920e+003,1.041052e-001
6.591777e+003,1.310661e-001
6.595635e+003,1.454594e-001
6.599492e+003,1.458728e-001
6.603349e+003,1.449175e-001
6.607206e+003,1.368251e-001
6.611063e+003,1.369068e-001
6.614920e+003,1.316735e-001
6.618777e+003,1.270685e-001
6.622634e+003,1.443967e-001
6.626491e+003,1.446399e-001
6.630349e+003,1.218213e-001
6.634206e+003,1.224294e-001
6.638063e+003,1.266380e-001
6.641920e+003,1.310007e-001
6.645777e+003,1.276742e-001
6.649634e+003,1.382008e-001
6.653491e+003,1.330266e-001
6.657348e+003,1.213545e-001
6.661205e+003,1.353876e-001
6.665063e+003,1.297510e-001
6.668919e+003,1.206475e-001
6.672776e+003,1.221141e-001
6.676634e+003,1.359655e-001
6.680491e+003,1.373669e-001
6.684348e+003,1.280478e-001
6.688205e+003,1.432837e-001
6.692062e+003,1.664459e-001
6.695919e+003,1.612350e-001
6.699776e+003,1.283558e-001
6.703633e+003,1.252919e-001
6.707490e+003,1.307061e-001
6.711348e+003,1.395523e-001
6.715205e+003,1.221140e-001
6.719062e+003,1.113779e-001
6.722919e+003,1.144629e-001
6.726776e+003,1.180328e-001
6.730633e+003,1.232760e-001
6.734490e+003,1.189822e-001
6.738347e+003,1.118862e-001
6.742204e+003,1.181215e-001
6.746062e+003,1.518459e-001
6.749918e+003,1.683337e-001
6.753775e+003,1.595028e-001
6.757633e+003,1.387728e-001
6.761490e+003,1.305220e-001
6.765347e+003,1.323281e-001
6.769204e+003,1.299888e-001
6.773061e+003,1.301463e-001
6.776918e+003,1.324534e-001
6.780775e+003,1.491120e-001
6.784632e+003,1.465145e-001
6.788489e+003,1.362232e-001
6.792347e+003,1.304516e-001
6.796204e+003,1.299393e-001
6.800061e+003,1.376964e-001
6.803918e+003,1.220491e-001
6.807775e+003,1.103165e-001
6.811632e+003,1.442985e-001
6.815489e+003,1.833757e-001
6.819346e+003,1.821807e-001
6.823203e+003,1.588519e-001
6.827061e+003,1.519345e-001
6.830917e+003,1.523787e-001
6.834774e+003,1.579143e-001
6.838632e+003,1.808134e-001
6.842489e+003,1.525152e-001
6.846346e+003,1.127294e-001
6.850203e+003,1.189988e-001
6.854060e+003,1.289454e-001
6.857917e+003,1.328492e-001
6.861774e+003,1.611872e-001
6.865631e+003,1.790598e-001
6.869488e+003,1.773804e-001
6.873346e+003,1.679198e-001
6.877203e+003,1.378566e-001
6.881060e+003,1.159437e-001
6.884917e+003,1.081020e-001
6.888774e+003,1.188287e-001
6.892631e+003,1.247315e-001
6.896488e+003,1.272522e-001
6.900345e+003,1.270183e-001
6.904202e+003,1.358158e-001
6.908060e+003,1.407569e-001
6.911917e+003,1.336503e-001
6.915773e+003,1.199252e-001
6.919631e+003,1.178570e-001
6.923488e+003,1.238637e-001
6.927345e+003,1.046894e-001
6.931202e+003,9.401104e-002
6.935059e+003,1.350520e-001
6.938916e+003,1.851723e-001
6.942773e+003,1.749500e-001
6.946630e+003,1.314373e-001
6.950487e+003,1.211402e-001
6.954345e+003,1.203109e-001
6.958202e+003,1.107376e-001
6.962059e+003,1.254892e-001
6.965916e+003,1.583550e-001
6.969773e+003,1.226276e-001
6.973630e+003,1.000368e-001
6.977487e+003,1.159987e-001
6.981344e+003,1.495571e-001
6.985201e+003,1.632408e-001
6.989059e+003,1.854459e-001
6.992916e+003,2.080684e-001
6.996772e+003,2.023420e-001
7.000630e+003,1.650592e-001
7.004487e+003,1.403564e-001
7.008344e+003,1.244352e-001
7.012201e+003,1.169714e-001
7.016058e+003,1.101496e-001
7.019915e+003,1.149732e-001
7.023772e+003,1.182493e-001
7.027629e+003,1.399945e-001
7.031486e+003,1.778970e-001
7.035344e+003,1.636334e-001
7.039201e+003,1.674542e-001
7.043058e+003,1.624518e-001
7.046915e+003,1.457869e-001
7.050772e+003,1.385118e-001
7.054629e+003,1.413929e-001
7.058486e+003,1.392461e-001
7.062343e+003,1.637624e-001
7.066200e+003,1.767762e-001
7.070058e+003,1.654497e-001
7.073915e+003,1.699028e-001
7.077771e+003,1.574789e-001
7.081629e+003,1.549108e-001
7.085486e+003,1.602214e-001
7.089343e+003,1.462605e-001
7.093200e+003,1.368437e-001
7.097057e+003,1.245078e-001
7.100914e+003,1.041633e-001
7.104771e+003,1.083099e-001
7.108628e+003,1.261728e-001
7.112485e+003,1.586791e-001
7.116343e+003,1.572170e-001
7.120200e+003,1.499647e-001
7.124057e+003,1.568945e-001
7.127914e+003,1.345675e-001
7.131771e+003,1.458128e-001
7.135628e+003,1.720837e-001
7.139485e+003,1.664689e-001
7.143342e+003,1.561886e-001
7.147199e+003,1.629200e-001
7.151057e+003,1.596256e-001
7.154914e+003,1.332498e-001
7.158771e+003,1.196266e-001
7.162628e+003,1.301999e-001
7.166485e+003,1.362305e-001
7.170342e+003,1.342630e-001
7.174199e+003,1.454815e-001
7.178056e+003,1.357314e-001
7.181913e+003,1.147358e-001
7.185771e+003,1.034295e-001
7.189627e+003,1.343996e-001
7.193484e+003,1.622691e-001
7.197342e+003,1.581360e-001
7.201199e+003,1.434393e-001
7.205056e+003,1.458470e-001
7.208913e+003,1.648111e-001
7.212770e+003,1.615503e-001
7.216627e+003,1.290446e-001
7.220484e+003,1.233366e-001
7.224341e+003,1.936647e-001
7.228198e+003,2.370237e-001
7.232056e+003,2.034153e-001
7.235913e+003,1.666611e-001
7.239770e+003,1.644837e-001
7.243627e+003,1.403635e-001
7.247484e+003,1.570684e-001
7.251341e+003,2.063636e-001
7.255198e+003,2.112588e-001
7.259055e+003,1.861850e-001
7.262912e+003,1.776905e-001
7.266770e+003,1.649064e-001
7.270626e+003,1.412418e-001
7.274483e+003,1.306205e-001
7.278341e+003,1.703826e-001
7.282198e+003,2.243372e-001
7.286055e+003,2.144827e-001
7.289912e+003,1.656571e-001
7.293769e+003,1.251184e-001
7.297626e+003,1.328467e-001
7.301483e+003,1.378854e-001
7.305340e+003,1.204344e-001
7.309197e+003,1.188355e-001
7.313055e+003,1.234598e-001
7.316912e+003,1.337963e-001
7.320769e+003,1.496052e-001
7.324626e+003,1.549609e-001
7.328483e+003,1.663986e-001
7.332340e+003,1.352414e-001
7.336197e+003,6.154149e-002
7.340054e+003,7.911850e-002
7.343911e+003,1.171204e-001
7.347769e+003,1.415140e-001
7.351625e+003,1.377323e-001
7.355482e+003,1.274084e-001
7.359340e+003,1.126841e-001
7.363197e+003,1.033209e-001
7.367054e+003,1.080027e-001
7.370911e+003,1.195708e-001
7.374768e+003,1.301243e-001
7.378625e+003,1.205325e-001
7.382482e+003,9.740366e-002
7.386339e+003,1.239431e-001
7.390196e+003,1.529333e-001
7.394054e+003,1.311477e-001
7.397911e+003,1.366382e-001
7.401768e+003,1.184700e-001
7.405625e+003,1.017724e-001
7.409482e+003,9.420580e-002
7.413339e+003,7.190862e-002
7.417196e+003,6.416219e-002
7.421053e+003,1.161686e-001
7.424910e+003,1.412732e-001
7.428768e+003,1.130824e-001
7.432625e+003,6.438621e-002
7.436481e+003,9.490763e-002
7.440339e+003,1.382259e-001
7.444196e+003,1.579377e-001
7.448053e+003,1.251529e-001
7.451910e+003,1.234989e-001
7.455767e+003,1.352641e-001
7.459624e+003,1.556745e-001
7.463481e+003,1.465216e-001
7.467338e+003,1.312128e-001
7.471195e+003,1.174576e-001
7.475053e+003,1.215688e-001
7.478910e+003,1.247439e-001
7.482767e+003,1.271056e-001
7.486624e+003,1.176604e-001
7.490481e+003,9.890266e-002
7.494338e+003,1.007059e-001
7.498195e+003,6.598692e-002
7.502052e+003,6.383391e-002
7.505909e+003,1.360751e-001
7.509767e+003,1.788613e-001
7.513624e+003,1.598375e-001
7.517480e+003,1.126126e-001
7.521338e+003,9.433561e-002
7.525195e+003,9.700739e-002
7.529052e+003,1.165648e-001
7.532909e+003,1.545143e-001
7.536766e+003,2.010644e-001
7.540623e+003,2.400674e-001
7.544480e+003,2.073643e-001
7.548337e+003,1.824577e-001
7.552194e+003,1.945703e-001
7.556052e+003,1.731778e-001
7.559909e+003,1.176567e-001
7.563766e+003,6.917445e-002
7.567623e+003,7.482623e-002
7.571480e+003,8.199086e-002
7.575337e+003,1.002567e-001
7.579194e+003,1.247599e-001
7.583051e+003,1.650792e-001
7.586908e+003,1.506781e-001
7.590766e+003,1.004193e-001
7.594623e+003,8.272879e-002
7.598479e+003,9.675241e-002
7.602337e+003,1.334071e-001
7.606194e+003,1.411868e-001
7.610051e+003,1.588110e-001
7.613908e+003,1.644719e-001
7.617765e+003,1.365137e-001
7.621622e+003,8.851833e-002
7.625479e+003,2.598787e-002
7.629336e+003,-6.707641e-003
7.633193e+003,5.378430e-002
7.637051e+003,1.630452e-001
7.640908e+003,2.106765e-001
7.644765e+003,2.475960e-001
7.648622e+003,1.924293e-001
7.652479e+003,9.848832e-002
7.656336e+003,1.394186e-001
7.660193e+003,1.584652e-001
7.664050e+003,9.999596e-002
7.667907e+003,1.124554e-001
7.671765e+003,1.573942e-001
7.675622e+003,1.396499e-001
7.679479e+003,9.176531e-002
7.683336e+003,1.107372e-001
7.687193e+003,1.581943e-001
7.691050e+003,1.215761e-001
7.694907e+003,7.598942e-002
7.698764e+003,1.324852e-001
7.702621e+003,1.949130e-001
7.706479e+003,1.698020e-001
7.710335e+003,1.304824e-001
7.714192e+003,1.672587e-001
7.718050e+003,1.742781e-001
7.721907e+003,1.642536e-001
7.725764e+003,1.502928e-001
7.729621e+003,8.563583e-002
7.733478e+003,7.640781e-002
7.737335e+003,8.547758e-002
7.741192e+003,7.130564e-002
7.745049e+003,1.119964e-001
7.748906e+003,1.875642e-001
7.752764e+003,1.823733e-001
7.756621e+003,1.367275e-001
7.760478e+003,1.049079e-001
7.764335e+003,6.770678e-002
7.768192e+003,6.307212e-002
7.772049e+003,1.571465e-002
7.775906e+003,7.107029e-002
7.779763e+003,7.508201e-002
7.783620e+003,9.633254e-002
7.787478e+003,1.021615e-001
7.791334e+003,8.023466e-002
7.795191e+003,1.151441e-001
7.799049e+003,1.800191e-001
7.802906e+003,2.439115e-001
7.806763e+003,2.277221e-001
7.810620e+003,1.960189e-001
7.814477e+003,1.241968e-001
7.818334e+003,1.336951e-001
7.822191e+003,1.357699e-001
7.826048e+003,1.018194e-001
7.829905e+003,7.632484e-002
7.833763e+003,1.016427e-001
7.837620e+003,6.561194e-002
7.841477e+003,3.730593e-002
7.845334e+003,1.114362e-001
7.849191e+003,1.072710e-001
7.853048e+003,1.194606e-001
7.856905e+003,2.469329e-001
7.860762e+003,2.459368e-001
7.864619e+003,9.534869e-002
7.868477e+003,1.749796e-002
7.872333e+003,6.732110e-002
7.876190e+003,1.396840e-001
7.880048e+003,2.004733e-001
7.883905e+003,1.921597e-001
7.887762e+003,8.893237e-002
7.891619e+003,9.857508e-002
7.895476e+003,1.018096e-001
7.899333e+003,1.194006e-001
7.903190e+003,1.269715e-001
7.907047e+003,5.904397e-002
7.910904e+003,1.335505e-002
7.914762e+003,4.823857e-002
7.918619e+003,1.449279e-001
7.922476e+003,9.830001e-002
7.926333e+003,2.528037e-002
7.930190e+003,7.924466e-002
7.934047e+003,1.133296e-001
7.937904e+003,7.428095e-002
7.941761e+003,1.771626e-001
7.945618e+003,1.646526e-001
7.949476e+003,1.615682e-002
7.953333e+003,3.057738e-002
7.957189e+003,8.632857e-002
7.961047e+003,1.285986e-001
7.964904e+003,1.126839e-001
7.968761e+003,8.847222e-002
7.972618e+003,1.186099e-001
7.976475e+003,1.203750e-001
7.980332e+003,2.509941e-001
7.984189e+003,2.401984e-001
7.988046e+003,2.585730e-001
7.991903e+003,2.138661e-001
7.995761e+003,6.816535e-002
7.999618e+003,4.485505e-002
