4.011380e+002,6.000000e+000
4.049951e+002,-7.184632e-001
4.088522e+002,1.521500e+000
4.127093e+002,-5.811448e-001
4.165664e+002,6.000000e+000
4.204235e+002,6.000000e+000
4.242806e+002,6.000000e+000
4.281377e+002,6.000000e+000
4.319948e+002,6.000000e+000
4.358519e+002,6.000000e+000
4.397090e+002,6.000000e+000
4.435661e+002,2.585430e-001
4.474232e+002,-2.308425e-001
4.512803e+002,6.000000e+000
4.551374e+002,-4.183394e-001
4.589945e+002,2.101339e-001
4.628516e+002,1.036799e+000
4.667087e+002,6.000000e+000
4.705658e+002,1.845731e-001
4.744229e+002,6.000000e+000
4.782800e+002,6.000000e+000
4.821371e+002,6.000000e+000
4.859941e+002,7.742192e-001
4.898513e+002,6.000000e+000
4.937083e+002,6.000000e+000
4.975654e+002,-3.455841e-001
5.014225e+002,6.000000e+000
5.052796e+002,-6.244713e-002
5.091367e+002,-2.542724e-001
5.129938e+002,6.000000e+000
5.168509e+002,-5.577800e-002
5.207080e+002,3.381564e-001
5.245651e+002,3.389879e-001
5.284222e+002,5.545967e-001
5.322793e+002,-9.258724e-001
5.361364e+002,-5.224171e-001
5.399935e+002,6.000000e+000
5.438506e+002,-1.292530e-001
5.477077e+002,6.000000e+000
5.515648e+002,-5.071101e-002
5.554219e+002,-8.197283e-002
5.592790e+002,5.491260e-002
5.631361e+002,-1.154968e-001
5.669932e+002,6.000000e+000
5.708503e+002,6.000000e+000
5.747074e+002,-7.890195e-001
5.785645e+002,6.000000e+000
5.824216e+002,1.746834e-001
5.862787e+002,7.914239e-002
5.901357e+002,6.000000e+000
5.939929e+002,-4.517902e-001
5.978499e+002,-5.130676e-001
6.017070e+002,2.487908e-001
6.055641e+002,6.000000e+000
6.094212e+002,6.000000e+000
6.132783e+002,-5.021317e-001
6.171354e+002,6.000000e+000
6.209925e+002,1.418316e-001
6.248496e+002,6.617195e-002
6.287067e+002,6.000000e+000
6.325638e+002,6.000000e+000
6.364209e+002,6.000000e+000
6.402780e+002,6.000000e+000
6.441351e+002,-1.512369e-001
6.479922e+002,7.186860e-001
6.518493e+002,1.668579e+000
6.557064e+002,-6.322958e-001
6.595635e+002,-2.565887e-001
6.634205e+002,-3.463239e-001
6.672777e+002,-3.731633e-001
6.711348e+002,6.840079e-001
6.749918e+002,7.985056e-002
6.788490e+002,8.042079e-002
6.827061e+002,9.754502e-001
6.865631e+002,6.000000e+000
6.904203e+002,-7.668701e-001
6.942773e+002,1.126370e-001
6.981344e+002,4.125981e-001
7.019916e+002,-4.369689e-001
7.058486e+002,8.581117e-002
7.097057e+002,6.000000e+000
7.135629e+002,6.000000e+000
7.174199e+002,6.000000e+000
7.212770e+002,6.000000e+000
7.251342e+002,6.000000e+000
7.289912e+002,6.000000e+000
7.328483e+002,6.000000e+000
7.367054e+002,6.000000e+000
7.405625e+002,-8.671322e-001
7.444196e+002,-1.068442e+000
7.482767e+002,6.000000e+000
7.521338e+002,6.000000e+000
7.559908e+002,-7.104669e-001
7.598480e+002,6.000000e+000
7.637051e+002,6.000000e+000
7.675621e+002,6.012788e-001
7.714193e+002,6.000000e+000
7.752764e+002,1.265378e+000
7.791334e+002,6.000000e+000
7.829905e+002,6.000000e+000
7.868477e+002,6.000000e+000
7.907047e+002,6.000000e+000
7.945618e+002,6.000000e+000
7.984189e+002,6.000000e+000
8.022760e+002,6.000000e+000
8.061331e+002,6.268364e-001
8.099902e+002,6.000000e+000
8.138473e+002,6.000000e+000
8.177044e+002,9.450135e-002
8.215615e+002,-8.243151e-001
8.254186e+002,-1.829936e-001
8.292757e+002,7.691972e-001
8.331328e+002,6.000000e+000
8.369899e+002,6.000000e+000
8.408470e+002,6.000000e+000
8.447041e+002,5.852932e-001
8.485612e+002,6.000000e+000
8.524183e+002,6.000000e+000
8.562754e+002,6.000000e+000
8.601324e+002,6.000000e+000
8.639896e+002,6.000000e+000
8.678467e+002,6.000000e+000
8.717037e+002,6.000000e+000
8.755609e+002,1.610935e+000
8.794180e+002,1.528947e+000
8.832750e+002,6.000000e+000
8.871321e+002,6.000000e+000
8.909893e+002,6.000000e+000
8.948463e+002,6.000000e+000
8.987034e+002,6.000000e+000
9.025605e+002,6.000000e+000
9.064176e+002,6.000000e+000
9.102747e+002,6.000000e+000
9.141318e+002,1.828604e+000
9.179889e+002,1.351028e+000
9.218461e+002,2.635192e+000
9.257031e+002,1.644861e+000
9.295602e+002,6.000000e+000
9.334174e+002,6.000000e+000
9.372744e+002,1.485678e+000
9.411315e+002,1.381350e+000
9.449886e+002,1.594976e+000
9.488457e+002,6.000000e+000
9.527028e+002,6.000000e+000
9.565599e+002,6.000000e+000
9.604170e+002,6.000000e+000
9.642740e+002,6.000000e+000
9.681312e+002,6.000000e+000
9.719883e+002,2.279859e+000
9.758453e+002,1.604224e+000
9.797025e+002,6.000000e+000
9.835596e+002,6.000000e+000
9.874166e+002,6.000000e+000
9.912738e+002,6.000000e+000
9.951309e+002,1.487576e+000
9.989879e+002,1.991004e+000
1.002845e+003,6.000000e+000
1.006702e+003,2.948371e+000
1.010559e+003,6.000000e+000
1.014416e+003,2.355709e+000
1.018273e+003,1.431212e+000
1.022130e+003,1.767271e+000
1.025988e+003,6.000000e+000
1.029845e+003,2.944440e+000
1.033702e+003,1.644831e+000
1.037559e+003,1.406541e+000
1.041416e+003,1.500597e+000
1.045273e+003,1.373816e+000
1.049130e+003,1.288238e+000
1.052987e+003,1.486202e+000
1.056844e+003,1.494809e+000
1.060702e+003,1.342844e+000
1.064559e+003,1.445564e+000
1.068416e+003,1.500806e+000
1.072273e+003,1.275258e+000
1.076130e+003,1.121164e+000
1.079987e+003,1.151325e+000
1.083844e+003,1.143649e+000
1.087701e+003,1.159560e+000
1.091558e+003,1.219204e+000
1.095415e+003,1.193232e+000
1.099272e+003,1.158585e+000
1.103130e+003,1.178668e+000
1.106987e+003,1.224871e+000
1.110844e+003,1.060032e+000
1.114701e+003,1.037456e+000
1.118558e+003,1.136668e+000
1.122415e+003,1.073957e+000
1.126272e+003,1.004187e+000
1.130129e+003,1.046355e+000
1.133986e+003,1.104795e+000
1.137843e+003,1.081720e+000
1.141701e+003,1.035706e+000
1.145558e+003,1.059376e+000
1.149415e+003,1.051329e+000
1.153272e+003,9.837052e-001
1.157129e+003,9.819068e-001
1.160986e+003,1.027892e+000
1.164843e+003,1.048638e+000
1.168700e+003,1.013770e+000
1.172557e+003,9.450982e-001
1.176414e+003,9.338366e-001
1.180271e+003,9.534791e-001
1.184129e+003,9.816009e-001
1.187986e+003,1.008557e+000
1.191843e+003,1.019613e+000
1.195700e+003,9.790595e-001
1.199557e+003,9.652579e-001
1.203414e+003,9.459362e-001
1.207271e+003,8.979941e-001
1.211128e+003,8.431761e-001
1.214985e+003,8.054833e-001
1.218842e+003,8.184651e-001
1.222699e+003,8.148187e-001
1.226557e+003,7.626961e-001
1.230414e+003,7.164773e-001
1.234271e+003,6.804867e-001
1.238128e+003,6.819187e-001
1.241985e+003,6.922858e-001
1.245842e+003,6.657594e-001
1.249699e+003,6.188183e-001
1.253556e+003,5.957633e-001
1.257413e+003,5.817758e-001
1.261271e+003,5.498863e-001
1.265128e+003,5.285974e-001
1.268985e+003,5.262973e-001
1.272842e+003,5.211700e-001
1.276699e+003,5.085732e-001
1.280556e+003,4.901984e-001
1.284413e+003,4.735218e-001
1.288270e+003,4.600035e-001
1.292127e+003,4.460860e-001
1.295984e+003,4.452341e-001
1.299841e+003,4.426185e-001
1.303698e+003,4.349896e-001
1.307556e+003,4.225991e-001
1.311413e+003,4.088074e-001
1.315270e+003,4.051510e-001
1.319127e+003,4.016364e-001
1.322984e+003,3.987815e-001
1.326841e+003,3.988640e-001
1.330698e+003,3.986139e-001
1.334555e+003,3.917375e-001
1.338412e+003,3.856356e-001
1.342270e+003,3.837875e-001
1.346127e+003,3.785242e-001
1.349984e+003,3.801726e-001
1.353841e+003,3.798608e-001
1.357698e+003,3.812157e-001
1.361555e+003,3.786670e-001
1.365412e+003,3.779580e-001
1.369269e+003,3.679549e-001
1.373126e+003,3.665203e-001
1.376983e+003,3.723310e-001
1.380840e+003,3.695397e-001
1.384698e+003,3.753030e-001
1.388555e+003,3.840691e-001
1.392412e+003,3.930406e-001
1.396269e+003,4.012118e-001
1.400126e+003,4.126040e-001
1.403983e+003,4.217696e-001
1.407840e+003,4.279083e-001
1.411697e+003,4.324369e-001
1.415554e+003,4.369521e-001
1.419411e+003,4.402659e-001
1.423269e+003,4.477688e-001
1.427126e+003,4.573227e-001
1.430983e+003,4.676870e-001
1.434840e+003,4.628858e-001
1.438697e+003,4.559390e-001
1.442554e+003,4.592385e-001
1.446411e+003,4.629074e-001
1.450268e+003,4.547283e-001
1.454125e+003,4.488345e-001
1.457982e+003,4.392017e-001
1.461839e+003,4.372950e-001
1.465697e+003,4.378993e-001
1.469554e+003,4.314978e-001
1.473411e+003,4.219697e-001
1.477268e+003,4.254702e-001
1.481125e+003,4.323192e-001
1.484982e+003,4.329493e-001
1.488839e+003,4.361524e-001
1.492696e+003,4.451108e-001
1.496553e+003,4.653426e-001
1.500411e+003,4.788277e-001
1.504268e+003,4.751736e-001
1.508125e+003,4.766431e-001
1.511982e+003,4.807310e-001
1.515839e+003,4.767558e-001
1.519696e+003,4.627041e-001
1.523553e+003,4.576963e-001
1.527410e+003,4.677858e-001
1.531267e+003,4.733495e-001
1.535124e+003,4.714704e-001
1.538981e+003,4.616027e-001
1.542839e+003,4.504747e-001
1.546696e+003,4.498298e-001
1.550553e+003,4.485548e-001
1.554410e+003,4.380949e-001
1.558267e+003,4.241259e-001
1.562124e+003,4.125762e-001
1.565981e+003,4.016450e-001
1.569838e+003,3.990175e-001
1.573695e+003,4.006502e-001
1.577552e+003,4.047372e-001
1.581410e+003,4.026965e-001
1.585267e+003,3.956950e-001
1.589124e+003,3.907300e-001
1.592981e+003,3.894258e-001
1.596838e+003,3.964029e-001
1.600695e+003,4.087315e-001
1.604552e+003,4.159308e-001
1.608409e+003,4.229676e-001
1.612266e+003,4.424160e-001
1.616123e+003,4.552799e-001
1.619980e+003,4.662634e-001
1.623838e+003,4.897263e-001
1.627695e+003,5.199424e-001
1.631552e+003,5.322757e-001
1.635409e+003,5.267558e-001
1.639266e+003,5.229675e-001
1.643123e+003,5.260131e-001
1.646980e+003,5.145077e-001
1.650837e+003,5.103200e-001
1.654694e+003,5.132439e-001
1.658551e+003,5.219870e-001
1.662409e+003,5.164819e-001
1.666266e+003,4.924385e-001
1.670123e+003,4.749754e-001
1.673980e+003,4.710748e-001
1.677837e+003,4.653562e-001
1.681694e+003,4.516755e-001
1.685551e+003,4.410166e-001
1.689408e+003,4.363362e-001
1.693265e+003,4.249786e-001
1.697122e+003,4.135825e-001
1.700979e+003,4.202869e-001
1.704837e+003,4.159542e-001
1.708694e+003,4.057346e-001
1.712551e+003,4.049147e-001
1.716408e+003,4.032114e-001
1.720265e+003,4.020585e-001
1.724122e+003,4.068445e-001
1.727979e+003,4.066874e-001
1.731836e+003,4.047479e-001
1.735693e+003,3.998480e-001
1.739550e+003,4.001399e-001
1.743408e+003,4.098868e-001
1.747265e+003,4.102343e-001
1.751122e+003,4.103717e-001
1.754979e+003,4.104488e-001
1.758836e+003,4.129928e-001
1.762693e+003,4.126317e-001
1.766550e+003,4.091648e-001
1.770407e+003,4.033477e-001
1.774264e+003,4.045688e-001
1.778121e+003,4.124458e-001
1.781979e+003,4.124366e-001
1.785836e+003,4.099081e-001
1.789693e+003,4.021507e-001
1.793550e+003,3.969834e-001
1.797407e+003,3.947695e-001
1.801264e+003,3.890155e-001
1.805121e+003,3.824561e-001
1.808978e+003,3.835840e-001
1.812835e+003,3.944940e-001
1.816692e+003,3.942828e-001
1.820549e+003,3.852478e-001
1.824407e+003,3.820303e-001
1.828264e+003,3.833796e-001
1.832121e+003,3.840909e-001
1.835978e+003,3.841310e-001
1.839835e+003,3.875304e-001
1.843692e+003,3.885620e-001
1.847549e+003,3.788580e-001
1.851406e+003,3.740212e-001
1.855263e+003,3.748170e-001
1.859120e+003,3.707961e-001
1.862978e+003,3.663717e-001
1.866835e+003,3.696381e-001
1.870692e+003,3.719627e-001
1.874549e+003,3.730619e-001
1.878406e+003,3.640141e-001
1.882263e+003,3.531492e-001
1.886120e+003,3.567681e-001
1.889977e+003,3.605825e-001
1.893834e+003,3.559397e-001
1.897691e+003,3.586890e-001
1.901548e+003,3.595976e-001
1.905406e+003,3.620479e-001
1.909263e+003,3.661830e-001
1.913120e+003,3.678894e-001
1.916977e+003,3.663985e-001
1.920834e+003,3.652084e-001
1.924691e+003,3.646148e-001
1.928548e+003,3.645454e-001
1.932405e+003,3.658644e-001
1.936262e+003,3.708324e-001
1.940119e+003,3.747193e-001
1.943977e+003,3.724936e-001
1.947834e+003,3.635329e-001
1.951691e+003,3.637753e-001
1.955548e+003,3.666445e-001
1.959405e+003,3.671031e-001
1.963262e+003,3.676684e-001
1.967119e+003,3.614793e-001
1.970976e+003,3.548388e-001
1.974833e+003,3.544312e-001
1.978690e+003,3.537666e-001
1.982547e+003,3.558957e-001
1.986405e+003,3.590426e-001
1.990262e+003,3.548985e-001
1.994119e+003,3.440742e-001
1.997976e+003,3.360159e-001
2.001833e+003,3.381841e-001
2.005690e+003,3.391706e-001
2.009547e+003,3.348355e-001
2.013404e+003,3.377848e-001
2.017261e+003,3.403497e-001
2.021118e+003,3.360195e-001
2.024976e+003,3.377632e-001
2.028833e+003,3.386021e-001
2.032690e+003,3.387878e-001
2.036547e+003,3.417450e-001
2.040404e+003,3.461377e-001
2.044261e+003,3.480126e-001
2.048118e+003,3.406527e-001
2.051975e+003,3.350095e-001
2.055832e+003,3.421987e-001
2.059689e+003,3.511971e-001
2.063546e+003,3.559626e-001
2.067404e+003,3.530546e-001
2.071261e+003,3.503385e-001
2.075118e+003,3.515046e-001
2.078975e+003,3.507604e-001
2.082832e+003,3.515077e-001
2.086689e+003,3.561666e-001
2.090546e+003,3.577403e-001
2.094403e+003,3.518978e-001
2.098260e+003,3.481205e-001
2.102117e+003,3.486423e-001
2.105975e+003,3.468713e-001
2.109832e+003,3.375748e-001
2.113689e+003,3.307690e-001
2.117546e+003,3.279774e-001
2.121403e+003,3.305947e-001
2.125260e+003,3.338049e-001
2.129117e+003,3.282355e-001
2.132974e+003,3.203857e-001
2.136831e+003,3.182817e-001
2.140688e+003,3.206156e-001
2.144545e+003,3.220029e-001
2.148403e+003,3.203309e-001
2.152260e+003,3.224467e-001
2.156117e+003,3.253430e-001
2.159974e+003,3.267566e-001
2.163831e+003,3.293698e-001
2.167688e+003,3.321860e-001
2.171545e+003,3.363283e-001
2.175402e+003,3.367027e-001
2.179259e+003,3.377646e-001
2.183116e+003,3.397159e-001
2.186974e+003,3.429333e-001
2.190831e+003,3.499704e-001
2.194688e+003,3.505386e-001
2.198545e+003,3.474534e-001
2.202402e+003,3.457826e-001
2.206259e+003,3.433343e-001
2.210116e+003,3.479011e-001
2.213973e+003,3.530948e-001
2.217830e+003,3.495640e-001
2.221688e+003,3.431697e-001
2.225544e+003,3.447919e-001
2.229402e+003,3.476794e-001
2.233259e+003,3.428999e-001
2.237116e+003,3.361357e-001
2.240973e+003,3.300931e-001
2.244830e+003,3.247414e-001
2.248687e+003,3.204454e-001
2.252544e+003,3.217693e-001
2.256401e+003,3.192540e-001
2.260258e+003,3.171732e-001
2.264115e+003,3.201506e-001
2.267973e+003,3.194161e-001
2.271830e+003,3.165917e-001
2.275687e+003,3.177480e-001
2.279544e+003,3.192757e-001
2.283401e+003,3.167227e-001
2.287258e+003,3.206454e-001
2.291115e+003,3.325137e-001
2.294972e+003,3.359348e-001
2.298829e+003,3.309965e-001
2.302687e+003,3.373463e-001
2.306543e+003,3.472385e-001
2.310401e+003,3.506696e-001
2.314258e+003,3.505183e-001
2.318115e+003,3.582382e-001
2.321972e+003,3.594577e-001
2.325829e+003,3.566231e-001
2.329686e+003,3.579980e-001
2.333543e+003,3.612290e-001
2.337400e+003,3.612913e-001
2.341257e+003,3.531055e-001
2.345115e+003,3.471772e-001
2.348972e+003,3.479961e-001
2.352829e+003,3.517084e-001
2.356686e+003,3.534175e-001
2.360543e+003,3.488849e-001
2.364400e+003,3.437617e-001
2.368257e+003,3.447182e-001
2.372114e+003,3.384044e-001
2.375971e+003,3.277570e-001
2.379828e+003,3.129081e-001
2.383686e+003,3.074556e-001
2.387542e+003,3.126060e-001
2.391400e+003,3.108564e-001
2.395257e+003,3.051548e-001
2.399114e+003,3.020720e-001
2.402971e+003,2.997347e-001
2.406828e+003,3.034572e-001
2.410685e+003,3.070813e-001
2.414542e+003,3.039017e-001
2.418399e+003,3.030607e-001
2.422256e+003,3.051256e-001
2.426114e+003,3.065087e-001
2.429971e+003,3.128885e-001
2.433828e+003,3.201241e-001
2.437685e+003,3.197736e-001
2.441542e+003,3.200951e-001
2.445399e+003,3.198457e-001
2.449256e+003,3.231216e-001
2.453113e+003,3.282500e-001
2.456970e+003,3.317660e-001
2.460827e+003,3.338603e-001
2.464684e+003,3.296494e-001
2.468542e+003,3.277459e-001
2.472399e+003,3.279689e-001
2.476256e+003,3.256640e-001
2.480113e+003,3.222463e-001
2.483970e+003,3.197093e-001
2.487827e+003,3.116813e-001
2.491684e+003,3.099981e-001
2.495541e+003,3.111654e-001
2.499398e+003,3.066031e-001
2.503255e+003,3.017267e-001
2.507113e+003,2.950658e-001
2.510969e+003,2.901306e-001
2.514827e+003,2.894037e-001
2.518684e+003,2.851259e-001
2.522541e+003,2.813969e-001
2.526398e+003,2.826632e-001
2.530255e+003,2.866581e-001
2.534112e+003,2.886758e-001
2.537969e+003,2.867726e-001
2.541826e+003,2.843472e-001
2.545683e+003,2.848464e-001
2.549541e+003,2.888402e-001
2.553398e+003,2.921631e-001
2.557255e+003,2.956355e-001
2.561112e+003,3.060037e-001
2.564969e+003,3.132721e-001
2.568826e+003,3.133022e-001
2.572683e+003,3.113487e-001
2.576540e+003,3.138394e-001
2.580397e+003,3.155418e-001
2.584254e+003,3.173583e-001
2.588112e+003,3.236248e-001
2.591969e+003,3.218605e-001
2.595826e+003,3.164429e-001
2.599683e+003,3.167256e-001
2.603540e+003,3.180555e-001
2.607397e+003,3.171122e-001
2.611254e+003,3.157129e-001
2.615111e+003,3.160147e-001
2.618968e+003,3.091272e-001
2.622825e+003,3.028131e-001
2.626682e+003,3.007412e-001
2.630540e+003,2.936764e-001
2.634397e+003,2.912983e-001
2.638254e+003,2.938391e-001
2.642111e+003,2.943698e-001
2.645968e+003,2.908914e-001
2.649825e+003,2.933080e-001
2.653682e+003,2.978743e-001
2.657539e+003,2.962804e-001
2.661396e+003,2.946295e-001
2.665253e+003,2.885056e-001
2.669111e+003,2.842389e-001
2.672968e+003,2.877291e-001
2.676825e+003,2.928081e-001
2.680682e+003,2.978596e-001
2.684539e+003,3.067292e-001
2.688396e+003,3.121071e-001
2.692253e+003,3.162726e-001
2.696110e+003,3.209387e-001
2.699967e+003,3.210474e-001
2.703824e+003,3.237142e-001
2.707681e+003,3.263929e-001
2.711539e+003,3.283646e-001
2.715396e+003,3.334757e-001
2.719253e+003,3.369742e-001
2.723110e+003,3.364220e-001
2.726967e+003,3.332619e-001
2.730824e+003,3.382767e-001
2.734681e+003,3.427536e-001
2.738538e+003,3.410666e-001
2.742395e+003,3.389646e-001
2.746252e+003,3.355808e-001
2.750110e+003,3.363021e-001
2.753967e+003,3.362279e-001
2.757824e+003,3.334844e-001
2.761681e+003,3.301915e-001
2.765538e+003,3.290044e-001
2.769395e+003,3.288128e-001
2.773252e+003,3.277343e-001
2.777109e+003,3.275818e-001
2.780966e+003,3.304823e-001
2.784823e+003,3.271909e-001
2.788680e+003,3.275466e-001
2.792538e+003,3.347827e-001
2.796395e+003,3.333138e-001
2.800252e+003,3.354148e-001
2.804109e+003,3.365415e-001
2.807966e+003,3.368796e-001
2.811823e+003,3.465867e-001
2.815680e+003,3.498854e-001
2.819537e+003,3.438324e-001
2.823394e+003,3.472528e-001
2.827251e+003,3.605217e-001
2.831109e+003,3.670115e-001
2.834966e+003,3.706299e-001
2.838823e+003,3.767663e-001
2.842680e+003,3.804306e-001
2.846537e+003,3.799574e-001
2.850394e+003,3.854660e-001
2.854251e+003,3.868187e-001
2.858108e+003,3.894018e-001
2.861965e+003,3.829857e-001
2.865823e+003,3.761565e-001
2.869679e+003,3.777857e-001
2.873537e+003,3.833308e-001
2.877394e+003,3.889840e-001
2.881251e+003,3.841376e-001
2.885108e+003,3.825001e-001
2.888965e+003,3.916583e-001
2.892822e+003,3.883885e-001
2.896679e+003,3.833310e-001
2.900536e+003,3.844374e-001
2.904393e+003,3.844760e-001
2.908250e+003,3.876055e-001
2.912108e+003,3.893409e-001
2.915965e+003,3.916456e-001
2.919822e+003,3.942541e-001
2.923679e+003,3.914264e-001
2.927536e+003,3.984494e-001
2.931393e+003,4.028553e-001
2.935250e+003,3.974448e-001
2.939107e+003,4.018396e-001
2.942964e+003,4.037074e-001
2.946822e+003,4.079368e-001
2.950678e+003,4.166184e-001
2.954536e+003,4.219270e-001
2.958393e+003,4.200715e-001
2.962250e+003,4.255120e-001
2.966107e+003,4.253053e-001
2.969964e+003,4.229833e-001
2.973821e+003,4.300859e-001
2.977678e+003,4.346305e-001
2.981535e+003,4.370606e-001
2.985392e+003,4.426297e-001
2.989250e+003,4.488456e-001
2.993107e+003,4.549502e-001
2.996964e+003,4.573948e-001
3.000821e+003,4.569268e-001
3.004678e+003,4.558612e-001
3.008535e+003,4.625659e-001
3.012392e+003,4.678682e-001
3.016249e+003,4.679220e-001
3.020106e+003,4.645705e-001
3.023963e+003,4.654754e-001
3.027821e+003,4.706872e-001
3.031677e+003,4.681828e-001
3.035535e+003,4.636571e-001
3.039392e+003,4.640490e-001
3.043249e+003,4.656371e-001
3.047106e+003,4.622119e-001
3.050963e+003,4.700966e-001
3.054820e+003,4.836240e-001
3.058677e+003,4.801190e-001
3.062534e+003,4.715831e-001
3.066391e+003,4.812083e-001
3.070249e+003,4.855042e-001
3.074106e+003,4.872147e-001
3.077963e+003,4.967238e-001
3.081820e+003,5.031880e-001
3.085677e+003,4.952715e-001
3.089534e+003,4.968910e-001
3.093391e+003,5.106112e-001
3.097248e+003,5.078675e-001
3.101105e+003,5.034206e-001
3.104962e+003,5.160586e-001
3.108820e+003,5.287042e-001
3.112677e+003,5.315452e-001
3.116534e+003,5.391812e-001
3.120391e+003,5.400198e-001
3.124248e+003,5.295721e-001
3.128105e+003,5.296010e-001
3.131962e+003,5.389604e-001
3.135819e+003,5.454808e-001
3.139676e+003,5.552163e-001
3.143533e+003,5.623363e-001
3.147390e+003,5.621390e-001
3.151248e+003,5.713038e-001
3.155105e+003,5.778214e-001
3.158962e+003,5.707167e-001
3.162819e+003,5.689009e-001
3.166676e+003,5.737913e-001
3.170533e+003,5.706871e-001
3.174390e+003,5.695499e-001
3.178247e+003,5.805473e-001
3.182104e+003,5.899727e-001
3.185961e+003,5.940765e-001
3.189819e+003,5.850279e-001
3.193676e+003,5.760880e-001
3.197533e+003,5.825555e-001
3.201390e+003,5.933829e-001
3.205247e+003,5.932142e-001
3.209104e+003,5.939481e-001
3.212961e+003,5.909957e-001
3.216818e+003,5.862733e-001
3.220675e+003,5.987223e-001
3.224532e+003,6.180750e-001
3.228389e+003,6.152608e-001
3.232247e+003,6.032468e-001
3.236104e+003,6.021879e-001
3.239961e+003,6.019298e-001
3.243818e+003,6.081176e-001
3.247675e+003,6.188726e-001
3.251532e+003,6.258340e-001
3.255389e+003,6.291368e-001
3.259246e+003,6.320142e-001
3.263103e+003,6.386528e-001
3.266960e+003,6.491276e-001
3.270818e+003,6.378052e-001
3.274675e+003,6.314049e-001
3.278532e+003,6.481333e-001
3.282389e+003,6.605669e-001
3.286246e+003,6.636988e-001
3.290103e+003,6.624203e-001
3.293960e+003,6.542807e-001
3.297817e+003,6.450541e-001
3.301674e+003,6.405370e-001
3.305531e+003,6.465628e-001
3.309388e+003,6.477847e-001
3.313246e+003,6.466733e-001
3.317103e+003,6.549881e-001
3.320960e+003,6.595632e-001
3.324817e+003,6.695694e-001
3.328674e+003,6.702328e-001
3.332531e+003,6.728004e-001
3.336388e+003,6.696419e-001
3.340245e+003,6.608522e-001
3.344102e+003,6.623853e-001
3.347959e+003,6.587852e-001
3.351817e+003,6.596107e-001
3.355674e+003,6.616518e-001
3.359531e+003,6.604782e-001
3.363388e+003,6.647322e-001
3.367245e+003,6.762566e-001
3.371102e+003,6.722943e-001
3.374959e+003,6.767241e-001
3.378816e+003,6.947147e-001
3.382673e+003,6.994576e-001
3.386530e+003,6.955462e-001
3.390387e+003,6.909880e-001
3.394245e+003,6.910093e-001
3.398102e+003,6.977272e-001
3.401959e+003,6.994810e-001
3.405816e+003,6.973282e-001
3.409673e+003,7.077547e-001
3.413530e+003,7.046627e-001
3.417387e+003,7.118025e-001
3.421244e+003,7.160803e-001
3.425101e+003,7.093483e-001
3.428958e+003,7.071082e-001
3.432815e+003,7.108260e-001
3.436673e+003,7.055939e-001
3.440530e+003,7.129776e-001
3.444387e+003,7.197362e-001
3.448244e+003,7.168943e-001
3.452101e+003,7.189729e-001
3.455958e+003,7.120757e-001
3.459815e+003,7.186730e-001
3.463672e+003,7.158045e-001
3.467529e+003,7.050254e-001
3.471386e+003,7.024499e-001
3.475244e+003,7.138191e-001
3.479101e+003,7.182078e-001
3.482958e+003,7.001126e-001
3.486815e+003,7.031097e-001
3.490672e+003,7.201291e-001
3.494529e+003,7.244656e-001
3.498386e+003,7.146094e-001
3.502243e+003,7.197416e-001
3.506100e+003,7.222478e-001
3.509958e+003,7.141184e-001
3.513814e+003,7.158069e-001
3.517672e+003,7.315457e-001
3.521529e+003,7.294034e-001
3.525386e+003,7.221877e-001
3.529243e+003,7.177630e-001
3.533100e+003,7.203372e-001
3.536957e+003,7.249247e-001
3.540814e+003,7.271358e-001
3.544671e+003,7.282873e-001
3.548528e+003,7.247759e-001
3.552385e+003,7.211192e-001
3.556243e+003,7.269867e-001
3.560100e+003,7.288621e-001
3.563957e+003,7.165912e-001
3.567814e+003,7.169896e-001
3.571671e+003,7.190880e-001
3.575528e+003,7.065105e-001
3.579385e+003,6.980343e-001
3.583242e+003,6.914349e-001
3.587099e+003,6.977546e-001
3.590957e+003,6.973739e-001
3.594813e+003,6.839189e-001
3.598671e+003,6.641549e-001
3.602528e+003,6.515208e-001
3.606385e+003,6.471320e-001
3.610242e+003,6.342056e-001
3.614099e+003,6.216903e-001
3.617956e+003,6.197202e-001
3.621813e+003,6.009027e-001
3.625670e+003,5.613916e-001
3.629527e+003,5.383344e-001
3.633385e+003,5.370100e-001
3.637242e+003,5.227120e-001
3.641099e+003,5.015417e-001
3.644956e+003,4.823516e-001
3.648813e+003,4.580896e-001
3.652670e+003,4.330067e-001
3.656527e+003,4.154066e-001
3.660384e+003,4.013081e-001
3.664241e+003,3.823539e-001
3.668098e+003,3.629927e-001
3.671956e+003,3.484368e-001
3.675813e+003,3.442304e-001
3.679670e+003,3.369234e-001
3.683527e+003,3.220728e-001
3.687384e+003,3.092225e-001
3.691241e+003,3.005926e-001
3.695098e+003,2.952485e-001
3.698955e+003,2.925098e-001
3.702812e+003,2.899591e-001
3.706669e+003,2.856529e-001
3.710526e+003,2.743176e-001
3.714384e+003,2.662815e-001
3.718241e+003,2.712148e-001
3.722098e+003,2.678095e-001
3.725955e+003,2.607715e-001
3.729812e+003,2.572778e-001
3.733669e+003,2.537896e-001
3.737526e+003,2.585711e-001
3.741383e+003,2.569270e-001
3.745240e+003,2.598559e-001
3.749097e+003,2.665896e-001
3.752955e+003,2.593609e-001
3.756812e+003,2.517555e-001
3.760669e+003,2.559001e-001
3.764526e+003,2.594031e-001
3.768383e+003,2.550513e-001
3.772240e+003,2.462547e-001
3.776097e+003,2.436055e-001
3.779954e+003,2.478406e-001
3.783811e+003,2.440671e-001
3.787668e+003,2.424143e-001
3.791525e+003,2.447176e-001
3.795383e+003,2.428300e-001
3.799240e+003,2.397424e-001
3.803097e+003,2.372783e-001
3.806954e+003,2.395538e-001
3.810811e+003,2.390248e-001
3.814668e+003,2.262063e-001
3.818525e+003,2.242991e-001
3.822382e+003,2.323819e-001
3.826239e+003,2.342207e-001
3.830096e+003,2.385510e-001
3.833954e+003,2.367471e-001
3.837811e+003,2.348830e-001
3.841668e+003,2.420414e-001
3.845525e+003,2.453396e-001
3.849382e+003,2.413941e-001
3.853239e+003,2.413199e-001
3.857096e+003,2.403716e-001
3.860953e+003,2.333871e-001
3.864810e+003,2.351254e-001
3.868667e+003,2.409886e-001
3.872524e+003,2.391574e-001
3.876382e+003,2.378717e-001
3.880239e+003,2.415504e-001
3.884096e+003,2.394302e-001
3.887953e+003,2.351101e-001
3.891810e+003,2.345439e-001
3.895667e+003,2.320388e-001
3.899524e+003,2.323079e-001
3.903381e+003,2.333598e-001
3.907238e+003,2.263143e-001
3.911095e+003,2.260943e-001
3.914953e+003,2.243865e-001
3.918810e+003,2.207602e-001
3.922667e+003,2.244204e-001
3.926524e+003,2.245342e-001
3.930381e+003,2.190693e-001
3.934238e+003,2.117186e-001
3.938095e+003,2.090427e-001
3.941952e+003,2.115366e-001
3.945809e+003,2.177524e-001
3.949667e+003,2.155588e-001
3.953523e+003,2.131595e-001
3.957381e+003,2.142861e-001
3.961238e+003,2.153245e-001
3.965095e+003,2.151505e-001
3.968952e+003,2.213690e-001
3.972809e+003,2.264428e-001
3.976666e+003,2.304118e-001
3.980523e+003,2.266642e-001
3.984380e+003,2.222026e-001
3.988237e+003,2.223016e-001
3.992094e+003,2.236015e-001
3.995952e+003,2.298310e-001
3.999809e+003,2.340377e-001
4.003666e+003,2.297106e-001
4.007523e+003,2.258631e-001
4.011380e+003,2.279016e-001
4.015237e+003,2.296120e-001
4.019094e+003,2.230148e-001
4.022951e+003,2.188937e-001
4.026808e+003,2.178771e-001
4.030666e+003,2.148828e-001
4.034522e+003,2.164523e-001
4.038380e+003,2.198860e-001
4.042237e+003,2.084319e-001
4.046094e+003,2.045567e-001
4.049951e+003,2.132082e-001
4.053808e+003,2.122496e-001
4.057665e+003,2.095120e-001
4.061522e+003,2.094184e-001
4.065379e+003,2.065669e-001
4.069236e+003,2.006759e-001
4.073094e+003,2.014341e-001
4.076951e+003,2.043592e-001
4.080808e+003,2.052570e-001
4.084665e+003,2.048884e-001
4.088522e+003,2.031047e-001
4.092379e+003,2.092446e-001
4.096236e+003,2.103106e-001
4.100093e+003,2.033119e-001
4.103950e+003,1.913404e-001
4.107808e+003,1.925023e-001
4.111665e+003,2.069123e-001
4.115521e+003,2.131454e-001
4.119379e+003,2.091541e-001
4.123236e+003,2.117949e-001
4.127093e+003,2.122398e-001
4.130950e+003,2.026166e-001
4.134807e+003,2.048288e-001
4.138664e+003,2.056862e-001
4.142521e+003,2.079697e-001
4.146378e+003,2.101463e-001
4.150235e+003,2.093174e-001
4.154093e+003,2.023832e-001
4.157950e+003,2.007356e-001
4.161807e+003,2.084314e-001
4.165664e+003,2.079081e-001
4.169521e+003,2.002696e-001
4.173378e+003,1.996715e-001
4.177235e+003,2.111571e-001
4.181092e+003,2.085905e-001
4.184949e+003,1.965556e-001
4.188807e+003,1.937910e-001
4.192664e+003,1.953340e-001
4.196521e+003,1.915872e-001
4.200378e+003,1.852257e-001
4.204235e+003,1.811604e-001
4.208092e+003,1.865899e-001
4.211949e+003,1.932969e-001
4.215806e+003,1.984673e-001
4.219663e+003,1.973031e-001
4.223521e+003,1.899498e-001
4.227377e+003,1.861230e-001
4.231234e+003,1.942730e-001
4.235092e+003,2.000721e-001
4.238949e+003,2.012959e-001
4.242806e+003,1.994976e-001
4.246663e+003,2.039235e-001
4.250520e+003,1.977966e-001
4.254377e+003,1.950403e-001
4.258234e+003,2.036918e-001
4.262091e+003,2.076724e-001
4.265948e+003,2.102627e-001
4.269806e+003,2.151765e-001
4.273663e+003,2.076088e-001
4.277520e+003,2.007719e-001
4.281377e+003,2.024522e-001
4.285234e+003,2.052803e-001
4.289091e+003,1.978020e-001
4.292948e+003,1.964048e-001
4.296805e+003,1.935361e-001
4.300662e+003,1.904001e-001
4.304520e+003,1.900264e-001
4.308376e+003,1.889739e-001
4.312233e+003,1.892083e-001
4.316091e+003,1.900924e-001
4.319948e+003,1.892691e-001
4.323805e+003,1.921371e-001
4.327662e+003,1.996355e-001
4.331519e+003,1.889345e-001
4.335376e+003,1.784356e-001
4.339233e+003,1.792800e-001
4.343090e+003,1.839713e-001
4.346947e+003,1.845200e-001
4.350805e+003,1.805016e-001
4.354662e+003,1.788299e-001
4.358519e+003,1.983984e-001
4.362376e+003,2.005566e-001
4.366233e+003,1.940854e-001
4.370090e+003,1.940794e-001
4.373947e+003,2.007911e-001
4.377804e+003,2.114749e-001
4.381661e+003,2.125222e-001
4.385519e+003,2.030462e-001
4.389375e+003,2.051649e-001
4.393232e+003,2.153235e-001
4.397090e+003,2.153641e-001
4.400947e+003,2.124414e-001
4.404804e+003,2.121956e-001
4.408661e+003,2.063687e-001
4.412518e+003,2.050646e-001
4.416375e+003,2.082162e-001
4.420232e+003,2.130865e-001
4.424089e+003,2.117718e-001
4.427946e+003,2.043434e-001
4.431804e+003,1.967704e-001
4.435661e+003,1.950986e-001
4.439518e+003,2.023489e-001
4.443375e+003,2.080271e-001
4.447232e+003,2.080099e-001
4.451089e+003,2.012609e-001
4.454946e+003,1.967487e-001
4.458803e+003,1.978532e-001
4.462660e+003,1.968859e-001
4.466518e+003,1.946736e-001
4.470375e+003,1.970320e-001
4.474231e+003,1.947504e-001
4.478089e+003,1.913562e-001
4.481946e+003,1.974989e-001
4.485803e+003,1.953478e-001
4.489660e+003,1.976947e-001
4.493517e+003,2.059187e-001
4.497375e+003,1.951299e-001
4.501231e+003,1.923482e-001
4.505088e+003,1.995521e-001
4.508946e+003,2.008974e-001
4.512803e+003,2.071510e-001
4.516660e+003,2.052610e-001
4.520517e+003,2.066300e-001
4.524374e+003,2.201408e-001
4.528231e+003,2.301133e-001
4.532088e+003,2.184352e-001
4.535945e+003,2.049147e-001
4.539802e+003,2.090642e-001
4.543660e+003,2.187185e-001
4.547517e+003,2.284036e-001
4.551374e+003,2.291631e-001
4.555231e+003,2.264336e-001
4.559088e+003,2.201005e-001
4.562945e+003,2.127392e-001
4.566802e+003,2.011948e-001
4.570659e+003,2.018698e-001
4.574516e+003,2.078720e-001
4.578374e+003,2.025114e-001
4.582230e+003,1.987224e-001
4.586087e+003,1.997527e-001
4.589945e+003,1.958842e-001
4.593802e+003,1.999132e-001
4.597659e+003,2.042913e-001
4.601516e+003,1.973986e-001
4.605373e+003,1.962502e-001
4.609230e+003,1.996936e-001
4.613087e+003,2.040213e-001
4.616944e+003,2.055832e-001
4.620801e+003,2.036313e-001
4.624659e+003,2.027563e-001
4.628516e+003,1.990156e-001
4.632373e+003,1.991718e-001
4.636230e+003,2.046464e-001
4.640087e+003,2.057021e-001
4.643944e+003,2.130163e-001
4.647801e+003,2.189125e-001
4.651658e+003,2.141792e-001
4.655515e+003,2.019767e-001
4.659373e+003,2.012151e-001
4.663229e+003,2.142897e-001
4.667086e+003,2.105138e-001
4.670944e+003,1.996060e-001
4.674801e+003,2.134373e-001
4.678658e+003,2.271323e-001
4.682515e+003,2.232730e-001
4.686372e+003,2.187101e-001
4.690229e+003,2.175375e-001
4.694086e+003,2.145704e-001
4.697943e+003,2.104823e-001
4.701800e+003,2.118434e-001
4.705658e+003,2.121267e-001
4.709515e+003,2.126734e-001
4.713372e+003,2.174358e-001
4.717229e+003,2.150346e-001
4.721086e+003,2.055945e-001
4.724943e+003,2.013948e-001
4.728800e+003,2.004606e-001
4.732657e+003,2.009922e-001
4.736514e+003,2.055270e-001
4.740372e+003,2.075384e-001
4.744229e+003,2.109133e-001
4.748085e+003,2.178916e-001
4.751943e+003,2.147719e-001
4.755800e+003,2.091582e-001
4.759657e+003,2.091549e-001
4.763514e+003,2.104870e-001
4.767371e+003,2.184964e-001
4.771228e+003,2.244493e-001
4.775085e+003,2.124070e-001
4.778942e+003,2.097641e-001
4.782799e+003,2.230027e-001
4.786657e+003,2.184302e-001
4.790514e+003,2.254333e-001
4.794371e+003,2.321690e-001
4.798228e+003,2.247855e-001
4.802085e+003,2.213878e-001
4.805942e+003,2.161223e-001
4.809799e+003,2.014148e-001
4.813656e+003,2.019283e-001
4.817513e+003,2.087921e-001
4.821371e+003,2.134556e-001
4.825228e+003,2.126347e-001
4.829084e+003,2.079102e-001
4.832942e+003,2.083061e-001
4.836799e+003,2.170820e-001
4.840656e+003,2.137319e-001
4.844513e+003,2.133137e-001
4.848370e+003,2.103257e-001
4.852227e+003,2.090403e-001
4.856084e+003,2.131271e-001
4.859941e+003,2.142959e-001
4.863798e+003,2.135983e-001
4.867656e+003,2.071803e-001
4.871513e+003,2.019649e-001
4.875370e+003,2.108552e-001
4.879227e+003,2.167876e-001
4.883084e+003,2.232977e-001
4.886941e+003,2.202764e-001
4.890798e+003,2.037797e-001
4.894655e+003,2.025668e-001
4.898512e+003,2.023222e-001
4.902370e+003,2.007669e-001
4.906227e+003,2.019652e-001
4.910083e+003,2.093576e-001
4.913941e+003,2.148066e-001
4.917798e+003,2.251956e-001
4.921655e+003,2.336038e-001
4.925512e+003,2.306400e-001
4.929369e+003,2.279228e-001
4.933226e+003,2.376646e-001
4.937083e+003,2.390669e-001
4.940940e+003,2.311694e-001
4.944797e+003,2.254962e-001
4.948655e+003,2.245755e-001
4.952512e+003,2.190898e-001
4.956369e+003,2.146599e-001
4.960226e+003,2.088145e-001
4.964083e+003,2.160188e-001
4.967940e+003,2.246437e-001
4.971797e+003,2.225591e-001
4.975654e+003,2.237872e-001
4.979511e+003,2.275651e-001
4.983369e+003,2.323711e-001
4.987226e+003,2.265519e-001
4.991083e+003,2.256488e-001
4.994940e+003,2.271303e-001
4.998797e+003,2.168120e-001
5.002654e+003,2.154778e-001
5.006511e+003,2.212551e-001
5.010368e+003,2.085308e-001
5.014225e+003,1.979331e-001
5.018083e+003,2.090592e-001
5.021939e+003,2.232372e-001
5.025796e+003,2.117921e-001
5.029654e+003,2.016697e-001
5.033511e+003,2.116255e-001
5.037368e+003,2.194785e-001
5.041225e+003,2.147089e-001
5.045082e+003,2.099756e-001
5.048939e+003,2.102112e-001
5.052796e+003,2.176805e-001
5.056653e+003,2.187628e-001
5.060510e+003,2.146418e-001
5.064368e+003,2.140145e-001
5.068225e+003,2.218495e-001
5.072082e+003,2.208201e-001
5.075939e+003,2.144793e-001
5.079796e+003,2.191637e-001
5.083653e+003,2.180531e-001
5.087510e+003,2.114700e-001
5.091367e+003,2.170271e-001
5.095224e+003,2.132572e-001
5.099082e+003,2.026205e-001
5.102938e+003,2.049371e-001
5.106795e+003,2.112543e-001
5.110653e+003,2.149387e-001
5.114510e+003,2.158911e-001
5.118367e+003,2.153208e-001
5.122224e+003,2.198629e-001
5.126081e+003,2.183374e-001
5.129938e+003,2.111680e-001
5.133795e+003,2.091128e-001
5.137652e+003,2.026923e-001
5.141509e+003,2.026029e-001
5.145367e+003,2.083766e-001
5.149224e+003,2.053103e-001
5.153081e+003,2.155884e-001
5.156938e+003,2.200072e-001
5.160795e+003,2.176139e-001
5.164652e+003,2.177833e-001
5.168509e+003,2.219484e-001
5.172366e+003,2.264471e-001
5.176223e+003,2.196933e-001
5.180081e+003,2.125517e-001
5.183938e+003,2.183162e-001
5.187794e+003,2.175302e-001
5.191652e+003,2.091287e-001
5.195509e+003,1.988057e-001
5.199366e+003,2.015413e-001
5.203223e+003,2.063076e-001
5.207080e+003,2.084247e-001
5.210937e+003,2.068688e-001
5.214794e+003,2.000278e-001
5.218651e+003,2.029096e-001
5.222508e+003,2.185829e-001
5.226366e+003,2.231567e-001
5.230223e+003,2.205025e-001
5.234080e+003,2.039300e-001
5.237937e+003,1.954950e-001
5.241794e+003,2.021927e-001
5.245651e+003,2.000207e-001
5.249508e+003,1.980277e-001
5.253365e+003,2.051370e-001
5.257222e+003,2.156729e-001
5.261080e+003,2.083579e-001
5.264937e+003,2.025901e-001
5.268793e+003,2.051700e-001
5.272651e+003,2.046592e-001
5.276508e+003,2.087015e-001
5.280365e+003,2.086353e-001
5.284222e+003,2.018685e-001
5.288079e+003,2.117383e-001
5.291936e+003,2.285187e-001
5.295793e+003,2.108241e-001
5.299650e+003,2.053523e-001
5.303507e+003,2.205761e-001
5.307365e+003,2.150442e-001
5.311222e+003,2.020074e-001
5.315079e+003,1.936088e-001
5.318936e+003,1.954327e-001
5.322793e+003,1.985368e-001
5.326650e+003,1.977517e-001
5.330507e+003,1.909031e-001
5.334364e+003,2.003456e-001
5.338221e+003,2.100426e-001
5.342079e+003,2.037386e-001
5.345936e+003,2.022627e-001
5.349792e+003,1.935427e-001
5.353650e+003,1.843047e-001
5.357507e+003,1.895370e-001
5.361364e+003,1.871724e-001
5.365221e+003,1.866016e-001
5.369078e+003,1.905671e-001
5.372935e+003,1.961722e-001
5.376792e+003,1.911440e-001
5.380649e+003,2.006027e-001
5.384506e+003,2.153178e-001
5.388364e+003,2.157446e-001
5.392221e+003,1.948139e-001
5.396078e+003,1.858348e-001
5.399935e+003,2.034133e-001
5.403792e+003,2.144615e-001
5.407649e+003,2.059790e-001
5.411506e+003,1.991914e-001
5.415363e+003,2.029310e-001
5.419220e+003,1.978908e-001
5.423078e+003,1.928024e-001
5.426935e+003,1.897671e-001
5.430792e+003,1.888637e-001
5.434649e+003,1.881525e-001
5.438506e+003,1.789938e-001
5.442363e+003,1.723104e-001
5.446220e+003,1.841731e-001
5.450077e+003,1.973823e-001
5.453934e+003,1.892667e-001
5.457792e+003,1.827380e-001
5.461648e+003,1.879520e-001
5.465505e+003,1.911698e-001
5.469363e+003,1.816557e-001
5.473220e+003,1.933727e-001
5.477077e+003,1.979424e-001
5.480934e+003,1.929479e-001
5.484791e+003,1.894116e-001
5.488648e+003,1.860294e-001
5.492505e+003,1.867803e-001
5.496362e+003,1.921705e-001
5.500219e+003,1.751890e-001
5.504077e+003,1.597931e-001
5.507934e+003,1.623826e-001
5.511791e+003,1.709777e-001
5.515648e+003,1.855673e-001
5.519505e+003,1.934109e-001
5.523362e+003,1.953826e-001
5.527219e+003,2.033487e-001
5.531076e+003,2.072366e-001
5.534933e+003,1.947441e-001
5.538791e+003,1.907947e-001
5.542647e+003,1.969149e-001
5.546504e+003,1.853462e-001
5.550362e+003,1.801210e-001
5.554219e+003,1.876469e-001
5.558076e+003,2.033501e-001
5.561933e+003,1.950598e-001
5.565790e+003,1.859210e-001
5.569647e+003,1.903368e-001
5.573504e+003,1.918430e-001
5.577361e+003,1.927551e-001
5.581218e+003,1.878861e-001
5.585076e+003,1.925587e-001
5.588933e+003,1.903745e-001
5.592790e+003,1.857992e-001
5.596647e+003,1.956958e-001
5.600504e+003,1.893416e-001
5.604361e+003,1.740066e-001
5.608218e+003,1.737072e-001
5.612075e+003,1.737276e-001
5.615932e+003,1.678841e-001
5.619790e+003,1.650272e-001
5.623646e+003,1.769717e-001
5.627503e+003,1.791268e-001
5.631361e+003,1.806353e-001
5.635218e+003,1.811823e-001
5.639075e+003,1.840377e-001
5.642932e+003,1.931145e-001
5.646789e+003,1.970341e-001
5.650646e+003,1.896226e-001
5.654503e+003,1.929323e-001
5.658360e+003,2.002917e-001
5.662217e+003,2.053652e-001
5.666075e+003,1.853461e-001
5.669932e+003,1.918126e-001
5.673789e+003,2.010080e-001
5.677646e+003,1.953770e-001
5.681503e+003,1.994566e-001
5.685360e+003,1.967365e-001
5.689217e+003,1.948209e-001
5.693074e+003,1.986658e-001
5.696931e+003,1.845194e-001
5.700789e+003,1.744985e-001
5.704646e+003,1.777092e-001
5.708502e+003,1.756536e-001
5.712360e+003,1.783442e-001
5.716217e+003,1.726414e-001
5.720074e+003,1.712192e-001
5.723931e+003,1.940777e-001
5.727788e+003,1.927251e-001
5.731645e+003,1.683837e-001
5.735502e+003,1.680232e-001
5.739359e+003,1.859669e-001
5.743216e+003,1.917993e-001
5.747074e+003,1.790938e-001
5.750931e+003,1.762702e-001
5.754788e+003,1.964935e-001
5.758645e+003,1.986896e-001
5.762502e+003,1.905499e-001
5.766359e+003,1.808098e-001
5.770216e+003,1.747381e-001
5.774073e+003,1.828659e-001
5.777930e+003,1.817652e-001
5.781788e+003,1.812096e-001
5.785645e+003,1.824465e-001
5.789501e+003,1.758875e-001
5.793359e+003,1.744324e-001
5.797216e+003,1.810314e-001
5.801073e+003,1.851724e-001
5.804930e+003,1.804518e-001
5.808787e+003,1.929251e-001
5.812644e+003,1.953889e-001
5.816501e+003,1.979173e-001
5.820358e+003,1.823993e-001
5.824215e+003,1.786876e-001
5.828073e+003,2.051861e-001
5.831930e+003,2.041577e-001
5.835787e+003,1.843699e-001
5.839644e+003,1.833285e-001
5.843501e+003,2.016769e-001
5.847358e+003,1.993202e-001
5.851215e+003,1.868420e-001
5.855072e+003,1.825485e-001
5.858929e+003,1.903773e-001
5.862787e+003,1.887351e-001
5.866644e+003,1.883788e-001
5.870500e+003,1.836862e-001
5.874358e+003,1.731039e-001
5.878215e+003,1.639748e-001
5.882072e+003,1.785331e-001
5.885929e+003,2.043506e-001
5.889786e+003,2.057203e-001
5.893643e+003,1.916134e-001
5.897500e+003,1.943403e-001
5.901357e+003,1.917748e-001
5.905214e+003,1.769896e-001
5.909072e+003,1.781006e-001
5.912929e+003,1.895171e-001
5.916786e+003,1.897408e-001
5.920643e+003,1.949380e-001
5.924500e+003,2.051378e-001
5.928357e+003,2.134540e-001
5.932214e+003,1.877963e-001
5.936071e+003,1.842216e-001
5.939928e+003,1.946630e-001
5.943786e+003,2.135085e-001
5.947643e+003,2.177326e-001
5.951500e+003,2.023968e-001
5.955357e+003,1.831063e-001
5.959214e+003,1.880116e-001
5.963071e+003,2.074393e-001
5.966928e+003,2.096757e-001
5.970785e+003,2.189556e-001
5.974642e+003,2.346744e-001
5.978500e+003,2.177362e-001
5.982356e+003,2.027632e-001
5.986213e+003,2.118050e-001
5.990071e+003,2.140066e-001
5.993928e+003,2.018879e-001
5.997785e+003,1.957381e-001
6.001642e+003,2.138456e-001
6.005499e+003,2.052480e-001
6.009356e+003,1.887291e-001
6.013213e+003,2.147148e-001
6.017070e+003,2.321139e-001
6.020927e+003,2.234617e-001
6.024785e+003,2.003701e-001
6.028642e+003,2.019815e-001
6.032499e+003,1.987219e-001
6.036356e+003,1.999289e-001
6.040213e+003,2.022238e-001
6.044070e+003,2.002999e-001
6.047927e+003,1.829666e-001
6.051784e+003,1.680976e-001
6.055641e+003,1.836522e-001
6.059499e+003,1.895933e-001
6.063355e+003,1.907038e-001
6.067212e+003,2.062908e-001
6.071070e+003,2.089705e-001
6.074927e+003,2.149949e-001
6.078784e+003,2.081552e-001
6.082641e+003,2.022073e-001
6.086498e+003,2.078632e-001
6.090355e+003,2.064197e-001
6.094212e+003,2.038699e-001
6.098069e+003,2.049258e-001
6.101926e+003,1.988670e-001
6.105784e+003,2.049500e-001
6.109641e+003,1.969026e-001
6.113498e+003,1.889272e-001
6.117355e+003,1.967710e-001
6.121212e+003,1.872853e-001
6.125069e+003,2.027322e-001
6.128926e+003,2.194393e-001
6.132783e+003,2.099045e-001
6.136640e+003,2.026183e-001
6.140498e+003,1.922250e-001
6.144354e+003,1.927394e-001
6.148211e+003,2.182043e-001
6.152069e+003,2.308263e-001
6.155926e+003,2.228049e-001
6.159783e+003,2.229598e-001
6.163640e+003,2.114057e-001
6.167497e+003,1.940035e-001
6.171354e+003,1.978648e-001
6.175211e+003,2.104121e-001
6.179068e+003,1.985150e-001
6.182925e+003,1.925898e-001
6.186783e+003,1.943814e-001
6.190640e+003,1.775869e-001
6.194497e+003,1.730921e-001
6.198354e+003,2.119476e-001
6.202211e+003,2.291575e-001
6.206068e+003,2.289155e-001
6.209925e+003,2.380477e-001
6.213782e+003,2.461336e-001
6.217639e+003,2.309984e-001
6.221497e+003,2.176735e-001
6.225354e+003,2.335052e-001
6.229210e+003,2.232499e-001
6.233068e+003,2.009088e-001
6.236925e+003,2.234886e-001
6.240782e+003,2.334916e-001
6.244639e+003,2.336568e-001
6.248496e+003,1.869407e-001
6.252353e+003,1.678234e-001
6.256210e+003,1.858920e-001
6.260067e+003,1.932909e-001
6.263924e+003,1.941974e-001
6.267782e+003,1.719564e-001
6.271639e+003,1.810067e-001
6.275496e+003,2.184779e-001
6.279353e+003,2.265764e-001
6.283210e+003,2.277255e-001
6.287067e+003,2.274395e-001
6.290924e+003,1.934592e-001
6.294781e+003,1.874201e-001
6.298638e+003,2.183405e-001
6.302496e+003,2.371064e-001
6.306353e+003,2.213698e-001
6.310209e+003,2.138758e-001
6.314067e+003,2.266025e-001
6.317924e+003,2.243432e-001
6.321781e+003,2.225179e-001
6.325638e+003,2.176276e-001
6.329495e+003,2.219522e-001
6.333352e+003,1.993081e-001
6.337209e+003,1.808193e-001
6.341066e+003,1.976963e-001
6.344923e+003,2.194194e-001
6.348780e+003,2.445062e-001
6.352638e+003,2.264767e-001
6.356495e+003,2.222645e-001
6.360352e+003,2.266758e-001
6.364209e+003,2.280639e-001
6.368066e+003,2.093353e-001
6.371923e+003,1.952124e-001
6.375780e+003,2.178519e-001
6.379637e+003,2.157613e-001
6.383494e+003,1.975798e-001
6.387352e+003,2.087161e-001
6.391208e+003,2.372295e-001
6.395065e+003,2.415561e-001
6.398923e+003,2.379179e-001
6.402780e+003,2.670137e-001
6.406637e+003,2.690073e-001
6.410494e+003,2.188282e-001
6.414351e+003,1.950513e-001
6.418208e+003,2.112624e-001
6.422065e+003,2.224163e-001
6.425922e+003,2.142116e-001
6.429779e+003,2.190826e-001
6.433637e+003,2.297616e-001
6.437494e+003,2.167417e-001
6.441351e+003,2.103573e-001
6.445208e+003,1.974136e-001
6.449065e+003,2.024543e-001
6.452922e+003,2.042125e-001
6.456779e+003,1.988508e-001
6.460636e+003,2.092166e-001
6.464493e+003,2.136589e-001
6.468351e+003,2.098123e-001
6.472208e+003,2.045087e-001
6.476064e+003,2.039911e-001
6.479922e+003,2.221141e-001
6.483779e+003,2.433459e-001
6.487636e+003,2.442721e-001
6.491493e+003,2.205313e-001
6.495350e+003,2.230110e-001
6.499207e+003,2.189841e-001
6.503064e+003,1.918026e-001
6.506921e+003,1.962368e-001
6.510778e+003,2.001940e-001
6.514636e+003,2.080290e-001
6.518493e+003,2.084733e-001
6.522350e+003,2.198194e-001
6.526207e+003,2.472761e-001
6.530064e+003,2.691305e-001
6.533921e+003,2.634982e-001
6.537778e+003,2.404770e-001
6.541635e+003,2.116806e-001
6.545492e+003,2.233509e-001
6.549350e+003,2.382649e-001
6.553207e+003,2.291262e-001
6.557063e+003,2.162275e-001
6.560921e+003,2.142384e-001
6.564778e+003,2.000876e-001
6.568635e+003,2.088298e-001
6.572492e+003,2.229671e-001
6.576349e+003,2.074822e-001
6.580206e+003,2.026972e-001
6.584063e+003,1.762760e-001
6.587920e+003,1.888425e-001
6.591777e+003,2.268394e-001
6.595635e+003,2.421641e-001
6.599492e+003,2.547995e-001
6.603349e+003,2.391808e-001
6.607206e+003,2.225793e-001
6.611063e+003,2.324576e-001
6.614920e+003,2.054233e-001
6.618777e+003,1.821358e-001
6.622634e+003,1.834414e-001
6.626491e+003,1.859356e-001
6.630349e+003,1.993567e-001
6.634206e+003,2.230488e-001
6.638063e+003,2.004105e-001
6.641920e+003,1.967374e-001
6.645777e+003,2.133632e-001
6.649634e+003,2.275668e-001
6.653491e+003,2.338205e-001
6.657348e+003,1.856789e-001
6.661205e+003,1.489625e-001
6.665063e+003,1.671889e-001
6.668919e+003,1.856513e-001
6.672776e+003,1.804493e-001
6.676634e+003,1.838637e-001
6.680491e+003,2.242479e-001
6.684348e+003,2.365845e-001
6.688205e+003,2.376798e-001
6.692062e+003,2.339957e-001
6.695919e+003,2.260934e-001
6.699776e+003,1.968469e-001
6.703633e+003,1.591345e-001
6.707490e+003,1.885616e-001
6.711348e+003,2.357695e-001
6.715205e+003,2.477735e-001
6.719062e+003,2.357016e-001
6.722919e+003,2.145539e-001
6.726776e+003,2.052137e-001
6.730633e+003,2.170225e-001
6.734490e+003,2.020345e-001
6.738347e+003,1.845709e-001
6.742204e+003,1.956392e-001
6.746062e+003,2.118588e-001
6.749918e+003,2.202850e-001
6.753775e+003,2.062145e-001
6.757633e+003,2.021706e-001
6.761490e+003,1.962551e-001
6.765347e+003,1.954790e-001
6.769204e+003,2.371618e-001
6.773061e+003,2.308382e-001
6.776918e+003,2.301508e-001
6.780775e+003,2.399597e-001
6.784632e+003,2.290172e-001
6.788489e+003,2.075613e-001
6.792347e+003,2.187656e-001
6.796204e+003,2.143100e-001
6.800061e+003,1.687557e-001
6.803918e+003,1.737543e-001
6.807775e+003,2.110965e-001
6.811632e+003,2.030369e-001
6.815489e+003,1.747303e-001
6.819346e+003,1.602836e-001
6.823203e+003,2.003823e-001
6.827061e+003,2.405541e-001
6.830917e+003,2.328247e-001
6.834774e+003,2.475716e-001
6.838632e+003,2.172353e-001
6.842489e+003,1.843894e-001
6.846346e+003,1.934850e-001
6.850203e+003,1.857219e-001
6.854060e+003,1.665705e-001
6.857917e+003,1.877832e-001
6.861774e+003,1.869954e-001
6.865631e+003,2.074118e-001
6.869488e+003,1.837556e-001
6.873346e+003,1.556201e-001
6.877203e+003,2.212977e-001
6.881060e+003,2.449703e-001
6.884917e+003,2.483330e-001
6.888774e+003,2.368689e-001
6.892631e+003,2.031009e-001
6.896488e+003,1.843321e-001
6.900345e+003,1.713331e-001
6.904202e+003,1.534752e-001
6.908060e+003,1.696704e-001
6.911917e+003,1.725971e-001
6.915773e+003,1.872554e-001
6.919631e+003,2.274622e-001
6.923488e+003,2.220373e-001
6.927345e+003,1.894649e-001
6.931202e+003,1.833645e-001
6.935059e+003,1.758925e-001
6.938916e+003,1.724169e-001
6.942773e+003,1.867395e-001
6.946630e+003,2.248877e-001
6.950487e+003,2.292622e-001
6.954345e+003,1.856789e-001
6.958202e+003,1.524543e-001
6.962059e+003,1.598949e-001
6.965916e+003,1.874225e-001
6.969773e+003,1.919587e-001
6.973630e+003,1.889851e-001
6.977487e+003,2.134452e-001
6.981344e+003,2.180266e-001
6.985201e+003,1.768813e-001
6.989059e+003,1.448710e-001
6.992916e+003,1.296474e-001
6.996772e+003,1.614633e-001
7.000630e+003,2.582564e-001
7.004487e+003,2.607191e-001
7.008344e+003,1.944998e-001
7.012201e+003,1.879163e-001
7.016058e+003,2.060803e-001
7.019915e+003,1.927322e-001
7.023772e+003,1.780366e-001
7.027629e+003,2.041550e-001
7.031486e+003,2.387320e-001
7.035344e+003,2.180041e-001
7.039201e+003,1.957667e-001
7.043058e+003,1.918343e-001
7.046915e+003,2.017782e-001
7.050772e+003,2.187494e-001
7.054629e+003,1.685885e-001
7.058486e+003,1.507423e-001
7.062343e+003,1.795774e-001
7.066200e+003,2.017567e-001
7.070058e+003,2.192315e-001
7.073915e+003,2.041835e-001
7.077771e+003,2.040054e-001
7.081629e+003,2.077034e-001
7.085486e+003,1.727813e-001
7.089343e+003,1.549040e-001
7.093200e+003,1.583333e-001
7.097057e+003,1.745046e-001
7.100914e+003,2.200250e-001
7.104771e+003,1.926635e-001
7.108628e+003,1.700892e-001
7.112485e+003,1.900041e-001
7.116343e+003,2.070984e-001
7.120200e+003,2.443735e-001
7.124057e+003,2.750506e-001
7.127914e+003,2.480567e-001
7.131771e+003,2.402357e-001
7.135628e+003,2.721383e-001
7.139485e+003,2.246889e-001
7.143342e+003,1.544212e-001
7.147199e+003,1.653316e-001
7.151057e+003,2.314140e-001
7.154914e+003,2.424044e-001
7.158771e+003,2.005113e-001
7.162628e+003,2.090661e-001
7.166485e+003,2.957082e-001
7.170342e+003,2.876033e-001
7.174199e+003,2.308347e-001
7.178056e+003,2.181184e-001
7.181913e+003,1.685804e-001
7.185771e+003,1.775303e-001
7.189627e+003,2.145582e-001
7.193484e+003,1.998374e-001
7.197342e+003,1.765315e-001
7.201199e+003,1.571551e-001
7.205056e+003,1.602505e-001
7.208913e+003,2.052611e-001
7.212770e+003,1.930361e-001
7.216627e+003,1.701539e-001
7.220484e+003,1.704725e-001
7.224341e+003,1.568615e-001
7.228198e+003,1.709794e-001
7.232056e+003,1.662375e-001
7.235913e+003,1.534239e-001
7.239770e+003,2.180383e-001
7.243627e+003,2.337106e-001
7.247484e+003,1.942270e-001
7.251341e+003,2.136661e-001
7.255198e+003,2.300276e-001
7.259055e+003,1.882956e-001
7.262912e+003,2.001980e-001
7.266770e+003,1.918036e-001
7.270626e+003,1.330281e-001
7.274483e+003,1.363033e-001
7.278341e+003,1.633745e-001
7.282198e+003,2.016089e-001
7.286055e+003,2.539510e-001
7.289912e+003,2.610039e-001
7.293769e+003,1.987895e-001
7.297626e+003,1.935251e-001
7.301483e+003,2.259371e-001
7.305340e+003,2.522160e-001
7.309197e+003,1.982386e-001
7.313055e+003,1.775269e-001
7.316912e+003,1.966911e-001
7.320769e+003,2.133271e-001
7.324626e+003,2.121264e-001
7.328483e+003,2.149367e-001
7.332340e+003,1.861423e-001
7.336197e+003,1.976105e-001
7.340054e+003,2.024121e-001
7.343911e+003,2.057653e-001
7.347769e+003,1.796136e-001
7.351625e+003,1.878225e-001
7.355482e+003,2.118410e-001
7.359340e+003,1.757680e-001
7.363197e+003,1.717744e-001
7.367054e+003,2.204169e-001
7.370911e+003,2.603707e-001
7.374768e+003,2.640225e-001
7.378625e+003,2.822317e-001
7.382482e+003,2.736442e-001
7.386339e+003,2.741193e-001
7.390196e+003,2.692254e-001
7.394054e+003,2.487275e-001
7.397911e+003,2.783242e-001
7.401768e+003,2.915529e-001
7.405625e+003,2.558171e-001
7.409482e+003,1.956932e-001
7.413339e+003,1.956324e-001
7.417196e+003,2.716445e-001
7.421053e+003,2.443828e-001
7.424910e+003,2.125753e-001
7.428768e+003,1.983162e-001
7.432625e+003,2.053897e-001
7.436481e+003,2.777227e-001
7.440339e+003,2.588287e-001
7.444196e+003,1.726696e-001
7.448053e+003,1.755569e-001
7.451910e+003,2.222203e-001
7.455767e+003,2.579100e-001
7.459624e+003,2.156262e-001
7.463481e+003,2.087505e-001
7.467338e+003,2.338672e-001
7.471195e+003,1.974964e-001
7.475053e+003,1.751952e-001
7.478910e+003,1.776936e-001
7.482767e+003,1.764482e-001
7.486624e+003,2.106948e-001
7.490481e+003,2.059143e-001
7.494338e+003,1.683112e-001
7.498195e+003,1.805796e-001
7.502052e+003,3.056751e-001
7.505909e+003,3.386837e-001
7.509767e+003,3.365803e-001
7.513624e+003,2.667982e-001
7.517480e+003,1.951892e-001
7.521338e+003,2.449997e-001
7.525195e+003,2.810441e-001
7.529052e+003,1.684900e-001
7.532909e+003,1.010947e-001
7.536766e+003,1.693621e-001
7.540623e+003,1.824715e-001
7.544480e+003,1.341547e-001
7.548337e+003,1.577750e-001
7.552194e+003,3.027831e-001
7.556052e+003,3.115152e-001
7.559909e+003,2.403854e-001
7.563766e+003,2.310341e-001
7.567623e+003,2.322951e-001
7.571480e+003,2.342698e-001
7.575337e+003,1.836577e-001
7.579194e+003,1.837807e-001
7.583051e+003,2.197737e-001
7.586908e+003,2.862869e-001
7.590766e+003,2.531800e-001
7.594623e+003,2.569704e-001
7.598479e+003,2.511387e-001
7.602337e+003,2.312626e-001
7.606194e+003,3.143684e-001
7.610051e+003,3.108772e-001
7.613908e+003,2.188021e-001
7.617765e+003,1.310132e-001
7.621622e+003,2.140378e-001
7.625479e+003,1.965421e-001
7.629336e+003,2.025909e-001
7.633193e+003,2.576876e-001
7.637051e+003,2.277466e-001
7.640908e+003,2.009603e-001
7.644765e+003,2.003020e-001
7.648622e+003,1.882990e-001
7.652479e+003,1.546452e-001
7.656336e+003,1.604264e-001
7.660193e+003,2.025937e-001
7.664050e+003,2.996103e-001
7.667907e+003,2.339281e-001
7.671765e+003,2.524317e-001
7.675622e+003,2.833328e-001
7.679479e+003,2.089824e-001
7.683336e+003,2.077812e-001
7.687193e+003,1.631054e-001
7.691050e+003,1.615036e-001
7.694907e+003,2.358941e-001
7.698764e+003,2.581539e-001
7.702621e+003,2.848726e-001
7.706479e+003,3.262505e-001
7.710335e+003,2.819967e-001
7.714192e+003,2.236887e-001
7.718050e+003,1.961491e-001
7.721907e+003,2.153492e-001
7.725764e+003,2.331128e-001
7.729621e+003,2.828703e-001
7.733478e+003,2.814782e-001
7.737335e+003,2.741934e-001
7.741192e+003,3.455645e-001
7.745049e+003,2.828595e-001
7.748906e+003,1.612534e-001
7.752764e+003,1.497920e-001
7.756621e+003,2.157125e-001
7.760478e+003,2.596623e-001
7.764335e+003,2.530953e-001
7.768192e+003,2.542061e-001
7.772049e+003,2.904435e-001
7.775906e+003,2.185133e-001
7.779763e+003,1.684994e-001
7.783620e+003,2.322157e-001
7.787478e+003,2.357091e-001
7.791334e+003,1.796661e-001
7.795191e+003,2.262776e-001
7.799049e+003,2.854233e-001
7.802906e+003,2.515768e-001
7.806763e+003,2.579868e-001
7.810620e+003,1.863686e-001
7.814477e+003,7.725497e-002
7.818334e+003,7.115967e-002
7.822191e+003,1.845182e-001
7.826048e+003,2.526071e-001
7.829905e+003,3.089009e-001
7.833763e+003,4.443513e-001
7.837620e+003,3.657506e-001
7.841477e+003,1.574713e-001
7.845334e+003,8.214916e-002
7.849191e+003,2.079088e-001
7.853048e+003,2.497677e-001
7.856905e+003,2.551883e-001
7.860762e+003,1.622345e-001
7.864619e+003,7.394808e-002
7.868477e+003,1.918745e-001
7.872333e+003,3.990783e-001
7.876190e+003,3.760262e-001
7.880048e+003,3.248229e-001
7.883905e+003,2.001670e-001
7.887762e+003,2.396962e-001
7.891619e+003,4.268413e-001
7.895476e+003,6.158869e-001
7.899333e+003,4.163720e-001
7.903190e+003,2.022240e-001
7.907047e+003,3.782572e-001
7.910904e+003,4.923336e-001
7.914762e+003,3.625991e-001
7.918619e+003,3.173952e-001
7.922476e+003,2.830092e-001
7.926333e+003,2.704770e-001
7.930190e+003,2.549686e-001
7.934047e+003,1.880697e-001
7.937904e+003,1.181767e-001
7.941761e+003,2.999019e-002
7.945618e+003,4.054976e-002
7.949476e+003,2.715858e-001
7.953333e+003,2.616208e-001
7.957189e+003,7.128205e-002
7.961047e+003,8.877666e-002
7.964904e+003,9.420572e-002
7.968761e+003,1.497535e-001
7.972618e+003,8.747289e-002
7.976475e+003,2.207530e-001
7.980332e+003,7.660515e-001
7.984189e+003,4.142020e-001
7.988046e+003,8.455469e-002
7.991903e+003,9.636075e-002
7.995761e+003,1.461440e-001
7.999618e+003,1.057546e-001
