4.011380e+002,-9.802239e-002
4.049951e+002,2.152850e-001
4.088522e+002,9.255819e-001
4.127093e+002,6.000000e+000
4.165664e+002,6.000000e+000
4.204235e+002,6.000000e+000
4.242806e+002,6.000000e+000
4.281377e+002,6.000000e+000
4.319948e+002,7.483967e-001
4.358519e+002,6.000000e+000
4.397090e+002,6.000000e+000
4.435661e+002,6.000000e+000
4.474232e+002,6.000000e+000
4.512803e+002,6.000000e+000
4.551374e+002,8.583305e-001
4.589945e+002,1.479431e+000
4.628516e+002,6.000000e+000
4.667087e+002,6.000000e+000
4.705658e+002,6.000000e+000
4.744229e+002,6.000000e+000
4.782800e+002,6.000000e+000
4.821371e+002,6.000000e+000
4.859941e+002,6.000000e+000
4.898513e+002,6.000000e+000
4.937083e+002,8.398352e-001
4.975654e+002,8.289700e-001
5.014225e+002,6.000000e+000
5.052796e+002,3.514799e-001
5.091367e+002,3.610159e-001
5.129938e+002,9.271943e-001
5.168509e+002,6.000000e+000
5.207080e+002,6.000000e+000
5.245651e+002,6.000000e+000
5.284222e+002,6.000000e+000
5.322793e+002,6.000000e+000
5.361364e+002,5.860506e-001
5.399935e+002,4.284928e-001
5.438506e+002,3.432160e-001
5.477077e+002,6.000000e+000
5.515648e+002,6.000000e+000
5.554219e+002,9.901094e-002
5.592790e+002,-2.767985e-001
5.631361e+002,1.403036e-001
5.669932e+002,8.838655e-001
5.708503e+002,8.781084e-001
5.747074e+002,8.392519e-002
5.785645e+002,-5.249104e-001
5.824216e+002,1.986716e-001
5.862787e+002,4.788013e-001
5.901357e+002,3.033965e-001
5.939929e+002,4.727911e-001
5.978499e+002,3.077983e-001
6.017070e+002,2.637518e-001
6.055641e+002,6.000000e+000
6.094212e+002,1.933729e+000
6.132783e+002,3.872170e-001
6.171354e+002,3.303432e-001
6.209925e+002,3.610400e-002
6.248496e+002,3.221519e-001
6.287067e+002,9.415867e-001
6.325638e+002,6.000000e+000
6.364209e+002,6.000000e+000
6.402780e+002,6.000000e+000
6.441351e+002,7.533684e-001
6.479922e+002,4.360836e-001
6.518493e+002,6.000000e+000
6.557064e+002,6.000000e+000
6.595635e+002,6.000000e+000
6.634205e+002,6.000000e+000
6.672777e+002,6.000000e+000
6.711348e+002,6.000000e+000
6.749918e+002,-4.516436e-001
6.788490e+002,-6.641579e-001
6.827061e+002,6.000000e+000
6.865631e+002,6.000000e+000
6.904203e+002,6.000000e+000
6.942773e+002,6.000000e+000
6.981344e+002,6.000000e+000
7.019916e+002,6.000000e+000
7.058486e+002,-6.387918e-002
7.097057e+002,6.000000e+000
7.135629e+002,5.350770e-001
7.174199e+002,6.000000e+000
7.212770e+002,6.000000e+000
7.251342e+002,8.467643e-001
7.289912e+002,6.000000e+000
7.328483e+002,6.000000e+000
7.367054e+002,-1.975138e-001
7.405625e+002,4.497342e-001
7.444196e+002,3.743742e-001
7.482767e+002,-3.377656e-001
7.521338e+002,5.668797e-001
7.559908e+002,6.000000e+000
7.598480e+002,6.000000e+000
7.637051e+002,6.000000e+000
7.675621e+002,-7.355576e-001
7.714193e+002,6.000000e+000
7.752764e+002,-1.748610e+000
7.791334e+002,6.000000e+000
7.829905e+002,6.000000e+000
7.868477e+002,6.000000e+000
7.907047e+002,6.000000e+000
7.945618e+002,3.841186e-002
7.984189e+002,-4.845687e-001
8.022760e+002,1.952413e-001
8.061331e+002,6.000000e+000
8.099902e+002,6.000000e+000
8.138473e+002,6.000000e+000
8.177044e+002,9.284616e-001
8.215615e+002,7.531919e-001
8.254186e+002,1.056200e+000
8.292757e+002,1.258407e+000
8.331328e+002,1.269885e+000
8.369899e+002,1.398561e+000
8.408470e+002,6.000000e+000
8.447041e+002,6.000000e+000
8.485612e+002,6.000000e+000
8.524183e+002,1.782758e+000
8.562754e+002,1.661792e+000
8.601324e+002,1.987008e+000
8.639896e+002,1.904229e+000
8.678467e+002,6.000000e+000
8.717037e+002,6.000000e+000
8.755609e+002,6.000000e+000
8.794180e+002,1.977545e+000
8.832750e+002,1.700680e+000
8.871321e+002,2.143162e+000
8.909893e+002,2.520041e+000
8.948463e+002,2.458851e+000
8.987034e+002,2.337409e+000
9.025605e+002,1.958962e+000
9.064176e+002,2.075558e+000
9.102747e+002,6.000000e+000
9.141318e+002,2.763699e+000
9.179889e+002,2.697624e+000
9.218461e+002,6.000000e+000
9.257031e+002,6.000000e+000
9.295602e+002,6.000000e+000
9.334174e+002,2.044238e+000
9.372744e+002,2.162846e+000
9.411315e+002,2.013628e+000
9.449886e+002,2.132161e+000
9.488457e+002,2.662309e+000
9.527028e+002,6.000000e+000
9.565599e+002,2.596606e+000
9.604170e+002,2.321474e+000
9.642740e+002,2.323942e+000
9.681312e+002,2.987533e+000
9.719883e+002,6.000000e+000
9.758453e+002,2.847879e+000
9.797025e+002,2.285341e+000
9.835596e+002,2.151603e+000
9.874166e+002,2.353390e+000
9.912738e+002,2.377690e+000
9.951309e+002,2.292265e+000
9.989879e+002,2.287709e+000
1.002845e+003,2.380035e+000
1.006702e+003,2.372042e+000
1.010559e+003,2.184582e+000
1.014416e+003,2.099908e+000
1.018273e+003,2.264174e+000
1.022130e+003,2.460148e+000
1.025988e+003,2.320349e+000
1.029845e+003,2.152865e+000
1.033702e+003,2.057320e+000
1.037559e+003,2.042671e+000
1.041416e+003,2.017269e+000
1.045273e+003,2.007632e+000
1.049130e+003,2.015855e+000
1.052987e+003,1.889026e+000
1.056844e+003,1.801011e+000
1.060702e+003,1.830743e+000
1.064559e+003,1.882754e+000
1.068416e+003,1.943338e+000
1.072273e+003,1.958224e+000
1.076130e+003,1.909804e+000
1.079987e+003,1.935813e+000
1.083844e+003,1.839421e+000
1.087701e+003,1.790808e+000
1.091558e+003,1.837952e+000
1.095415e+003,1.807749e+000
1.099272e+003,1.744269e+000
1.103130e+003,1.762147e+000
1.106987e+003,1.786787e+000
1.110844e+003,1.766168e+000
1.114701e+003,1.708354e+000
1.118558e+003,1.682673e+000
1.122415e+003,1.708439e+000
1.126272e+003,1.715425e+000
1.130129e+003,1.718835e+000
1.133986e+003,1.710116e+000
1.137843e+003,1.698404e+000
1.141701e+003,1.672402e+000
1.145558e+003,1.657857e+000
1.149415e+003,1.656796e+000
1.153272e+003,1.672528e+000
1.157129e+003,1.675344e+000
1.160986e+003,1.655045e+000
1.164843e+003,1.647892e+000
1.168700e+003,1.663568e+000
1.172557e+003,1.671749e+000
1.176414e+003,1.650523e+000
1.180271e+003,1.634159e+000
1.184129e+003,1.617940e+000
1.187986e+003,1.598513e+000
1.191843e+003,1.609508e+000
1.195700e+003,1.600100e+000
1.199557e+003,1.555028e+000
1.203414e+003,1.513121e+000
1.207271e+003,1.474759e+000
1.211128e+003,1.403028e+000
1.214985e+003,1.315178e+000
1.218842e+003,1.234456e+000
1.222699e+003,1.139962e+000
1.226557e+003,1.041748e+000
1.230414e+003,9.598006e-001
1.234271e+003,8.953328e-001
1.238128e+003,8.390428e-001
1.241985e+003,7.886670e-001
1.245842e+003,7.454174e-001
1.249699e+003,7.075439e-001
1.253556e+003,6.772031e-001
1.257413e+003,6.481188e-001
1.261271e+003,6.206185e-001
1.265128e+003,5.976996e-001
1.268985e+003,5.782410e-001
1.272842e+003,5.610321e-001
1.276699e+003,5.446233e-001
1.280556e+003,5.295728e-001
1.284413e+003,5.152566e-001
1.288270e+003,5.029160e-001
1.292127e+003,4.913154e-001
1.295984e+003,4.781768e-001
1.299841e+003,4.675279e-001
1.303698e+003,4.595366e-001
1.307556e+003,4.501240e-001
1.311413e+003,4.425204e-001
1.315270e+003,4.360128e-001
1.319127e+003,4.284368e-001
1.322984e+003,4.222126e-001
1.326841e+003,4.172440e-001
1.330698e+003,4.123448e-001
1.334555e+003,4.070484e-001
1.338412e+003,4.020874e-001
1.342270e+003,3.982385e-001
1.346127e+003,3.959300e-001
1.349984e+003,3.956127e-001
1.353841e+003,3.959173e-001
1.357698e+003,3.968175e-001
1.361555e+003,3.980815e-001
1.365412e+003,4.003405e-001
1.369269e+003,4.052783e-001
1.373126e+003,4.125580e-001
1.376983e+003,4.192025e-001
1.380840e+003,4.253544e-001
1.384698e+003,4.326249e-001
1.388555e+003,4.420606e-001
1.392412e+003,4.521925e-001
1.396269e+003,4.614372e-001
1.400126e+003,4.712625e-001
1.403983e+003,4.838093e-001
1.407840e+003,4.961530e-001
1.411697e+003,5.067437e-001
1.415554e+003,5.172538e-001
1.419411e+003,5.285837e-001
1.423269e+003,5.373839e-001
1.427126e+003,5.434371e-001
1.430983e+003,5.468235e-001
1.434840e+003,5.485058e-001
1.438697e+003,5.482401e-001
1.442554e+003,5.443294e-001
1.446411e+003,5.380816e-001
1.450268e+003,5.295657e-001
1.454125e+003,5.199194e-001
1.457982e+003,5.097131e-001
1.461839e+003,5.020713e-001
1.465697e+003,4.964065e-001
1.469554e+003,4.937694e-001
1.473411e+003,4.923349e-001
1.477268e+003,4.939253e-001
1.481125e+003,5.015473e-001
1.484982e+003,5.111239e-001
1.488839e+003,5.196026e-001
1.492696e+003,5.281305e-001
1.496553e+003,5.354862e-001
1.500411e+003,5.422128e-001
1.504268e+003,5.483724e-001
1.508125e+003,5.534137e-001
1.511982e+003,5.559165e-001
1.515839e+003,5.544667e-001
1.519696e+003,5.499222e-001
1.523553e+003,5.429638e-001
1.527410e+003,5.337400e-001
1.531267e+003,5.229792e-001
1.535124e+003,5.132515e-001
1.538981e+003,5.025445e-001
1.542839e+003,4.906395e-001
1.546696e+003,4.774800e-001
1.550553e+003,4.658964e-001
1.554410e+003,4.570270e-001
1.558267e+003,4.469967e-001
1.562124e+003,4.368604e-001
1.565981e+003,4.300483e-001
1.569838e+003,4.261020e-001
1.573695e+003,4.223807e-001
1.577552e+003,4.205886e-001
1.581410e+003,4.196748e-001
1.585267e+003,4.212149e-001
1.589124e+003,4.259770e-001
1.592981e+003,4.336855e-001
1.596838e+003,4.435315e-001
1.600695e+003,4.560035e-001
1.604552e+003,4.717954e-001
1.608409e+003,4.917176e-001
1.612266e+003,5.154474e-001
1.616123e+003,5.433098e-001
1.619980e+003,5.711741e-001
1.623838e+003,5.947552e-001
1.627695e+003,6.155940e-001
1.631552e+003,6.327703e-001
1.635409e+003,6.418138e-001
1.639266e+003,6.415969e-001
1.643123e+003,6.326839e-001
1.646980e+003,6.200451e-001
1.650837e+003,6.027582e-001
1.654694e+003,5.823247e-001
1.658551e+003,5.623533e-001
1.662409e+003,5.392231e-001
1.666266e+003,5.147943e-001
1.670123e+003,4.922010e-001
1.673980e+003,4.696176e-001
1.677837e+003,4.479803e-001
1.681694e+003,4.292956e-001
1.685551e+003,4.125370e-001
1.689408e+003,3.980398e-001
1.693265e+003,3.838087e-001
1.697122e+003,3.712204e-001
1.700979e+003,3.622876e-001
1.704837e+003,3.541335e-001
1.708694e+003,3.451611e-001
1.712551e+003,3.385048e-001
1.716408e+003,3.334916e-001
1.720265e+003,3.286819e-001
1.724122e+003,3.252497e-001
1.727979e+003,3.214826e-001
1.731836e+003,3.187100e-001
1.735693e+003,3.168908e-001
1.739550e+003,3.145463e-001
1.743408e+003,3.130499e-001
1.747265e+003,3.104714e-001
1.751122e+003,3.082284e-001
1.754979e+003,3.070729e-001
1.758836e+003,3.064093e-001
1.762693e+003,3.054065e-001
1.766550e+003,3.040531e-001
1.770407e+003,3.015936e-001
1.774264e+003,3.002838e-001
1.778121e+003,2.990917e-001
1.781979e+003,2.958353e-001
1.785836e+003,2.932653e-001
1.789693e+003,2.915515e-001
1.793550e+003,2.891499e-001
1.797407e+003,2.869343e-001
1.801264e+003,2.853435e-001
1.805121e+003,2.843656e-001
1.808978e+003,2.829207e-001
1.812835e+003,2.805924e-001
1.816692e+003,2.786030e-001
1.820549e+003,2.780163e-001
1.824407e+003,2.777510e-001
1.828264e+003,2.771186e-001
1.832121e+003,2.752975e-001
1.835978e+003,2.735642e-001
1.839835e+003,2.730965e-001
1.843692e+003,2.722493e-001
1.847549e+003,2.706276e-001
1.851406e+003,2.680711e-001
1.855263e+003,2.670627e-001
1.859120e+003,2.662809e-001
1.862978e+003,2.649570e-001
1.866835e+003,2.637692e-001
1.870692e+003,2.619864e-001
1.874549e+003,2.594750e-001
1.878406e+003,2.579792e-001
1.882263e+003,2.582715e-001
1.886120e+003,2.580849e-001
1.889977e+003,2.566333e-001
1.893834e+003,2.554817e-001
1.897691e+003,2.543260e-001
1.901548e+003,2.530613e-001
1.905406e+003,2.524231e-001
1.909263e+003,2.514680e-001
1.913120e+003,2.502135e-001
1.916977e+003,2.497991e-001
1.920834e+003,2.495811e-001
1.924691e+003,2.486009e-001
1.928548e+003,2.465430e-001
1.932405e+003,2.452351e-001
1.936262e+003,2.439247e-001
1.940119e+003,2.427478e-001
1.943977e+003,2.415526e-001
1.947834e+003,2.401760e-001
1.951691e+003,2.374645e-001
1.955548e+003,2.357207e-001
1.959405e+003,2.348773e-001
1.963262e+003,2.341201e-001
1.967119e+003,2.324787e-001
1.970976e+003,2.303371e-001
1.974833e+003,2.297918e-001
1.978690e+003,2.291590e-001
1.982547e+003,2.279439e-001
1.986405e+003,2.264054e-001
1.990262e+003,2.249819e-001
1.994119e+003,2.236734e-001
1.997976e+003,2.230961e-001
2.001833e+003,2.228694e-001
2.005690e+003,2.219726e-001
2.009547e+003,2.206009e-001
2.013404e+003,2.196421e-001
2.017261e+003,2.191171e-001
2.021118e+003,2.185870e-001
2.024976e+003,2.175511e-001
2.028833e+003,2.162379e-001
2.032690e+003,2.151090e-001
2.036547e+003,2.140159e-001
2.040404e+003,2.130170e-001
2.044261e+003,2.125617e-001
2.048118e+003,2.117999e-001
2.051975e+003,2.105933e-001
2.055832e+003,2.098829e-001
2.059689e+003,2.092615e-001
2.063546e+003,2.081422e-001
2.067404e+003,2.079176e-001
2.071261e+003,2.076946e-001
2.075118e+003,2.070976e-001
2.078975e+003,2.062725e-001
2.082832e+003,2.054048e-001
2.086689e+003,2.040389e-001
2.090546e+003,2.030728e-001
2.094403e+003,2.034612e-001
2.098260e+003,2.036910e-001
2.102117e+003,2.031668e-001
2.105975e+003,2.028056e-001
2.109832e+003,2.027449e-001
2.113689e+003,2.024831e-001
2.117546e+003,2.035282e-001
2.121403e+003,2.039651e-001
2.125260e+003,2.038375e-001
2.129117e+003,2.041885e-001
2.132974e+003,2.049814e-001
2.136831e+003,2.060499e-001
2.140688e+003,2.065708e-001
2.144545e+003,2.059001e-001
2.148403e+003,2.061738e-001
2.152260e+003,2.063007e-001
2.156117e+003,2.067953e-001
2.159974e+003,2.078504e-001
2.163831e+003,2.071806e-001
2.167688e+003,2.056929e-001
2.171545e+003,2.057530e-001
2.175402e+003,2.059426e-001
2.179259e+003,2.059421e-001
2.183116e+003,2.057126e-001
2.186974e+003,2.063310e-001
2.190831e+003,2.070774e-001
2.194688e+003,2.070894e-001
2.198545e+003,2.070431e-001
2.202402e+003,2.082048e-001
2.206259e+003,2.095689e-001
2.210116e+003,2.110906e-001
2.213973e+003,2.123707e-001
2.217830e+003,2.130781e-001
2.221688e+003,2.143659e-001
2.225544e+003,2.160894e-001
2.229402e+003,2.168844e-001
2.233259e+003,2.177385e-001
2.237116e+003,2.185993e-001
2.240973e+003,2.184671e-001
2.244830e+003,2.183613e-001
2.248687e+003,2.190790e-001
2.252544e+003,2.194717e-001
2.256401e+003,2.196626e-001
2.260258e+003,2.196882e-001
2.264115e+003,2.195648e-001
2.267973e+003,2.200741e-001
2.271830e+003,2.200647e-001
2.275687e+003,2.200671e-001
2.279544e+003,2.202858e-001
2.283401e+003,2.221706e-001
2.287258e+003,2.240997e-001
2.291115e+003,2.244039e-001
2.294972e+003,2.246324e-001
2.298829e+003,2.254252e-001
2.302687e+003,2.271186e-001
2.306543e+003,2.284912e-001
2.310401e+003,2.295555e-001
2.314258e+003,2.298541e-001
2.318115e+003,2.291444e-001
2.321972e+003,2.296894e-001
2.325829e+003,2.299226e-001
2.329686e+003,2.294859e-001
2.333543e+003,2.294761e-001
2.337400e+003,2.296513e-001
2.341257e+003,2.299424e-001
2.345115e+003,2.297354e-001
2.348972e+003,2.303956e-001
2.352829e+003,2.296359e-001
2.356686e+003,2.274326e-001
2.360543e+003,2.259484e-001
2.364400e+003,2.248058e-001
2.368257e+003,2.251082e-001
2.372114e+003,2.283089e-001
2.375971e+003,2.313008e-001
2.379828e+003,2.340472e-001
2.383686e+003,2.359221e-001
2.387542e+003,2.368049e-001
2.391400e+003,2.373457e-001
2.395257e+003,2.379501e-001
2.399114e+003,2.386424e-001
2.402971e+003,2.392961e-001
2.406828e+003,2.398431e-001
2.410685e+003,2.403103e-001
2.414542e+003,2.407057e-001
2.418399e+003,2.404147e-001
2.422256e+003,2.403237e-001
2.426114e+003,2.402719e-001
2.429971e+003,2.400285e-001
2.433828e+003,2.387457e-001
2.437685e+003,2.369326e-001
2.441542e+003,2.360975e-001
2.445399e+003,2.355959e-001
2.449256e+003,2.338337e-001
2.453113e+003,2.331381e-001
2.456970e+003,2.323391e-001
2.460827e+003,2.313369e-001
2.464684e+003,2.310025e-001
2.468542e+003,2.312431e-001
2.472399e+003,2.317677e-001
2.476256e+003,2.321924e-001
2.480113e+003,2.329065e-001
2.483970e+003,2.337950e-001
2.487827e+003,2.352156e-001
2.491684e+003,2.363635e-001
2.495541e+003,2.374589e-001
2.499398e+003,2.381642e-001
2.503255e+003,2.396247e-001
2.507113e+003,2.409624e-001
2.510969e+003,2.411442e-001
2.514827e+003,2.409187e-001
2.518684e+003,2.414699e-001
2.522541e+003,2.416048e-001
2.526398e+003,2.427930e-001
2.530255e+003,2.431925e-001
2.534112e+003,2.425079e-001
2.537969e+003,2.417344e-001
2.541826e+003,2.418525e-001
2.545683e+003,2.426609e-001
2.549541e+003,2.435276e-001
2.553398e+003,2.448654e-001
2.557255e+003,2.464261e-001
2.561112e+003,2.482609e-001
2.564969e+003,2.498341e-001
2.568826e+003,2.519324e-001
2.572683e+003,2.551432e-001
2.576540e+003,2.588394e-001
2.580397e+003,2.617518e-001
2.584254e+003,2.640424e-001
2.588112e+003,2.668537e-001
2.591969e+003,2.707116e-001
2.595826e+003,2.727176e-001
2.599683e+003,2.741623e-001
2.603540e+003,2.771645e-001
2.607397e+003,2.795005e-001
2.611254e+003,2.810033e-001
2.615111e+003,2.826706e-001
2.618968e+003,2.841281e-001
2.622825e+003,2.854249e-001
2.626682e+003,2.868291e-001
2.630540e+003,2.888823e-001
2.634397e+003,2.905675e-001
2.638254e+003,2.921904e-001
2.642111e+003,2.949712e-001
2.645968e+003,2.963867e-001
2.649825e+003,2.986755e-001
2.653682e+003,3.029994e-001
2.657539e+003,3.065894e-001
2.661396e+003,3.102692e-001
2.665253e+003,3.144905e-001
2.669111e+003,3.178137e-001
2.672968e+003,3.222735e-001
2.676825e+003,3.265491e-001
2.680682e+003,3.295886e-001
2.684539e+003,3.328774e-001
2.688396e+003,3.372302e-001
2.692253e+003,3.408378e-001
2.696110e+003,3.430582e-001
2.699967e+003,3.452882e-001
2.703824e+003,3.487426e-001
2.707681e+003,3.525215e-001
2.711539e+003,3.555234e-001
2.715396e+003,3.581402e-001
2.719253e+003,3.598979e-001
2.723110e+003,3.624646e-001
2.726967e+003,3.656157e-001
2.730824e+003,3.680640e-001
2.734681e+003,3.711907e-001
2.738538e+003,3.756846e-001
2.742395e+003,3.788546e-001
2.746252e+003,3.817394e-001
2.750110e+003,3.865241e-001
2.753967e+003,3.918576e-001
2.757824e+003,3.959982e-001
2.761681e+003,4.015656e-001
2.765538e+003,4.077339e-001
2.769395e+003,4.116357e-001
2.773252e+003,4.152989e-001
2.777109e+003,4.210120e-001
2.780966e+003,4.253147e-001
2.784823e+003,4.282032e-001
2.788680e+003,4.311460e-001
2.792538e+003,4.337467e-001
2.796395e+003,4.377109e-001
2.800252e+003,4.424058e-001
2.804109e+003,4.470640e-001
2.807966e+003,4.508167e-001
2.811823e+003,4.531133e-001
2.815680e+003,4.572242e-001
2.819537e+003,4.626268e-001
2.823394e+003,4.665897e-001
2.827251e+003,4.706070e-001
2.831109e+003,4.747072e-001
2.834966e+003,4.777172e-001
2.838823e+003,4.834849e-001
2.842680e+003,4.896507e-001
2.846537e+003,4.959152e-001
2.850394e+003,5.034935e-001
2.854251e+003,5.080068e-001
2.858108e+003,5.116103e-001
2.861965e+003,5.154607e-001
2.865823e+003,5.197546e-001
2.869679e+003,5.253071e-001
2.873537e+003,5.300490e-001
2.877394e+003,5.343800e-001
2.881251e+003,5.389808e-001
2.885108e+003,5.435070e-001
2.888965e+003,5.484737e-001
2.892822e+003,5.517946e-001
2.896679e+003,5.562161e-001
2.900536e+003,5.617597e-001
2.904393e+003,5.680693e-001
2.908250e+003,5.741615e-001
2.912108e+003,5.826921e-001
2.915965e+003,5.913258e-001
2.919822e+003,5.969067e-001
2.923679e+003,5.990044e-001
2.927536e+003,6.003228e-001
2.931393e+003,6.046304e-001
2.935250e+003,6.108743e-001
2.939107e+003,6.168752e-001
2.942964e+003,6.222528e-001
2.946822e+003,6.290620e-001
2.950678e+003,6.341504e-001
2.954536e+003,6.391597e-001
2.958393e+003,6.457056e-001
2.962250e+003,6.492197e-001
2.966107e+003,6.545739e-001
2.969964e+003,6.605002e-001
2.973821e+003,6.643456e-001
2.977678e+003,6.695203e-001
2.981535e+003,6.766114e-001
2.985392e+003,6.830223e-001
2.989250e+003,6.888321e-001
2.993107e+003,6.930861e-001
2.996964e+003,6.968036e-001
3.000821e+003,7.026163e-001
3.004678e+003,7.085345e-001
3.008535e+003,7.133910e-001
3.012392e+003,7.191666e-001
3.016249e+003,7.258867e-001
3.020106e+003,7.336429e-001
3.023963e+003,7.397907e-001
3.027821e+003,7.447196e-001
3.031677e+003,7.532088e-001
3.035535e+003,7.580810e-001
3.039392e+003,7.631145e-001
3.043249e+003,7.694048e-001
3.047106e+003,7.743600e-001
3.050963e+003,7.820705e-001
3.054820e+003,7.886979e-001
3.058677e+003,7.944816e-001
3.062534e+003,8.032304e-001
3.066391e+003,8.102385e-001
3.070249e+003,8.144262e-001
3.074106e+003,8.216961e-001
3.077963e+003,8.275545e-001
3.081820e+003,8.330843e-001
3.085677e+003,8.397724e-001
3.089534e+003,8.467954e-001
3.093391e+003,8.516323e-001
3.097248e+003,8.578340e-001
3.101105e+003,8.654763e-001
3.104962e+003,8.725939e-001
3.108820e+003,8.832163e-001
3.112677e+003,8.884193e-001
3.116534e+003,8.916795e-001
3.120391e+003,8.987111e-001
3.124248e+003,9.083975e-001
3.128105e+003,9.172013e-001
3.131962e+003,9.253634e-001
3.135819e+003,9.340761e-001
3.139676e+003,9.419169e-001
3.143533e+003,9.512821e-001
3.147390e+003,9.581781e-001
3.151248e+003,9.606968e-001
3.155105e+003,9.661763e-001
3.158962e+003,9.740758e-001
3.162819e+003,9.892485e-001
3.166676e+003,9.982420e-001
3.170533e+003,1.000124e+000
3.174390e+003,1.005464e+000
3.178247e+003,1.010548e+000
3.182104e+003,1.016956e+000
3.185961e+003,1.025100e+000
3.189819e+003,1.027896e+000
3.193676e+003,1.034941e+000
3.197533e+003,1.048253e+000
3.201390e+003,1.058661e+000
3.205247e+003,1.061298e+000
3.209104e+003,1.062963e+000
3.212961e+003,1.070412e+000
3.216818e+003,1.078743e+000
3.220675e+003,1.081806e+000
3.224532e+003,1.086114e+000
3.228389e+003,1.095876e+000
3.232247e+003,1.106803e+000
3.236104e+003,1.115045e+000
3.239961e+003,1.116488e+000
3.243818e+003,1.114814e+000
3.247675e+003,1.121687e+000
3.251532e+003,1.130900e+000
3.255389e+003,1.139516e+000
3.259246e+003,1.145405e+000
3.263103e+003,1.144529e+000
3.266960e+003,1.151463e+000
3.270818e+003,1.158734e+000
3.274675e+003,1.157060e+000
3.278532e+003,1.161702e+000
3.282389e+003,1.169402e+000
3.286246e+003,1.167757e+000
3.290103e+003,1.172158e+000
3.293960e+003,1.180867e+000
3.297817e+003,1.191890e+000
3.301674e+003,1.202248e+000
3.305531e+003,1.210034e+000
3.309388e+003,1.219448e+000
3.313246e+003,1.218559e+000
3.317103e+003,1.229964e+000
3.320960e+003,1.237803e+000
3.324817e+003,1.239551e+000
3.328674e+003,1.257387e+000
3.332531e+003,1.268815e+000
3.336388e+003,1.268863e+000
3.340245e+003,1.269511e+000
3.344102e+003,1.282144e+000
3.347959e+003,1.294192e+000
3.351817e+003,1.298926e+000
3.355674e+003,1.309272e+000
3.359531e+003,1.305882e+000
3.363388e+003,1.305071e+000
3.367245e+003,1.316572e+000
3.371102e+003,1.322754e+000
3.374959e+003,1.327028e+000
3.378816e+003,1.339798e+000
3.382673e+003,1.351967e+000
3.386530e+003,1.354655e+000
3.390387e+003,1.345012e+000
3.394245e+003,1.346625e+000
3.398102e+003,1.355330e+000
3.401959e+003,1.364538e+000
3.405816e+003,1.366250e+000
3.409673e+003,1.375566e+000
3.413530e+003,1.372206e+000
3.417387e+003,1.369750e+000
3.421244e+003,1.382464e+000
3.425101e+003,1.388530e+000
3.428958e+003,1.379341e+000
3.432815e+003,1.377970e+000
3.436673e+003,1.393482e+000
3.440530e+003,1.401086e+000
3.444387e+003,1.386738e+000
3.448244e+003,1.385569e+000
3.452101e+003,1.400913e+000
3.455958e+003,1.412585e+000
3.459815e+003,1.427219e+000
3.463672e+003,1.435560e+000
3.467529e+003,1.427664e+000
3.471386e+003,1.422827e+000
3.475244e+003,1.422090e+000
3.479101e+003,1.424941e+000
3.482958e+003,1.429599e+000
3.486815e+003,1.444961e+000
3.490672e+003,1.441211e+000
3.494529e+003,1.428214e+000
3.498386e+003,1.429664e+000
3.502243e+003,1.435309e+000
3.506100e+003,1.438681e+000
3.509958e+003,1.443174e+000
3.513814e+003,1.437135e+000
3.517672e+003,1.421581e+000
3.521529e+003,1.423665e+000
3.525386e+003,1.433558e+000
3.529243e+003,1.447645e+000
3.533100e+003,1.461672e+000
3.536957e+003,1.454076e+000
3.540814e+003,1.433534e+000
3.544671e+003,1.420753e+000
3.548528e+003,1.425235e+000
3.552385e+003,1.425034e+000
3.556243e+003,1.413468e+000
3.560100e+003,1.409121e+000
3.563957e+003,1.402111e+000
3.567814e+003,1.381615e+000
3.571671e+003,1.361469e+000
3.575528e+003,1.353928e+000
3.579385e+003,1.350930e+000
3.583242e+003,1.318499e+000
3.587099e+003,1.285231e+000
3.590957e+003,1.269325e+000
3.594813e+003,1.237059e+000
3.598671e+003,1.198318e+000
3.602528e+003,1.160706e+000
3.606385e+003,1.115192e+000
3.610242e+003,1.068543e+000
3.614099e+003,1.015987e+000
3.617956e+003,9.631369e-001
3.621813e+003,9.126140e-001
3.625670e+003,8.602303e-001
3.629527e+003,8.026903e-001
3.633385e+003,7.468293e-001
3.637242e+003,6.882945e-001
3.641099e+003,6.335923e-001
3.644956e+003,5.821095e-001
3.648813e+003,5.297589e-001
3.652670e+003,4.810272e-001
3.656527e+003,4.371176e-001
3.660384e+003,3.964675e-001
3.664241e+003,3.611621e-001
3.668098e+003,3.294182e-001
3.671956e+003,3.000541e-001
3.675813e+003,2.747888e-001
3.679670e+003,2.536753e-001
3.683527e+003,2.346403e-001
3.687384e+003,2.172629e-001
3.691241e+003,2.021252e-001
3.695098e+003,1.899862e-001
3.698955e+003,1.783416e-001
3.702812e+003,1.686049e-001
3.706669e+003,1.603111e-001
3.710526e+003,1.525446e-001
3.714384e+003,1.450015e-001
3.718241e+003,1.395290e-001
3.722098e+003,1.348178e-001
3.725955e+003,1.302719e-001
3.729812e+003,1.271699e-001
3.733669e+003,1.243699e-001
3.737526e+003,1.224653e-001
3.741383e+003,1.201219e-001
3.745240e+003,1.179096e-001
3.749097e+003,1.166741e-001
3.752955e+003,1.159724e-001
3.756812e+003,1.148341e-001
3.760669e+003,1.126509e-001
3.764526e+003,1.117481e-001
3.768383e+003,1.112042e-001
3.772240e+003,1.096655e-001
3.776097e+003,1.083737e-001
3.779954e+003,1.082119e-001
3.783811e+003,1.078960e-001
3.787668e+003,1.069432e-001
3.791525e+003,1.049576e-001
3.795383e+003,1.035811e-001
3.799240e+003,1.032180e-001
3.803097e+003,1.027211e-001
3.806954e+003,1.008228e-001
3.810811e+003,9.914172e-002
3.814668e+003,9.821937e-002
3.818525e+003,9.826569e-002
3.822382e+003,9.764368e-002
3.826239e+003,9.769338e-002
3.830096e+003,9.767505e-002
3.833954e+003,9.740627e-002
3.837811e+003,9.651085e-002
3.841668e+003,9.610312e-002
3.845525e+003,9.588188e-002
3.849382e+003,9.588192e-002
3.853239e+003,9.662908e-002
3.857096e+003,9.602466e-002
3.860953e+003,9.539545e-002
3.864810e+003,9.511389e-002
3.868667e+003,9.493236e-002
3.872524e+003,9.413210e-002
3.876382e+003,9.379925e-002
3.880239e+003,9.500238e-002
3.884096e+003,9.455898e-002
3.887953e+003,9.402663e-002
3.891810e+003,9.324700e-002
3.895667e+003,9.181276e-002
3.899524e+003,9.099399e-002
3.903381e+003,9.066631e-002
3.907238e+003,9.008265e-002
3.911095e+003,8.962600e-002
3.914953e+003,8.947439e-002
3.918810e+003,8.839428e-002
3.922667e+003,8.731858e-002
3.926524e+003,8.821975e-002
3.930381e+003,8.913574e-002
3.934238e+003,8.919831e-002
3.938095e+003,8.929695e-002
3.941952e+003,8.824692e-002
3.945809e+003,8.698339e-002
3.949667e+003,8.770148e-002
3.953523e+003,8.852547e-002
3.957381e+003,8.873406e-002
3.961238e+003,8.712166e-002
3.965095e+003,8.666027e-002
3.968952e+003,8.641629e-002
3.972809e+003,8.666184e-002
3.976666e+003,8.775176e-002
3.980523e+003,8.723757e-002
3.984380e+003,8.623707e-002
3.988237e+003,8.556985e-002
3.992094e+003,8.424150e-002
3.995952e+003,8.352023e-002
3.999809e+003,8.385863e-002
4.003666e+003,8.358947e-002
4.007523e+003,8.266614e-002
4.011380e+003,8.183045e-002
4.015237e+003,8.145701e-002
4.019094e+003,8.208347e-002
4.022951e+003,8.214884e-002
4.026808e+003,8.093233e-002
4.030666e+003,8.167362e-002
4.034522e+003,8.214296e-002
4.038380e+003,8.167078e-002
4.042237e+003,8.175173e-002
4.046094e+003,8.277658e-002
4.049951e+003,8.324389e-002
4.053808e+003,8.329330e-002
4.057665e+003,8.276708e-002
4.061522e+003,8.203496e-002
4.065379e+003,8.257629e-002
4.069236e+003,8.249831e-002
4.073094e+003,8.167834e-002
4.076951e+003,8.103993e-002
4.080808e+003,8.116405e-002
4.084665e+003,8.033468e-002
4.088522e+003,7.836456e-002
4.092379e+003,7.765741e-002
4.096236e+003,7.768214e-002
4.100093e+003,7.845950e-002
4.103950e+003,7.883116e-002
4.107808e+003,7.815947e-002
4.111665e+003,7.816732e-002
4.115521e+003,7.627527e-002
4.119379e+003,7.509533e-002
4.123236e+003,7.623061e-002
4.127093e+003,7.698982e-002
4.130950e+003,7.755924e-002
4.134807e+003,7.635933e-002
4.138664e+003,7.492036e-002
4.142521e+003,7.481419e-002
4.146378e+003,7.560977e-002
4.150235e+003,7.702520e-002
4.154093e+003,7.722250e-002
4.157950e+003,7.730643e-002
4.161807e+003,7.780518e-002
4.165664e+003,7.839929e-002
4.169521e+003,7.868963e-002
4.173378e+003,7.887081e-002
4.177235e+003,7.758079e-002
4.181092e+003,7.585327e-002
4.184949e+003,7.640093e-002
4.188807e+003,7.604586e-002
4.192664e+003,7.434256e-002
4.196521e+003,7.374259e-002
4.200378e+003,7.323188e-002
4.204235e+003,7.287031e-002
4.208092e+003,7.280722e-002
4.211949e+003,7.283810e-002
4.215806e+003,7.271108e-002
4.219663e+003,7.217478e-002
4.223521e+003,7.258386e-002
4.227377e+003,7.370525e-002
4.231234e+003,7.382026e-002
4.235092e+003,7.443500e-002
4.238949e+003,7.604847e-002
4.242806e+003,7.782326e-002
4.246663e+003,7.846351e-002
4.250520e+003,7.776012e-002
4.254377e+003,7.753433e-002
4.258234e+003,7.701126e-002
4.262091e+003,7.720556e-002
4.265948e+003,7.800063e-002
4.269806e+003,7.778541e-002
4.273663e+003,7.722935e-002
4.277520e+003,7.698017e-002
4.281377e+003,7.691142e-002
4.285234e+003,7.669911e-002
4.289091e+003,7.704688e-002
4.292948e+003,7.675529e-002
4.296805e+003,7.474510e-002
4.300662e+003,7.434094e-002
4.304520e+003,7.409809e-002
4.308376e+003,7.442041e-002
4.312233e+003,7.538662e-002
4.316091e+003,7.533925e-002
4.319948e+003,7.579910e-002
4.323805e+003,7.667124e-002
4.327662e+003,7.718340e-002
4.331519e+003,7.843314e-002
4.335376e+003,7.917085e-002
4.339233e+003,7.874417e-002
4.343090e+003,7.944298e-002
4.346947e+003,8.211397e-002
4.350805e+003,8.364514e-002
4.354662e+003,8.350842e-002
4.358519e+003,8.352501e-002
4.362376e+003,8.435145e-002
4.366233e+003,8.441008e-002
4.370090e+003,8.358521e-002
4.373947e+003,8.388922e-002
4.377804e+003,8.478273e-002
4.381661e+003,8.557864e-002
4.385519e+003,8.439652e-002
4.389375e+003,8.273377e-002
4.393232e+003,8.212626e-002
4.397090e+003,8.222399e-002
4.400947e+003,8.262862e-002
4.404804e+003,8.258935e-002
4.408661e+003,8.312058e-002
4.412518e+003,8.506536e-002
4.416375e+003,8.637303e-002
4.420232e+003,8.708104e-002
4.424089e+003,8.619459e-002
4.427946e+003,8.529676e-002
4.431804e+003,8.654564e-002
4.435661e+003,8.905666e-002
4.439518e+003,9.100085e-002
4.443375e+003,9.225602e-002
4.447232e+003,9.353939e-002
4.451089e+003,9.492169e-002
4.454946e+003,9.645268e-002
4.458803e+003,9.563271e-002
4.462660e+003,9.346843e-002
4.466518e+003,9.318934e-002
4.470375e+003,9.310998e-002
4.474231e+003,9.272450e-002
4.478089e+003,9.116075e-002
4.481946e+003,8.952944e-002
4.485803e+003,8.918390e-002
4.489660e+003,8.804502e-002
4.493517e+003,8.803224e-002
4.497375e+003,8.837511e-002
4.501231e+003,8.781738e-002
4.505088e+003,8.924864e-002
4.508946e+003,9.093511e-002
4.512803e+003,9.005728e-002
4.516660e+003,8.943852e-002
4.520517e+003,9.120527e-002
4.524374e+003,9.292965e-002
4.528231e+003,9.521995e-002
4.532088e+003,9.717400e-002
4.535945e+003,9.763588e-002
4.539802e+003,9.763730e-002
4.543660e+003,9.773056e-002
4.547517e+003,9.773201e-002
4.551374e+003,9.796616e-002
4.555231e+003,9.760775e-002
4.559088e+003,9.801462e-002
4.562945e+003,9.755997e-002
4.566802e+003,9.545208e-002
4.570659e+003,9.526405e-002
4.574516e+003,9.542318e-002
4.578374e+003,9.297299e-002
4.582230e+003,9.161497e-002
4.586087e+003,9.112270e-002
4.589945e+003,9.165793e-002
4.593802e+003,9.201089e-002
4.597659e+003,9.159950e-002
4.601516e+003,9.307734e-002
4.605373e+003,9.307011e-002
4.609230e+003,9.322536e-002
4.613087e+003,9.577008e-002
4.616944e+003,9.685555e-002
4.620801e+003,9.690724e-002
4.624659e+003,9.860751e-002
4.628516e+003,1.006640e-001
4.632373e+003,1.031668e-001
4.636230e+003,1.016839e-001
4.640087e+003,1.018744e-001
4.643944e+003,1.040879e-001
4.647801e+003,1.038120e-001
4.651658e+003,1.029495e-001
4.655515e+003,1.027254e-001
4.659373e+003,1.007891e-001
4.663229e+003,9.982080e-002
4.667086e+003,1.006500e-001
4.670944e+003,1.015457e-001
4.674801e+003,1.014511e-001
4.678658e+003,1.008606e-001
4.682515e+003,1.004535e-001
4.686372e+003,1.002923e-001
4.690229e+003,1.006331e-001
4.694086e+003,9.977151e-002
4.697943e+003,9.916125e-002
4.701800e+003,9.829503e-002
4.705658e+003,9.954077e-002
4.709515e+003,1.015776e-001
4.713372e+003,1.040236e-001
4.717229e+003,1.050663e-001
4.721086e+003,1.052673e-001
4.724943e+003,1.082659e-001
4.728800e+003,1.111586e-001
4.732657e+003,1.121145e-001
4.736514e+003,1.120885e-001
4.740372e+003,1.128770e-001
4.744229e+003,1.118496e-001
4.748085e+003,1.119636e-001
4.751943e+003,1.145519e-001
4.755800e+003,1.152879e-001
4.759657e+003,1.130697e-001
4.763514e+003,1.108699e-001
4.767371e+003,1.093516e-001
4.771228e+003,1.101248e-001
4.775085e+003,1.100491e-001
4.778942e+003,1.099284e-001
4.782799e+003,1.092722e-001
4.786657e+003,1.093073e-001
4.790514e+003,1.104818e-001
4.794371e+003,1.122168e-001
4.798228e+003,1.130340e-001
4.802085e+003,1.122843e-001
4.805942e+003,1.110708e-001
4.809799e+003,1.121176e-001
4.813656e+003,1.144109e-001
4.817513e+003,1.168021e-001
4.821371e+003,1.194607e-001
4.825228e+003,1.215167e-001
4.829084e+003,1.225761e-001
4.832942e+003,1.221536e-001
4.836799e+003,1.227522e-001
4.840656e+003,1.229991e-001
4.844513e+003,1.224537e-001
4.848370e+003,1.203788e-001
4.852227e+003,1.197341e-001
4.856084e+003,1.204426e-001
4.859941e+003,1.197608e-001
4.863798e+003,1.180223e-001
4.867656e+003,1.167623e-001
4.871513e+003,1.165482e-001
4.875370e+003,1.188243e-001
4.879227e+003,1.197461e-001
4.883084e+003,1.176301e-001
4.886941e+003,1.154684e-001
4.890798e+003,1.179673e-001
4.894655e+003,1.211343e-001
4.898512e+003,1.208740e-001
4.902370e+003,1.223474e-001
4.906227e+003,1.242478e-001
4.910083e+003,1.243582e-001
4.913941e+003,1.244097e-001
4.917798e+003,1.268927e-001
4.921655e+003,1.294935e-001
4.925512e+003,1.314472e-001
4.929369e+003,1.309389e-001
4.933226e+003,1.303710e-001
4.937083e+003,1.289849e-001
4.940940e+003,1.280392e-001
4.944797e+003,1.295061e-001
4.948655e+003,1.299842e-001
4.952512e+003,1.283997e-001
4.956369e+003,1.278544e-001
4.960226e+003,1.289561e-001
4.964083e+003,1.280674e-001
4.967940e+003,1.269545e-001
4.971797e+003,1.277568e-001
4.975654e+003,1.275982e-001
4.979511e+003,1.273587e-001
4.983369e+003,1.278483e-001
4.987226e+003,1.294379e-001
4.991083e+003,1.301648e-001
4.994940e+003,1.305859e-001
4.998797e+003,1.328050e-001
5.002654e+003,1.326556e-001
5.006511e+003,1.328530e-001
5.010368e+003,1.341362e-001
5.014225e+003,1.356937e-001
5.018083e+003,1.371179e-001
5.021939e+003,1.388708e-001
5.025796e+003,1.397773e-001
5.029654e+003,1.361765e-001
5.033511e+003,1.330058e-001
5.037368e+003,1.343026e-001
5.041225e+003,1.350136e-001
5.045082e+003,1.355963e-001
5.048939e+003,1.364093e-001
5.052796e+003,1.361090e-001
5.056653e+003,1.357462e-001
5.060510e+003,1.354322e-001
5.064368e+003,1.367124e-001
5.068225e+003,1.354000e-001
5.072082e+003,1.333283e-001
5.075939e+003,1.327317e-001
5.079796e+003,1.351300e-001
5.083653e+003,1.352423e-001
5.087510e+003,1.353162e-001
5.091367e+003,1.355577e-001
5.095224e+003,1.367649e-001
5.099082e+003,1.403020e-001
5.102938e+003,1.420694e-001
5.106795e+003,1.411698e-001
5.110653e+003,1.426781e-001
5.114510e+003,1.443228e-001
5.118367e+003,1.447219e-001
5.122224e+003,1.460205e-001
5.126081e+003,1.453615e-001
5.129938e+003,1.439871e-001
5.133795e+003,1.424864e-001
5.137652e+003,1.419121e-001
5.141509e+003,1.418935e-001
5.145367e+003,1.413453e-001
5.149224e+003,1.422596e-001
5.153081e+003,1.426862e-001
5.156938e+003,1.421709e-001
5.160795e+003,1.400585e-001
5.164652e+003,1.389262e-001
5.168509e+003,1.399474e-001
5.172366e+003,1.414725e-001
5.176223e+003,1.412134e-001
5.180081e+003,1.417438e-001
5.183938e+003,1.416579e-001
5.187794e+003,1.417989e-001
5.191652e+003,1.440260e-001
5.195509e+003,1.462282e-001
5.199366e+003,1.455296e-001
5.203223e+003,1.457397e-001
5.207080e+003,1.462569e-001
5.210937e+003,1.475386e-001
5.214794e+003,1.455038e-001
5.218651e+003,1.448706e-001
5.222508e+003,1.475024e-001
5.226366e+003,1.466559e-001
5.230223e+003,1.443414e-001
5.234080e+003,1.438680e-001
5.237937e+003,1.416480e-001
5.241794e+003,1.378829e-001
5.245651e+003,1.366799e-001
5.249508e+003,1.359124e-001
5.253365e+003,1.331770e-001
5.257222e+003,1.332897e-001
5.261080e+003,1.340701e-001
5.264937e+003,1.332303e-001
5.268793e+003,1.347753e-001
5.272651e+003,1.371828e-001
5.276508e+003,1.352732e-001
5.280365e+003,1.349108e-001
5.284222e+003,1.356042e-001
5.288079e+003,1.389804e-001
5.291936e+003,1.406457e-001
5.295793e+003,1.383245e-001
5.299650e+003,1.392045e-001
5.303507e+003,1.404499e-001
5.307365e+003,1.389136e-001
5.311222e+003,1.377199e-001
5.315079e+003,1.351653e-001
5.318936e+003,1.340805e-001
5.322793e+003,1.359016e-001
5.326650e+003,1.373623e-001
5.330507e+003,1.371162e-001
5.334364e+003,1.367433e-001
5.338221e+003,1.359393e-001
5.342079e+003,1.351652e-001
5.345936e+003,1.342143e-001
5.349792e+003,1.322748e-001
5.353650e+003,1.328165e-001
5.357507e+003,1.329659e-001
5.361364e+003,1.323698e-001
5.365221e+003,1.337923e-001
5.369078e+003,1.343442e-001
5.372935e+003,1.336644e-001
5.376792e+003,1.318830e-001
5.380649e+003,1.329728e-001
5.384506e+003,1.366801e-001
5.388364e+003,1.362060e-001
5.392221e+003,1.347411e-001
5.396078e+003,1.357299e-001
5.399935e+003,1.354286e-001
5.403792e+003,1.341850e-001
5.407649e+003,1.334312e-001
5.411506e+003,1.316009e-001
5.415363e+003,1.304739e-001
5.419220e+003,1.295774e-001
5.423078e+003,1.304055e-001
5.426935e+003,1.305684e-001
5.430792e+003,1.313769e-001
5.434649e+003,1.304793e-001
5.438506e+003,1.304363e-001
5.442363e+003,1.291450e-001
5.446220e+003,1.277312e-001
5.450077e+003,1.276139e-001
5.453934e+003,1.277374e-001
5.457792e+003,1.290411e-001
5.461648e+003,1.274901e-001
5.465505e+003,1.265712e-001
5.469363e+003,1.286286e-001
5.473220e+003,1.302210e-001
5.477077e+003,1.302200e-001
5.480934e+003,1.303532e-001
5.484791e+003,1.324980e-001
5.488648e+003,1.331069e-001
5.492505e+003,1.306456e-001
5.496362e+003,1.285582e-001
5.500219e+003,1.304894e-001
5.504077e+003,1.333796e-001
5.507934e+003,1.331399e-001
5.511791e+003,1.288477e-001
5.515648e+003,1.250086e-001
5.519505e+003,1.262530e-001
5.523362e+003,1.270536e-001
5.527219e+003,1.273130e-001
5.531076e+003,1.277954e-001
5.534933e+003,1.260512e-001
5.538791e+003,1.264368e-001
5.542647e+003,1.269238e-001
5.546504e+003,1.236979e-001
5.550362e+003,1.242650e-001
5.554219e+003,1.260794e-001
5.558076e+003,1.245301e-001
5.561933e+003,1.220713e-001
5.565790e+003,1.198538e-001
5.569647e+003,1.193047e-001
5.573504e+003,1.224648e-001
5.577361e+003,1.238541e-001
5.581218e+003,1.242434e-001
5.585076e+003,1.251461e-001
5.588933e+003,1.271997e-001
5.592790e+003,1.253817e-001
5.596647e+003,1.227347e-001
5.600504e+003,1.240508e-001
5.604361e+003,1.270628e-001
5.608218e+003,1.264188e-001
5.612075e+003,1.248100e-001
5.615932e+003,1.246359e-001
5.619790e+003,1.251385e-001
5.623646e+003,1.225352e-001
5.627503e+003,1.205937e-001
5.631361e+003,1.199421e-001
5.635218e+003,1.170387e-001
5.639075e+003,1.150007e-001
5.642932e+003,1.151109e-001
5.646789e+003,1.169975e-001
5.650646e+003,1.168112e-001
5.654503e+003,1.140084e-001
5.658360e+003,1.126483e-001
5.662217e+003,1.136565e-001
5.666075e+003,1.164989e-001
5.669932e+003,1.173733e-001
5.673789e+003,1.160431e-001
5.677646e+003,1.155436e-001
5.681503e+003,1.188587e-001
5.685360e+003,1.200735e-001
5.689217e+003,1.189598e-001
5.693074e+003,1.164022e-001
5.696931e+003,1.137200e-001
5.700789e+003,1.153700e-001
5.704646e+003,1.161124e-001
5.708502e+003,1.162788e-001
5.712360e+003,1.152257e-001
5.716217e+003,1.122629e-001
5.720074e+003,1.105711e-001
5.723931e+003,1.129098e-001
5.727788e+003,1.146870e-001
5.731645e+003,1.153390e-001
5.735502e+003,1.179751e-001
5.739359e+003,1.157669e-001
5.743216e+003,1.115768e-001
5.747074e+003,1.097928e-001
5.750931e+003,1.110160e-001
5.754788e+003,1.107748e-001
5.758645e+003,1.091270e-001
5.762502e+003,1.105833e-001
5.766359e+003,1.108220e-001
5.770216e+003,1.094408e-001
5.774073e+003,1.107969e-001
5.777930e+003,1.121532e-001
5.781788e+003,1.109031e-001
5.785645e+003,1.112800e-001
5.789501e+003,1.100605e-001
5.793359e+003,1.078775e-001
5.797216e+003,1.093296e-001
5.801073e+003,1.096123e-001
5.804930e+003,1.090981e-001
5.808787e+003,1.093739e-001
5.812644e+003,1.105309e-001
5.816501e+003,1.116758e-001
5.820358e+003,1.125452e-001
5.824215e+003,1.104841e-001
5.828073e+003,1.078141e-001
5.831930e+003,1.093912e-001
5.835787e+003,1.089918e-001
5.839644e+003,1.051275e-001
5.843501e+003,1.046829e-001
5.847358e+003,1.043211e-001
5.851215e+003,1.025945e-001
5.855072e+003,1.008026e-001
5.858929e+003,9.912644e-002
5.862787e+003,9.988476e-002
5.866644e+003,1.009853e-001
5.870500e+003,1.027864e-001
5.874358e+003,1.047253e-001
5.878215e+003,1.040287e-001
5.882072e+003,1.043411e-001
5.885929e+003,1.042092e-001
5.889786e+003,1.000807e-001
5.893643e+003,9.827147e-002
5.897500e+003,1.018828e-001
5.901357e+003,1.029463e-001
5.905214e+003,1.007369e-001
5.909072e+003,1.009481e-001
5.912929e+003,1.006000e-001
5.916786e+003,1.005004e-001
5.920643e+003,1.020870e-001
5.924500e+003,1.009968e-001
5.928357e+003,9.675435e-002
5.932214e+003,9.708387e-002
5.936071e+003,9.952352e-002
5.939928e+003,9.738795e-002
5.943786e+003,9.719253e-002
5.947643e+003,1.020481e-001
5.951500e+003,1.030814e-001
5.955357e+003,1.020413e-001
5.959214e+003,9.940416e-002
5.963071e+003,9.960849e-002
5.966928e+003,1.032742e-001
5.970785e+003,1.037840e-001
5.974642e+003,1.012471e-001
5.978500e+003,1.003439e-001
5.982356e+003,9.989586e-002
5.986213e+003,1.014124e-001
5.990071e+003,1.020990e-001
5.993928e+003,9.976535e-002
5.997785e+003,9.913115e-002
6.001642e+003,9.685948e-002
6.005499e+003,9.513620e-002
6.009356e+003,9.625987e-002
6.013213e+003,9.609030e-002
6.017070e+003,9.330574e-002
6.020927e+003,9.331067e-002
6.024785e+003,9.592044e-002
6.028642e+003,9.694245e-002
6.032499e+003,9.773467e-002
6.036356e+003,9.576133e-002
6.040213e+003,9.374419e-002
6.044070e+003,9.640166e-002
6.047927e+003,9.488446e-002
6.051784e+003,9.203546e-002
6.055641e+003,9.390014e-002
6.059499e+003,9.502473e-002
6.063355e+003,9.434446e-002
6.067212e+003,9.471884e-002
6.071070e+003,9.436221e-002
6.074927e+003,9.265772e-002
6.078784e+003,9.208653e-002
6.082641e+003,9.214179e-002
6.086498e+003,9.485441e-002
6.090355e+003,9.612785e-002
6.094212e+003,9.740905e-002
6.098069e+003,9.656059e-002
6.101926e+003,9.503174e-002
6.105784e+003,9.423709e-002
6.109641e+003,9.520493e-002
6.113498e+003,9.369292e-002
6.117355e+003,9.279621e-002
6.121212e+003,9.180236e-002
6.125069e+003,9.284885e-002
6.128926e+003,9.664361e-002
6.132783e+003,9.900237e-002
6.136640e+003,9.723953e-002
6.140498e+003,9.622745e-002
6.144354e+003,9.292108e-002
6.148211e+003,9.189095e-002
6.152069e+003,9.231117e-002
6.155926e+003,9.139980e-002
6.159783e+003,9.327046e-002
6.163640e+003,9.491525e-002
6.167497e+003,9.542537e-002
6.171354e+003,9.385169e-002
6.175211e+003,9.426496e-002
6.179068e+003,9.594019e-002
6.182925e+003,9.662673e-002
6.186783e+003,9.650505e-002
6.190640e+003,9.666787e-002
6.194497e+003,9.441429e-002
6.198354e+003,9.433256e-002
6.202211e+003,9.605699e-002
6.206068e+003,1.014689e-001
6.209925e+003,1.045098e-001
6.213782e+003,1.012177e-001
6.217639e+003,9.628514e-002
6.221497e+003,9.661245e-002
6.225354e+003,1.003910e-001
6.229210e+003,9.565955e-002
6.233068e+003,9.291705e-002
6.236925e+003,9.393053e-002
6.240782e+003,9.277918e-002
6.244639e+003,9.157099e-002
6.248496e+003,8.988979e-002
6.252353e+003,9.271384e-002
6.256210e+003,9.624784e-002
6.260067e+003,9.546475e-002
6.263924e+003,9.772633e-002
6.267782e+003,1.000340e-001
6.271639e+003,9.613776e-002
6.275496e+003,9.379255e-002
6.279353e+003,9.396249e-002
6.283210e+003,9.413715e-002
6.287067e+003,9.558588e-002
6.290924e+003,9.645028e-002
6.294781e+003,9.904694e-002
6.298638e+003,1.007792e-001
6.302496e+003,9.784324e-002
6.306353e+003,9.773833e-002
6.310209e+003,9.672847e-002
6.314067e+003,9.350808e-002
6.317924e+003,9.858888e-002
6.321781e+003,9.696987e-002
6.325638e+003,9.125073e-002
6.329495e+003,9.250502e-002
6.333352e+003,9.547351e-002
6.337209e+003,9.675671e-002
6.341066e+003,9.768417e-002
6.344923e+003,1.002500e-001
6.348780e+003,9.755457e-002
6.352638e+003,9.266695e-002
6.356495e+003,9.047594e-002
6.360352e+003,8.946641e-002
6.364209e+003,9.206462e-002
6.368066e+003,9.710944e-002
6.371923e+003,9.766799e-002
6.375780e+003,9.411362e-002
6.379637e+003,9.440972e-002
6.383494e+003,9.478606e-002
6.387352e+003,9.481129e-002
6.391208e+003,9.653956e-002
6.395065e+003,1.008046e-001
6.398923e+003,1.012327e-001
6.402780e+003,9.939225e-002
6.406637e+003,9.784769e-002
6.410494e+003,9.950885e-002
6.414351e+003,9.719187e-002
6.418208e+003,9.355267e-002
6.422065e+003,9.509842e-002
6.425922e+003,9.282751e-002
6.429779e+003,9.188195e-002
6.433637e+003,9.419914e-002
6.437494e+003,9.495108e-002
6.441351e+003,9.653911e-002
6.445208e+003,1.001275e-001
6.449065e+003,9.958366e-002
6.452922e+003,9.900212e-002
6.456779e+003,1.001519e-001
6.460636e+003,9.897952e-002
6.464493e+003,9.905265e-002
6.468351e+003,1.020580e-001
6.472208e+003,1.020906e-001
6.476064e+003,1.012787e-001
6.479922e+003,1.033565e-001
6.483779e+003,1.061099e-001
6.487636e+003,1.047770e-001
6.491493e+003,1.047203e-001
6.495350e+003,1.034767e-001
6.499207e+003,1.083997e-001
6.503064e+003,1.111184e-001
6.506921e+003,1.075343e-001
6.510778e+003,1.049155e-001
6.514636e+003,1.073374e-001
6.518493e+003,1.038339e-001
6.522350e+003,1.001765e-001
6.526207e+003,1.040310e-001
6.530064e+003,1.057603e-001
6.533921e+003,1.025760e-001
6.537778e+003,9.671987e-002
6.541635e+003,9.541959e-002
6.545492e+003,9.731667e-002
6.549350e+003,9.895962e-002
6.553207e+003,9.990320e-002
6.557063e+003,1.048238e-001
6.560921e+003,1.079515e-001
6.564778e+003,1.061802e-001
6.568635e+003,1.052035e-001
6.572492e+003,1.080250e-001
6.576349e+003,1.110106e-001
6.580206e+003,1.133704e-001
6.584063e+003,1.142443e-001
6.587920e+003,1.126458e-001
6.591777e+003,1.128279e-001
6.595635e+003,1.088066e-001
6.599492e+003,1.054918e-001
6.603349e+003,1.069928e-001
6.607206e+003,1.063251e-001
6.611063e+003,1.049439e-001
6.614920e+003,1.050728e-001
6.618777e+003,1.042626e-001
6.622634e+003,1.051173e-001
6.626491e+003,1.132357e-001
6.630349e+003,1.137678e-001
6.634206e+003,1.134040e-001
6.638063e+003,1.173332e-001
6.641920e+003,1.157189e-001
6.645777e+003,1.129832e-001
6.649634e+003,1.100193e-001
6.653491e+003,1.094862e-001
6.657348e+003,1.106040e-001
6.661205e+003,1.117120e-001
6.665063e+003,1.202157e-001
6.668919e+003,1.243265e-001
6.672776e+003,1.181364e-001
6.676634e+003,1.170972e-001
6.680491e+003,1.245531e-001
6.684348e+003,1.181179e-001
6.688205e+003,1.121135e-001
6.692062e+003,1.088913e-001
6.695919e+003,1.048074e-001
6.699776e+003,1.124277e-001
6.703633e+003,1.154661e-001
6.707490e+003,1.161168e-001
6.711348e+003,1.182074e-001
6.715205e+003,1.179283e-001
6.719062e+003,1.150800e-001
6.722919e+003,1.127941e-001
6.726776e+003,1.139668e-001
6.730633e+003,1.133522e-001
6.734490e+003,1.136087e-001
6.738347e+003,1.198319e-001
6.742204e+003,1.189025e-001
6.746062e+003,1.203972e-001
6.749918e+003,1.234000e-001
6.753775e+003,1.165258e-001
6.757633e+003,1.134968e-001
6.761490e+003,1.145260e-001
6.765347e+003,1.208868e-001
6.769204e+003,1.274125e-001
6.773061e+003,1.261683e-001
6.776918e+003,1.212934e-001
6.780775e+003,1.193050e-001
6.784632e+003,1.223986e-001
6.788489e+003,1.294750e-001
6.792347e+003,1.340720e-001
6.796204e+003,1.298479e-001
6.800061e+003,1.232855e-001
6.803918e+003,1.224952e-001
6.807775e+003,1.279197e-001
6.811632e+003,1.277394e-001
6.815489e+003,1.263547e-001
6.819346e+003,1.231794e-001
6.823203e+003,1.224919e-001
6.827061e+003,1.233498e-001
6.830917e+003,1.208478e-001
6.834774e+003,1.288436e-001
6.838632e+003,1.298509e-001
6.842489e+003,1.237290e-001
6.846346e+003,1.259757e-001
6.850203e+003,1.322647e-001
6.854060e+003,1.327317e-001
6.857917e+003,1.348776e-001
6.861774e+003,1.327164e-001
6.865631e+003,1.289114e-001
6.869488e+003,1.312519e-001
6.873346e+003,1.379313e-001
6.877203e+003,1.357572e-001
6.881060e+003,1.341513e-001
6.884917e+003,1.338527e-001
6.888774e+003,1.259213e-001
6.892631e+003,1.291332e-001
6.896488e+003,1.322300e-001
6.900345e+003,1.366306e-001
6.904202e+003,1.310872e-001
6.908060e+003,1.263719e-001
6.911917e+003,1.333893e-001
6.915773e+003,1.409328e-001
6.919631e+003,1.427232e-001
6.923488e+003,1.343427e-001
6.927345e+003,1.371318e-001
6.931202e+003,1.433104e-001
6.935059e+003,1.381605e-001
6.938916e+003,1.349245e-001
6.942773e+003,1.315786e-001
6.946630e+003,1.364833e-001
6.950487e+003,1.387928e-001
6.954345e+003,1.321342e-001
6.958202e+003,1.366033e-001
6.962059e+003,1.466490e-001
6.965916e+003,1.521339e-001
6.969773e+003,1.467698e-001
6.973630e+003,1.367063e-001
6.977487e+003,1.423210e-001
6.981344e+003,1.436825e-001
6.985201e+003,1.420188e-001
6.989059e+003,1.422621e-001
6.992916e+003,1.464678e-001
6.996772e+003,1.423195e-001
7.000630e+003,1.378736e-001
7.004487e+003,1.354792e-001
7.008344e+003,1.346940e-001
7.012201e+003,1.411240e-001
7.016058e+003,1.398538e-001
7.019915e+003,1.383928e-001
7.023772e+003,1.387370e-001
7.027629e+003,1.406938e-001
7.031486e+003,1.464043e-001
7.035344e+003,1.433030e-001
7.039201e+003,1.469353e-001
7.043058e+003,1.525726e-001
7.046915e+003,1.485307e-001
7.050772e+003,1.403880e-001
7.054629e+003,1.373537e-001
7.058486e+003,1.312661e-001
7.062343e+003,1.380967e-001
7.066200e+003,1.495795e-001
7.070058e+003,1.541953e-001
7.073915e+003,1.409686e-001
7.077771e+003,1.396419e-001
7.081629e+003,1.438065e-001
7.085486e+003,1.368888e-001
7.089343e+003,1.356659e-001
7.093200e+003,1.365868e-001
7.097057e+003,1.335320e-001
7.100914e+003,1.354645e-001
7.104771e+003,1.465549e-001
7.108628e+003,1.483793e-001
7.112485e+003,1.463854e-001
7.116343e+003,1.451911e-001
7.120200e+003,1.426892e-001
7.124057e+003,1.515740e-001
7.127914e+003,1.607531e-001
7.131771e+003,1.556076e-001
7.135628e+003,1.502569e-001
7.139485e+003,1.517598e-001
7.143342e+003,1.511871e-001
7.147199e+003,1.495043e-001
7.151057e+003,1.605395e-001
7.154914e+003,1.592318e-001
7.158771e+003,1.477954e-001
7.162628e+003,1.514144e-001
7.166485e+003,1.549361e-001
7.170342e+003,1.476258e-001
7.174199e+003,1.478738e-001
7.178056e+003,1.498229e-001
7.181913e+003,1.518003e-001
7.185771e+003,1.501602e-001
7.189627e+003,1.429696e-001
7.193484e+003,1.428211e-001
7.197342e+003,1.514918e-001
7.201199e+003,1.539978e-001
7.205056e+003,1.520981e-001
7.208913e+003,1.447385e-001
7.212770e+003,1.474610e-001
7.216627e+003,1.429845e-001
7.220484e+003,1.369358e-001
7.224341e+003,1.423055e-001
7.228198e+003,1.529809e-001
7.232056e+003,1.573691e-001
7.235913e+003,1.626115e-001
7.239770e+003,1.650757e-001
7.243627e+003,1.551378e-001
7.247484e+003,1.551591e-001
7.251341e+003,1.527788e-001
7.255198e+003,1.570322e-001
7.259055e+003,1.638541e-001
7.262912e+003,1.631121e-001
7.266770e+003,1.516958e-001
7.270626e+003,1.482387e-001
7.274483e+003,1.539651e-001
7.278341e+003,1.509583e-001
7.282198e+003,1.535433e-001
7.286055e+003,1.488918e-001
7.289912e+003,1.437927e-001
7.293769e+003,1.464640e-001
7.297626e+003,1.444079e-001
7.301483e+003,1.369709e-001
7.305340e+003,1.416882e-001
7.309197e+003,1.597688e-001
7.313055e+003,1.545188e-001
7.316912e+003,1.422796e-001
7.320769e+003,1.426484e-001
7.324626e+003,1.497351e-001
7.328483e+003,1.489395e-001
7.332340e+003,1.458666e-001
7.336197e+003,1.475210e-001
7.340054e+003,1.558036e-001
7.343911e+003,1.603988e-001
7.347769e+003,1.595396e-001
7.351625e+003,1.550622e-001
7.355482e+003,1.434577e-001
7.359340e+003,1.469794e-001
7.363197e+003,1.504028e-001
7.367054e+003,1.507690e-001
7.370911e+003,1.553232e-001
7.374768e+003,1.526135e-001
7.378625e+003,1.549071e-001
7.382482e+003,1.495686e-001
7.386339e+003,1.321418e-001
7.390196e+003,1.272919e-001
7.394054e+003,1.339935e-001
7.397911e+003,1.447286e-001
7.401768e+003,1.510527e-001
7.405625e+003,1.516007e-001
7.409482e+003,1.509153e-001
7.413339e+003,1.534833e-001
7.417196e+003,1.528036e-001
7.421053e+003,1.448319e-001
7.424910e+003,1.377083e-001
7.428768e+003,1.414413e-001
7.432625e+003,1.457304e-001
7.436481e+003,1.496610e-001
7.440339e+003,1.496968e-001
7.444196e+003,1.496483e-001
7.448053e+003,1.353220e-001
7.451910e+003,1.262878e-001
7.455767e+003,1.401449e-001
7.459624e+003,1.449169e-001
7.463481e+003,1.429963e-001
7.467338e+003,1.547118e-001
7.471195e+003,1.540580e-001
7.475053e+003,1.342445e-001
7.478910e+003,1.306414e-001
7.482767e+003,1.437139e-001
7.486624e+003,1.483288e-001
7.490481e+003,1.426318e-001
7.494338e+003,1.388520e-001
7.498195e+003,1.390019e-001
7.502052e+003,1.419588e-001
7.505909e+003,1.408717e-001
7.509767e+003,1.372659e-001
7.513624e+003,1.480833e-001
7.517480e+003,1.508835e-001
7.521338e+003,1.474427e-001
7.525195e+003,1.494250e-001
7.529052e+003,1.470569e-001
7.532909e+003,1.540864e-001
7.536766e+003,1.543007e-001
7.540623e+003,1.438555e-001
7.544480e+003,1.246019e-001
7.548337e+003,1.262254e-001
7.552194e+003,1.415903e-001
7.556052e+003,1.330747e-001
7.559909e+003,1.255756e-001
7.563766e+003,1.398258e-001
7.567623e+003,1.454345e-001
7.571480e+003,1.298572e-001
7.575337e+003,1.238186e-001
7.579194e+003,1.342899e-001
7.583051e+003,1.487639e-001
7.586908e+003,1.381024e-001
7.590766e+003,1.193165e-001
7.594623e+003,1.179403e-001
7.598479e+003,1.318205e-001
7.602337e+003,1.336833e-001
7.606194e+003,1.434403e-001
7.610051e+003,1.620103e-001
7.613908e+003,1.604078e-001
7.617765e+003,1.588305e-001
7.621622e+003,1.544529e-001
7.625479e+003,1.525347e-001
7.629336e+003,1.457856e-001
7.633193e+003,1.387830e-001
7.637051e+003,1.349676e-001
7.640908e+003,1.391967e-001
7.644765e+003,1.478733e-001
7.648622e+003,1.565850e-001
7.652479e+003,1.543222e-001
7.656336e+003,1.467383e-001
7.660193e+003,1.390827e-001
7.664050e+003,1.301966e-001
7.667907e+003,1.394293e-001
7.671765e+003,1.448514e-001
7.675622e+003,1.258161e-001
7.679479e+003,1.311005e-001
7.683336e+003,1.451599e-001
7.687193e+003,1.537040e-001
7.691050e+003,1.526357e-001
7.694907e+003,1.430404e-001
7.698764e+003,1.476884e-001
7.702621e+003,1.380919e-001
7.706479e+003,1.277477e-001
7.710335e+003,1.340521e-001
7.714192e+003,1.527844e-001
7.718050e+003,1.315487e-001
7.721907e+003,1.213951e-001
7.725764e+003,1.521307e-001
7.729621e+003,1.439937e-001
7.733478e+003,1.298088e-001
7.737335e+003,1.282646e-001
7.741192e+003,1.164395e-001
7.745049e+003,1.227255e-001
7.748906e+003,1.408694e-001
7.752764e+003,1.435090e-001
7.756621e+003,1.379189e-001
7.760478e+003,1.371068e-001
7.764335e+003,1.325025e-001
7.768192e+003,1.347498e-001
7.772049e+003,1.540338e-001
7.775906e+003,1.423987e-001
7.779763e+003,1.229233e-001
7.783620e+003,1.246858e-001
7.787478e+003,1.298214e-001
7.791334e+003,1.355640e-001
7.795191e+003,1.505846e-001
7.799049e+003,1.332751e-001
7.802906e+003,1.065049e-001
7.806763e+003,1.189311e-001
7.810620e+003,1.469877e-001
7.814477e+003,1.625852e-001
7.818334e+003,1.492895e-001
7.822191e+003,1.421249e-001
7.826048e+003,1.698715e-001
7.829905e+003,1.582168e-001
7.833763e+003,1.140748e-001
7.837620e+003,1.099573e-001
7.841477e+003,1.222387e-001
7.845334e+003,1.424008e-001
7.849191e+003,1.455938e-001
7.853048e+003,1.669119e-001
7.856905e+003,1.830319e-001
7.860762e+003,1.545467e-001
7.864619e+003,1.251711e-001
7.868477e+003,1.338859e-001
7.872333e+003,1.585735e-001
7.876190e+003,1.394260e-001
7.880048e+003,1.272791e-001
7.883905e+003,1.349952e-001
7.887762e+003,1.298999e-001
7.891619e+003,1.494701e-001
7.895476e+003,1.542699e-001
7.899333e+003,1.384081e-001
7.903190e+003,1.405882e-001
7.907047e+003,1.270833e-001
7.910904e+003,1.038918e-001
7.914762e+003,1.103295e-001
7.918619e+003,1.365447e-001
7.922476e+003,1.442394e-001
7.926333e+003,1.417815e-001
7.930190e+003,1.465966e-001
7.934047e+003,1.889905e-001
7.937904e+003,1.891174e-001
7.941761e+003,1.388537e-001
7.945618e+003,9.165666e-002
7.949476e+003,9.071445e-002
7.953333e+003,1.286074e-001
7.957189e+003,1.433078e-001
7.961047e+003,1.163770e-001
7.964904e+003,9.036316e-002
7.968761e+003,8.167754e-002
7.972618e+003,1.061232e-001
7.976475e+003,1.161734e-001
7.980332e+003,1.417497e-001
7.984189e+003,1.515005e-001
7.988046e+003,1.392559e-001
7.991903e+003,1.501792e-001
7.995761e+003,1.677374e-001
7.999618e+003,1.482332e-001
