4.011380e+002,6.000000e+000
4.049951e+002,6.000000e+000
4.088522e+002,6.000000e+000
4.127093e+002,6.170536e-001
4.165664e+002,2.460552e-001
4.204235e+002,-6.943945e-001
4.242806e+002,-8.056738e-001
4.281377e+002,6.000000e+000
4.319948e+002,2.009478e-001
4.358519e+002,9.163090e-001
4.397090e+002,6.000000e+000
4.435661e+002,6.000000e+000
4.474232e+002,3.369084e-001
4.512803e+002,4.165308e-001
4.551374e+002,6.000000e+000
4.589945e+002,6.000000e+000
4.628516e+002,6.000000e+000
4.667087e+002,6.000000e+000
4.705658e+002,6.000000e+000
4.744229e+002,-7.258851e-002
4.782800e+002,5.376105e-001
4.821371e+002,6.000000e+000
4.859941e+002,6.000000e+000
4.898513e+002,-2.250801e-001
4.937083e+002,-7.187080e-003
4.975654e+002,1.170922e+000
5.014225e+002,6.000000e+000
5.052796e+002,6.000000e+000
5.091367e+002,6.000000e+000
5.129938e+002,6.000000e+000
5.168509e+002,-9.245238e-001
5.207080e+002,-6.789216e-001
5.245651e+002,1.037722e-001
5.284222e+002,6.000000e+000
5.322793e+002,-3.359962e-001
5.361364e+002,2.032167e-001
5.399935e+002,3.251417e-001
5.438506e+002,4.559069e-001
5.477077e+002,6.000000e+000
5.515648e+002,6.000000e+000
5.554219e+002,6.000000e+000
5.592790e+002,1.992870e+000
5.631361e+002,6.000000e+000
5.669932e+002,-1.246186e+000
5.708503e+002,6.000000e+000
5.747074e+002,6.000000e+000
5.785645e+002,6.000000e+000
5.824216e+002,6.000000e+000
5.862787e+002,1.150901e-002
5.901357e+002,6.000000e+000
5.939929e+002,-5.801701e-001
5.978499e+002,1.308212e+000
6.017070e+002,6.000000e+000
6.055641e+002,6.000000e+000
6.094212e+002,6.224865e-001
6.132783e+002,4.291060e-001
6.171354e+002,4.693790e-001
6.209925e+002,-2.434808e-001
6.248496e+002,6.000000e+000
6.287067e+002,1.185050e+000
6.325638e+002,5.514024e-001
6.364209e+002,2.624510e-001
6.402780e+002,4.788768e-001
6.441351e+002,-1.032092e-001
6.479922e+002,-1.509619e-001
6.518493e+002,2.040119e-001
6.557064e+002,5.297091e-001
6.595635e+002,6.000000e+000
6.634205e+002,-4.224186e-001
6.672777e+002,5.207462e-001
6.711348e+002,3.122458e-001
6.749918e+002,-2.205921e+000
6.788490e+002,6.000000e+000
6.827061e+002,1.319739e-001
6.865631e+002,-1.332035e-001
6.904203e+002,-3.965501e-001
6.942773e+002,6.000000e+000
6.981344e+002,-1.057767e+000
7.019916e+002,-3.510468e-001
7.058486e+002,6.000000e+000
7.097057e+002,6.000000e+000
7.135629e+002,-1.763854e+000
7.174199e+002,6.000000e+000
7.212770e+002,-4.748257e-002
7.251342e+002,6.000000e+000
7.289912e+002,6.790838e-002
7.328483e+002,2.287585e-001
7.367054e+002,6.000000e+000
7.405625e+002,6.000000e+000
7.444196e+002,-2.477238e-001
7.482767e+002,1.421217e-001
7.521338e+002,7.094194e-001
7.559908e+002,-7.061006e-001
7.598480e+002,1.905404e-001
7.637051e+002,4.851455e-001
7.675621e+002,6.000000e+000
7.714193e+002,6.000000e+000
7.752764e+002,6.000000e+000
7.791334e+002,-5.302482e-001
7.829905e+002,6.000000e+000
7.868477e+002,6.000000e+000
7.907047e+002,2.513147e-001
7.945618e+002,6.000000e+000
7.984189e+002,8.019297e-001
8.022760e+002,-6.455223e-001
8.061331e+002,6.000000e+000
8.099902e+002,6.000000e+000
8.138473e+002,6.000000e+000
8.177044e+002,6.000000e+000
8.215615e+002,9.747999e-001
8.254186e+002,7.934144e-001
8.292757e+002,6.000000e+000
8.331328e+002,6.000000e+000
8.369899e+002,6.000000e+000
8.408470e+002,6.000000e+000
8.447041e+002,6.000000e+000
8.485612e+002,1.017313e+000
8.524183e+002,8.322779e-001
8.562754e+002,1.743510e+000
8.601324e+002,1.772589e+000
8.639896e+002,1.622299e+000
8.678467e+002,6.000000e+000
8.717037e+002,6.000000e+000
8.755609e+002,6.000000e+000
8.794180e+002,6.000000e+000
8.832750e+002,6.000000e+000
8.871321e+002,2.069156e+000
8.909893e+002,1.534222e+000
8.948463e+002,1.327472e+000
8.987034e+002,1.546399e+000
9.025605e+002,1.534632e+000
9.064176e+002,3.094156e+000
9.102747e+002,6.000000e+000
9.141318e+002,6.000000e+000
9.179889e+002,3.263469e+000
9.218461e+002,2.105535e+000
9.257031e+002,2.499976e+000
9.295602e+002,6.000000e+000
9.334174e+002,6.000000e+000
9.372744e+002,6.000000e+000
9.411315e+002,6.000000e+000
9.449886e+002,2.679790e+000
9.488457e+002,6.000000e+000
9.527028e+002,6.000000e+000
9.565599e+002,6.000000e+000
9.604170e+002,1.971371e+000
9.642740e+002,1.937878e+000
9.681312e+002,2.245831e+000
9.719883e+002,6.000000e+000
9.758453e+002,6.000000e+000
9.797025e+002,6.000000e+000
9.835596e+002,6.000000e+000
9.874166e+002,6.000000e+000
9.912738e+002,6.000000e+000
9.951309e+002,2.154979e+000
9.989879e+002,2.326701e+000
1.002845e+003,2.264102e+000
1.006702e+003,2.384754e+000
1.010559e+003,3.087043e+000
1.014416e+003,2.168444e+000
1.018273e+003,2.113799e+000
1.022130e+003,2.224736e+000
1.025988e+003,2.454461e+000
1.029845e+003,2.981560e+000
1.033702e+003,2.175068e+000
1.037559e+003,1.992843e+000
1.041416e+003,2.181905e+000
1.045273e+003,2.342316e+000
1.049130e+003,2.270731e+000
1.052987e+003,1.971202e+000
1.056844e+003,1.746250e+000
1.060702e+003,1.761328e+000
1.064559e+003,1.810672e+000
1.068416e+003,1.753718e+000
1.072273e+003,1.736853e+000
1.076130e+003,1.757921e+000
1.079987e+003,1.678910e+000
1.083844e+003,1.556688e+000
1.087701e+003,1.668794e+000
1.091558e+003,1.713269e+000
1.095415e+003,1.584138e+000
1.099272e+003,1.537969e+000
1.103130e+003,1.665962e+000
1.106987e+003,1.727210e+000
1.110844e+003,1.635378e+000
1.114701e+003,1.539832e+000
1.118558e+003,1.479849e+000
1.122415e+003,1.549550e+000
1.126272e+003,1.583627e+000
1.130129e+003,1.525790e+000
1.133986e+003,1.511324e+000
1.137843e+003,1.532835e+000
1.141701e+003,1.526557e+000
1.145558e+003,1.488661e+000
1.149415e+003,1.463470e+000
1.153272e+003,1.478319e+000
1.157129e+003,1.460472e+000
1.160986e+003,1.486193e+000
1.164843e+003,1.528241e+000
1.168700e+003,1.506433e+000
1.172557e+003,1.449275e+000
1.176414e+003,1.444102e+000
1.180271e+003,1.445050e+000
1.184129e+003,1.463822e+000
1.187986e+003,1.414424e+000
1.191843e+003,1.386515e+000
1.195700e+003,1.410498e+000
1.199557e+003,1.407743e+000
1.203414e+003,1.414064e+000
1.207271e+003,1.385459e+000
1.211128e+003,1.337607e+000
1.214985e+003,1.311193e+000
1.218842e+003,1.262525e+000
1.222699e+003,1.192212e+000
1.226557e+003,1.134904e+000
1.230414e+003,1.107956e+000
1.234271e+003,1.050966e+000
1.238128e+003,9.659007e-001
1.241985e+003,8.919321e-001
1.245842e+003,8.413571e-001
1.249699e+003,7.981473e-001
1.253556e+003,7.754759e-001
1.257413e+003,7.504413e-001
1.261271e+003,7.179331e-001
1.265128e+003,6.920755e-001
1.268985e+003,6.707213e-001
1.272842e+003,6.453696e-001
1.276699e+003,6.339172e-001
1.280556e+003,6.282217e-001
1.284413e+003,6.194844e-001
1.288270e+003,5.940478e-001
1.292127e+003,5.705439e-001
1.295984e+003,5.623010e-001
1.299841e+003,5.539079e-001
1.303698e+003,5.450490e-001
1.307556e+003,5.316839e-001
1.311413e+003,5.200353e-001
1.315270e+003,5.157683e-001
1.319127e+003,5.098116e-001
1.322984e+003,5.013517e-001
1.326841e+003,4.947585e-001
1.330698e+003,4.923221e-001
1.334555e+003,4.902728e-001
1.338412e+003,4.875984e-001
1.342270e+003,4.859084e-001
1.346127e+003,4.863089e-001
1.349984e+003,4.880958e-001
1.353841e+003,4.907094e-001
1.357698e+003,4.947869e-001
1.361555e+003,4.948441e-001
1.365412e+003,4.959725e-001
1.369269e+003,5.018933e-001
1.373126e+003,5.148262e-001
1.376983e+003,5.267016e-001
1.380840e+003,5.367276e-001
1.384698e+003,5.536698e-001
1.388555e+003,5.740184e-001
1.392412e+003,5.889465e-001
1.396269e+003,6.004750e-001
1.400126e+003,6.217678e-001
1.403983e+003,6.457565e-001
1.407840e+003,6.632378e-001
1.411697e+003,6.816568e-001
1.415554e+003,6.985281e-001
1.419411e+003,7.089747e-001
1.423269e+003,7.200848e-001
1.427126e+003,7.314118e-001
1.430983e+003,7.312501e-001
1.434840e+003,7.329445e-001
1.438697e+003,7.336720e-001
1.442554e+003,7.319728e-001
1.446411e+003,7.239547e-001
1.450268e+003,7.121515e-001
1.454125e+003,6.957677e-001
1.457982e+003,6.832387e-001
1.461839e+003,6.755584e-001
1.465697e+003,6.734533e-001
1.469554e+003,6.651947e-001
1.473411e+003,6.632181e-001
1.477268e+003,6.746179e-001
1.481125e+003,6.850674e-001
1.484982e+003,6.994082e-001
1.488839e+003,7.135860e-001
1.492696e+003,7.221926e-001
1.496553e+003,7.267076e-001
1.500411e+003,7.385759e-001
1.504268e+003,7.563466e-001
1.508125e+003,7.612485e-001
1.511982e+003,7.558038e-001
1.515839e+003,7.547801e-001
1.519696e+003,7.477964e-001
1.523553e+003,7.262332e-001
1.527410e+003,7.113570e-001
1.531267e+003,6.952667e-001
1.535124e+003,6.782616e-001
1.538981e+003,6.656287e-001
1.542839e+003,6.454994e-001
1.546696e+003,6.269032e-001
1.550553e+003,6.113594e-001
1.554410e+003,5.982643e-001
1.558267e+003,5.878842e-001
1.562124e+003,5.767102e-001
1.565981e+003,5.676345e-001
1.569838e+003,5.603972e-001
1.573695e+003,5.564055e-001
1.577552e+003,5.526464e-001
1.581410e+003,5.476769e-001
1.585267e+003,5.532406e-001
1.589124e+003,5.608382e-001
1.592981e+003,5.700126e-001
1.596838e+003,5.827827e-001
1.600695e+003,5.967475e-001
1.604552e+003,6.156298e-001
1.608409e+003,6.387238e-001
1.612266e+003,6.668393e-001
1.616123e+003,6.988280e-001
1.619980e+003,7.266764e-001
1.623838e+003,7.533713e-001
1.627695e+003,7.794365e-001
1.631552e+003,7.941284e-001
1.635409e+003,8.011814e-001
1.639266e+003,8.118275e-001
1.643123e+003,8.118117e-001
1.646980e+003,7.970173e-001
1.650837e+003,7.735571e-001
1.654694e+003,7.471548e-001
1.658551e+003,7.261116e-001
1.662409e+003,7.071839e-001
1.666266e+003,6.787438e-001
1.670123e+003,6.438521e-001
1.673980e+003,6.089299e-001
1.677837e+003,5.827380e-001
1.681694e+003,5.633158e-001
1.685551e+003,5.441529e-001
1.689408e+003,5.265499e-001
1.693265e+003,5.113280e-001
1.697122e+003,4.960043e-001
1.700979e+003,4.895729e-001
1.704837e+003,4.826664e-001
1.708694e+003,4.723332e-001
1.712551e+003,4.649633e-001
1.716408e+003,4.557708e-001
1.720265e+003,4.506343e-001
1.724122e+003,4.467018e-001
1.727979e+003,4.409560e-001
1.731836e+003,4.383532e-001
1.735693e+003,4.375148e-001
1.739550e+003,4.344223e-001
1.743408e+003,4.322023e-001
1.747265e+003,4.290736e-001
1.751122e+003,4.253365e-001
1.754979e+003,4.224389e-001
1.758836e+003,4.230390e-001
1.762693e+003,4.255425e-001
1.766550e+003,4.270084e-001
1.770407e+003,4.249677e-001
1.774264e+003,4.238300e-001
1.778121e+003,4.253137e-001
1.781979e+003,4.236311e-001
1.785836e+003,4.221364e-001
1.789693e+003,4.223521e-001
1.793550e+003,4.185387e-001
1.797407e+003,4.128279e-001
1.801264e+003,4.111019e-001
1.805121e+003,4.085358e-001
1.808978e+003,4.057625e-001
1.812835e+003,4.053150e-001
1.816692e+003,4.032910e-001
1.820549e+003,3.990572e-001
1.824407e+003,3.970007e-001
1.828264e+003,3.969673e-001
1.832121e+003,3.940299e-001
1.835978e+003,3.908881e-001
1.839835e+003,3.910818e-001
1.843692e+003,3.922852e-001
1.847549e+003,3.912490e-001
1.851406e+003,3.892325e-001
1.855263e+003,3.868377e-001
1.859120e+003,3.879950e-001
1.862978e+003,3.887860e-001
1.866835e+003,3.876926e-001
1.870692e+003,3.847255e-001
1.874549e+003,3.808829e-001
1.878406e+003,3.812602e-001
1.882263e+003,3.811512e-001
1.886120e+003,3.782960e-001
1.889977e+003,3.771444e-001
1.893834e+003,3.742386e-001
1.897691e+003,3.733304e-001
1.901548e+003,3.730500e-001
1.905406e+003,3.704954e-001
1.909263e+003,3.682633e-001
1.913120e+003,3.647692e-001
1.916977e+003,3.629794e-001
1.920834e+003,3.632539e-001
1.924691e+003,3.628941e-001
1.928548e+003,3.613876e-001
1.932405e+003,3.601364e-001
1.936262e+003,3.621004e-001
1.940119e+003,3.617086e-001
1.943977e+003,3.602197e-001
1.947834e+003,3.593317e-001
1.951691e+003,3.575529e-001
1.955548e+003,3.546048e-001
1.959405e+003,3.508389e-001
1.963262e+003,3.493434e-001
1.967119e+003,3.490344e-001
1.970976e+003,3.473648e-001
1.974833e+003,3.429976e-001
1.978690e+003,3.405664e-001
1.982547e+003,3.391302e-001
1.986405e+003,3.384743e-001
1.990262e+003,3.401507e-001
1.994119e+003,3.399506e-001
1.997976e+003,3.392937e-001
2.001833e+003,3.375452e-001
2.005690e+003,3.362139e-001
2.009547e+003,3.379007e-001
2.013404e+003,3.397335e-001
2.017261e+003,3.387876e-001
2.021118e+003,3.364173e-001
2.024976e+003,3.343565e-001
2.028833e+003,3.327421e-001
2.032690e+003,3.299324e-001
2.036547e+003,3.281760e-001
2.040404e+003,3.257825e-001
2.044261e+003,3.220935e-001
2.048118e+003,3.203889e-001
2.051975e+003,3.198923e-001
2.055832e+003,3.172358e-001
2.059689e+003,3.150685e-001
2.063546e+003,3.143027e-001
2.067404e+003,3.139776e-001
2.071261e+003,3.153381e-001
2.075118e+003,3.162406e-001
2.078975e+003,3.157246e-001
2.082832e+003,3.150489e-001
2.086689e+003,3.155550e-001
2.090546e+003,3.147938e-001
2.094403e+003,3.141779e-001
2.098260e+003,3.140051e-001
2.102117e+003,3.109249e-001
2.105975e+003,3.094188e-001
2.109832e+003,3.099287e-001
2.113689e+003,3.085901e-001
2.117546e+003,3.071687e-001
2.121403e+003,3.063054e-001
2.125260e+003,3.066413e-001
2.129117e+003,3.063248e-001
2.132974e+003,3.062624e-001
2.136831e+003,3.069731e-001
2.140688e+003,3.081762e-001
2.144545e+003,3.111096e-001
2.148403e+003,3.107640e-001
2.152260e+003,3.082120e-001
2.156117e+003,3.074060e-001
2.159974e+003,3.099414e-001
2.163831e+003,3.140040e-001
2.167688e+003,3.130781e-001
2.171545e+003,3.110596e-001
2.175402e+003,3.111771e-001
2.179259e+003,3.107820e-001
2.183116e+003,3.085119e-001
2.186974e+003,3.083927e-001
2.190831e+003,3.072571e-001
2.194688e+003,3.066856e-001
2.198545e+003,3.071079e-001
2.202402e+003,3.079601e-001
2.206259e+003,3.100519e-001
2.210116e+003,3.126851e-001
2.213973e+003,3.153866e-001
2.217830e+003,3.145454e-001
2.221688e+003,3.147345e-001
2.225544e+003,3.171734e-001
2.229402e+003,3.176654e-001
2.233259e+003,3.170812e-001
2.237116e+003,3.167820e-001
2.240973e+003,3.183132e-001
2.244830e+003,3.178678e-001
2.248687e+003,3.170328e-001
2.252544e+003,3.183285e-001
2.256401e+003,3.174843e-001
2.260258e+003,3.154578e-001
2.264115e+003,3.165380e-001
2.267973e+003,3.178512e-001
2.271830e+003,3.194289e-001
2.275687e+003,3.214640e-001
2.279544e+003,3.214823e-001
2.283401e+003,3.214444e-001
2.287258e+003,3.212370e-001
2.291115e+003,3.195830e-001
2.294972e+003,3.211020e-001
2.298829e+003,3.226148e-001
2.302687e+003,3.223462e-001
2.306543e+003,3.226084e-001
2.310401e+003,3.230907e-001
2.314258e+003,3.241209e-001
2.318115e+003,3.223501e-001
2.321972e+003,3.237376e-001
2.325829e+003,3.256601e-001
2.329686e+003,3.208845e-001
2.333543e+003,3.195310e-001
2.337400e+003,3.208832e-001
2.341257e+003,3.224196e-001
2.345115e+003,3.229568e-001
2.348972e+003,3.218947e-001
2.352829e+003,3.201635e-001
2.356686e+003,3.191956e-001
2.360543e+003,3.225841e-001
2.364400e+003,3.237384e-001
2.368257e+003,3.209569e-001
2.372114e+003,3.228942e-001
2.375971e+003,3.250900e-001
2.379828e+003,3.228526e-001
2.383686e+003,3.214349e-001
2.387542e+003,3.237321e-001
2.391400e+003,3.248998e-001
2.395257e+003,3.231362e-001
2.399114e+003,3.200448e-001
2.402971e+003,3.190417e-001
2.406828e+003,3.186945e-001
2.410685e+003,3.177966e-001
2.414542e+003,3.166073e-001
2.418399e+003,3.154901e-001
2.422256e+003,3.151990e-001
2.426114e+003,3.139197e-001
2.429971e+003,3.126117e-001
2.433828e+003,3.118696e-001
2.437685e+003,3.107420e-001
2.441542e+003,3.102533e-001
2.445399e+003,3.115335e-001
2.449256e+003,3.104035e-001
2.453113e+003,3.087363e-001
2.456970e+003,3.070612e-001
2.460827e+003,3.074037e-001
2.464684e+003,3.089416e-001
2.468542e+003,3.090975e-001
2.472399e+003,3.084176e-001
2.476256e+003,3.079280e-001
2.480113e+003,3.053107e-001
2.483970e+003,3.038203e-001
2.487827e+003,3.029228e-001
2.491684e+003,3.025181e-001
2.495541e+003,3.043433e-001
2.499398e+003,3.044395e-001
2.503255e+003,3.036760e-001
2.507113e+003,3.015859e-001
2.510969e+003,2.988772e-001
2.514827e+003,2.990634e-001
2.518684e+003,3.021950e-001
2.522541e+003,3.050420e-001
2.526398e+003,3.044839e-001
2.530255e+003,3.047980e-001
2.534112e+003,3.044634e-001
2.537969e+003,3.045191e-001
2.541826e+003,3.070061e-001
2.545683e+003,3.081296e-001
2.549541e+003,3.084055e-001
2.553398e+003,3.106198e-001
2.557255e+003,3.125268e-001
2.561112e+003,3.116545e-001
2.564969e+003,3.105507e-001
2.568826e+003,3.121163e-001
2.572683e+003,3.164169e-001
2.576540e+003,3.195655e-001
2.580397e+003,3.216752e-001
2.584254e+003,3.229880e-001
2.588112e+003,3.233545e-001
2.591969e+003,3.244677e-001
2.595826e+003,3.262435e-001
2.599683e+003,3.269424e-001
2.603540e+003,3.265348e-001
2.607397e+003,3.294470e-001
2.611254e+003,3.317394e-001
2.615111e+003,3.317274e-001
2.618968e+003,3.375725e-001
2.622825e+003,3.436738e-001
2.626682e+003,3.457783e-001
2.630540e+003,3.455094e-001
2.634397e+003,3.462776e-001
2.638254e+003,3.487791e-001
2.642111e+003,3.509937e-001
2.645968e+003,3.530258e-001
2.649825e+003,3.537788e-001
2.653682e+003,3.575810e-001
2.657539e+003,3.627741e-001
2.661396e+003,3.634361e-001
2.665253e+003,3.654981e-001
2.669111e+003,3.688087e-001
2.672968e+003,3.723788e-001
2.676825e+003,3.752260e-001
2.680682e+003,3.780908e-001
2.684539e+003,3.815258e-001
2.688396e+003,3.835388e-001
2.692253e+003,3.850113e-001
2.696110e+003,3.880055e-001
2.699967e+003,3.927829e-001
2.703824e+003,3.982899e-001
2.707681e+003,4.031999e-001
2.711539e+003,4.046806e-001
2.715396e+003,4.101403e-001
2.719253e+003,4.151691e-001
2.723110e+003,4.161078e-001
2.726967e+003,4.192857e-001
2.730824e+003,4.229295e-001
2.734681e+003,4.227749e-001
2.738538e+003,4.276116e-001
2.742395e+003,4.310929e-001
2.746252e+003,4.337746e-001
2.750110e+003,4.390931e-001
2.753967e+003,4.442631e-001
2.757824e+003,4.492006e-001
2.761681e+003,4.511999e-001
2.765538e+003,4.525031e-001
2.769395e+003,4.575717e-001
2.773252e+003,4.619554e-001
2.777109e+003,4.659199e-001
2.780966e+003,4.690492e-001
2.784823e+003,4.730553e-001
2.788680e+003,4.789599e-001
2.792538e+003,4.841032e-001
2.796395e+003,4.891072e-001
2.800252e+003,4.939741e-001
2.804109e+003,4.964487e-001
2.807966e+003,4.975341e-001
2.811823e+003,5.042313e-001
2.815680e+003,5.086976e-001
2.819537e+003,5.092746e-001
2.823394e+003,5.145572e-001
2.827251e+003,5.209704e-001
2.831109e+003,5.249088e-001
2.834966e+003,5.296256e-001
2.838823e+003,5.335265e-001
2.842680e+003,5.367355e-001
2.846537e+003,5.425642e-001
2.850394e+003,5.469720e-001
2.854251e+003,5.542033e-001
2.858108e+003,5.631601e-001
2.861965e+003,5.681601e-001
2.865823e+003,5.707639e-001
2.869679e+003,5.742863e-001
2.873537e+003,5.795034e-001
2.877394e+003,5.829535e-001
2.881251e+003,5.877213e-001
2.885108e+003,5.918092e-001
2.888965e+003,5.929376e-001
2.892822e+003,6.005941e-001
2.896679e+003,6.066288e-001
2.900536e+003,6.120375e-001
2.904393e+003,6.160144e-001
2.908250e+003,6.217307e-001
2.912108e+003,6.265184e-001
2.915965e+003,6.316831e-001
2.919822e+003,6.400155e-001
2.923679e+003,6.466669e-001
2.927536e+003,6.571668e-001
2.931393e+003,6.610309e-001
2.935250e+003,6.580647e-001
2.939107e+003,6.631281e-001
2.942964e+003,6.727841e-001
2.946822e+003,6.819652e-001
2.950678e+003,6.907019e-001
2.954536e+003,6.956600e-001
2.958393e+003,6.984156e-001
2.962250e+003,7.015975e-001
2.966107e+003,7.088072e-001
2.969964e+003,7.157894e-001
2.973821e+003,7.159512e-001
2.977678e+003,7.243745e-001
2.981535e+003,7.319081e-001
2.985392e+003,7.383574e-001
2.989250e+003,7.474445e-001
2.993107e+003,7.554827e-001
2.996964e+003,7.588775e-001
3.000821e+003,7.619311e-001
3.004678e+003,7.704762e-001
3.008535e+003,7.749066e-001
3.012392e+003,7.768470e-001
3.016249e+003,7.830452e-001
3.020106e+003,7.920829e-001
3.023963e+003,7.985157e-001
3.027821e+003,7.952048e-001
3.031677e+003,8.040540e-001
3.035535e+003,8.180599e-001
3.039392e+003,8.278600e-001
3.043249e+003,8.323277e-001
3.047106e+003,8.370551e-001
3.050963e+003,8.442509e-001
3.054820e+003,8.511362e-001
3.058677e+003,8.606087e-001
3.062534e+003,8.722686e-001
3.066391e+003,8.729282e-001
3.070249e+003,8.739481e-001
3.074106e+003,8.763382e-001
3.077963e+003,8.936995e-001
3.081820e+003,9.054568e-001
3.085677e+003,9.033523e-001
3.089534e+003,9.112049e-001
3.093391e+003,9.248798e-001
3.097248e+003,9.314322e-001
3.101105e+003,9.391786e-001
3.104962e+003,9.442337e-001
3.108820e+003,9.496158e-001
3.112677e+003,9.492508e-001
3.116534e+003,9.501795e-001
3.120391e+003,9.636766e-001
3.124248e+003,9.781685e-001
3.128105e+003,9.914801e-001
3.131962e+003,9.865795e-001
3.135819e+003,9.951681e-001
3.139676e+003,1.008981e+000
3.143533e+003,1.009159e+000
3.147390e+003,1.015085e+000
3.151248e+003,1.022053e+000
3.155105e+003,1.033312e+000
3.158962e+003,1.044060e+000
3.162819e+003,1.048114e+000
3.166676e+003,1.049695e+000
3.170533e+003,1.061444e+000
3.174390e+003,1.072998e+000
3.178247e+003,1.081984e+000
3.182104e+003,1.090100e+000
3.185961e+003,1.093867e+000
3.189819e+003,1.096511e+000
3.193676e+003,1.093401e+000
3.197533e+003,1.101361e+000
3.201390e+003,1.113945e+000
3.205247e+003,1.115110e+000
3.209104e+003,1.130579e+000
3.212961e+003,1.151725e+000
3.216818e+003,1.142999e+000
3.220675e+003,1.127740e+000
3.224532e+003,1.144488e+000
3.228389e+003,1.156524e+000
3.232247e+003,1.172068e+000
3.236104e+003,1.179880e+000
3.239961e+003,1.162657e+000
3.243818e+003,1.145171e+000
3.247675e+003,1.167909e+000
3.251532e+003,1.174464e+000
3.255389e+003,1.175099e+000
3.259246e+003,1.178125e+000
3.263103e+003,1.184426e+000
3.266960e+003,1.185983e+000
3.270818e+003,1.177241e+000
3.274675e+003,1.193888e+000
3.278532e+003,1.202111e+000
3.282389e+003,1.190530e+000
3.286246e+003,1.197807e+000
3.290103e+003,1.218649e+000
3.293960e+003,1.230933e+000
3.297817e+003,1.249976e+000
3.301674e+003,1.236848e+000
3.305531e+003,1.240084e+000
3.309388e+003,1.254584e+000
3.313246e+003,1.240502e+000
3.317103e+003,1.232163e+000
3.320960e+003,1.235752e+000
3.324817e+003,1.257134e+000
3.328674e+003,1.274921e+000
3.332531e+003,1.286421e+000
3.336388e+003,1.300981e+000
3.340245e+003,1.306909e+000
3.344102e+003,1.296546e+000
3.347959e+003,1.293941e+000
3.351817e+003,1.302676e+000
3.355674e+003,1.303250e+000
3.359531e+003,1.317943e+000
3.363388e+003,1.305383e+000
3.367245e+003,1.310013e+000
3.371102e+003,1.324669e+000
3.374959e+003,1.320350e+000
3.378816e+003,1.314926e+000
3.382673e+003,1.343572e+000
3.386530e+003,1.349018e+000
3.390387e+003,1.353167e+000
3.394245e+003,1.376209e+000
3.398102e+003,1.381600e+000
3.401959e+003,1.355622e+000
3.405816e+003,1.343034e+000
3.409673e+003,1.363418e+000
3.413530e+003,1.375318e+000
3.417387e+003,1.373013e+000
3.421244e+003,1.386668e+000
3.425101e+003,1.386693e+000
3.428958e+003,1.372570e+000
3.432815e+003,1.358616e+000
3.436673e+003,1.365058e+000
3.440530e+003,1.389270e+000
3.444387e+003,1.379573e+000
3.448244e+003,1.371645e+000
3.452101e+003,1.368212e+000
3.455958e+003,1.360361e+000
3.459815e+003,1.380641e+000
3.463672e+003,1.411377e+000
3.467529e+003,1.429672e+000
3.471386e+003,1.409872e+000
3.475244e+003,1.387123e+000
3.479101e+003,1.388714e+000
3.482958e+003,1.372954e+000
3.486815e+003,1.370689e+000
3.490672e+003,1.395319e+000
3.494529e+003,1.411574e+000
3.498386e+003,1.411548e+000
3.502243e+003,1.410992e+000
3.506100e+003,1.421047e+000
3.509958e+003,1.422872e+000
3.513814e+003,1.425945e+000
3.517672e+003,1.445413e+000
3.521529e+003,1.435824e+000
3.525386e+003,1.412775e+000
3.529243e+003,1.385534e+000
3.533100e+003,1.376293e+000
3.536957e+003,1.392839e+000
3.540814e+003,1.397059e+000
3.544671e+003,1.397592e+000
3.548528e+003,1.423284e+000
3.552385e+003,1.428646e+000
3.556243e+003,1.401721e+000
3.560100e+003,1.409469e+000
3.563957e+003,1.391773e+000
3.567814e+003,1.378806e+000
3.571671e+003,1.374204e+000
3.575528e+003,1.367678e+000
3.579385e+003,1.354134e+000
3.583242e+003,1.347383e+000
3.587099e+003,1.317796e+000
3.590957e+003,1.298044e+000
3.594813e+003,1.284121e+000
3.598671e+003,1.249431e+000
3.602528e+003,1.213770e+000
3.606385e+003,1.189164e+000
3.610242e+003,1.176924e+000
3.614099e+003,1.141565e+000
3.617956e+003,1.078211e+000
3.621813e+003,1.011097e+000
3.625670e+003,9.646948e-001
3.629527e+003,9.120815e-001
3.633385e+003,8.544369e-001
3.637242e+003,7.938430e-001
3.641099e+003,7.337086e-001
3.644956e+003,6.759703e-001
3.648813e+003,6.213737e-001
3.652670e+003,5.639359e-001
3.656527e+003,5.111436e-001
3.660384e+003,4.624953e-001
3.664241e+003,4.182922e-001
3.668098e+003,3.793254e-001
3.671956e+003,3.433022e-001
3.675813e+003,3.156462e-001
3.679670e+003,2.913588e-001
3.683527e+003,2.694520e-001
3.687384e+003,2.481987e-001
3.691241e+003,2.301572e-001
3.695098e+003,2.161691e-001
3.698955e+003,2.057110e-001
3.702812e+003,1.950198e-001
3.706669e+003,1.853937e-001
3.710526e+003,1.782320e-001
3.714384e+003,1.719957e-001
3.718241e+003,1.640534e-001
3.722098e+003,1.571226e-001
3.725955e+003,1.532572e-001
3.729812e+003,1.514221e-001
3.733669e+003,1.464095e-001
3.737526e+003,1.427658e-001
3.741383e+003,1.411191e-001
3.745240e+003,1.395207e-001
3.749097e+003,1.371217e-001
3.752955e+003,1.351833e-001
3.756812e+003,1.345659e-001
3.760669e+003,1.320399e-001
3.764526e+003,1.316632e-001
3.768383e+003,1.322865e-001
3.772240e+003,1.318153e-001
3.776097e+003,1.321626e-001
3.779954e+003,1.306819e-001
3.783811e+003,1.274564e-001
3.787668e+003,1.257661e-001
3.791525e+003,1.260962e-001
3.795383e+003,1.259787e-001
3.799240e+003,1.237783e-001
3.803097e+003,1.233285e-001
3.806954e+003,1.242546e-001
3.810811e+003,1.227502e-001
3.814668e+003,1.227961e-001
3.818525e+003,1.249906e-001
3.822382e+003,1.254853e-001
3.826239e+003,1.248524e-001
3.830096e+003,1.237281e-001
3.833954e+003,1.221759e-001
3.837811e+003,1.210031e-001
3.841668e+003,1.208843e-001
3.845525e+003,1.225630e-001
3.849382e+003,1.238282e-001
3.853239e+003,1.237815e-001
3.857096e+003,1.250663e-001
3.860953e+003,1.244824e-001
3.864810e+003,1.212501e-001
3.868667e+003,1.224392e-001
3.872524e+003,1.232829e-001
3.876382e+003,1.202110e-001
3.880239e+003,1.212713e-001
3.884096e+003,1.221996e-001
3.887953e+003,1.216657e-001
3.891810e+003,1.229162e-001
3.895667e+003,1.231963e-001
3.899524e+003,1.226060e-001
3.903381e+003,1.248594e-001
3.907238e+003,1.241398e-001
3.911095e+003,1.215782e-001
3.914953e+003,1.207715e-001
3.918810e+003,1.215020e-001
3.922667e+003,1.225347e-001
3.926524e+003,1.210613e-001
3.930381e+003,1.216074e-001
3.934238e+003,1.236515e-001
3.938095e+003,1.239861e-001
3.941952e+003,1.240173e-001
3.945809e+003,1.250346e-001
3.949667e+003,1.265889e-001
3.953523e+003,1.280066e-001
3.957381e+003,1.264693e-001
3.961238e+003,1.242017e-001
3.965095e+003,1.239607e-001
3.968952e+003,1.252404e-001
3.972809e+003,1.237385e-001
3.976666e+003,1.217485e-001
3.980523e+003,1.213540e-001
3.984380e+003,1.227223e-001
3.988237e+003,1.259144e-001
3.992094e+003,1.280584e-001
3.995952e+003,1.266198e-001
3.999809e+003,1.244013e-001
4.003666e+003,1.234723e-001
4.007523e+003,1.219658e-001
4.011380e+003,1.216905e-001
4.015237e+003,1.215682e-001
4.019094e+003,1.221536e-001
4.022951e+003,1.220152e-001
4.026808e+003,1.203404e-001
4.030666e+003,1.205044e-001
4.034522e+003,1.223618e-001
4.038380e+003,1.226868e-001
4.042237e+003,1.225919e-001
4.046094e+003,1.247950e-001
4.049951e+003,1.262116e-001
4.053808e+003,1.263407e-001
4.057665e+003,1.243029e-001
4.061522e+003,1.240037e-001
4.065379e+003,1.264917e-001
4.069236e+003,1.306552e-001
4.073094e+003,1.281271e-001
4.076951e+003,1.238970e-001
4.080808e+003,1.224731e-001
4.084665e+003,1.221580e-001
4.088522e+003,1.208573e-001
4.092379e+003,1.202941e-001
4.096236e+003,1.193654e-001
4.100093e+003,1.180381e-001
4.103950e+003,1.201741e-001
4.107808e+003,1.228424e-001
4.111665e+003,1.245719e-001
4.115521e+003,1.259834e-001
4.119379e+003,1.238282e-001
4.123236e+003,1.217785e-001
4.127093e+003,1.225830e-001
4.130950e+003,1.265777e-001
4.134807e+003,1.259700e-001
4.138664e+003,1.224280e-001
4.142521e+003,1.231156e-001
4.146378e+003,1.240114e-001
4.150235e+003,1.223770e-001
4.154093e+003,1.229819e-001
4.157950e+003,1.231893e-001
4.161807e+003,1.231867e-001
4.165664e+003,1.223251e-001
4.169521e+003,1.222856e-001
4.173378e+003,1.232732e-001
4.177235e+003,1.230859e-001
4.181092e+003,1.201806e-001
4.184949e+003,1.188870e-001
4.188807e+003,1.206652e-001
4.192664e+003,1.245872e-001
4.196521e+003,1.249702e-001
4.200378e+003,1.243839e-001
4.204235e+003,1.260934e-001
4.208092e+003,1.276027e-001
4.211949e+003,1.267771e-001
4.215806e+003,1.256091e-001
4.219663e+003,1.242678e-001
4.223521e+003,1.257622e-001
4.227377e+003,1.275851e-001
4.231234e+003,1.248331e-001
4.235092e+003,1.225094e-001
4.238949e+003,1.207919e-001
4.242806e+003,1.208816e-001
4.246663e+003,1.219659e-001
4.250520e+003,1.241573e-001
4.254377e+003,1.259864e-001
4.258234e+003,1.226836e-001
4.262091e+003,1.212074e-001
4.265948e+003,1.218748e-001
4.269806e+003,1.239395e-001
4.273663e+003,1.264388e-001
4.277520e+003,1.271222e-001
4.281377e+003,1.284404e-001
4.285234e+003,1.291894e-001
4.289091e+003,1.293824e-001
4.292948e+003,1.299968e-001
4.296805e+003,1.272106e-001
4.300662e+003,1.258197e-001
4.304520e+003,1.261418e-001
4.308376e+003,1.268616e-001
4.312233e+003,1.306995e-001
4.316091e+003,1.298068e-001
4.319948e+003,1.273862e-001
4.323805e+003,1.273147e-001
4.327662e+003,1.295022e-001
4.331519e+003,1.316177e-001
4.335376e+003,1.312736e-001
4.339233e+003,1.321045e-001
4.343090e+003,1.334169e-001
4.346947e+003,1.338660e-001
4.350805e+003,1.329994e-001
4.354662e+003,1.333044e-001
4.358519e+003,1.352011e-001
4.362376e+003,1.374157e-001
4.366233e+003,1.387534e-001
4.370090e+003,1.385706e-001
4.373947e+003,1.370962e-001
4.377804e+003,1.358193e-001
4.381661e+003,1.343561e-001
4.385519e+003,1.338252e-001
4.389375e+003,1.374648e-001
4.393232e+003,1.359228e-001
4.397090e+003,1.339216e-001
4.400947e+003,1.346298e-001
4.404804e+003,1.354381e-001
4.408661e+003,1.361796e-001
4.412518e+003,1.356644e-001
4.416375e+003,1.360956e-001
4.420232e+003,1.381813e-001
4.424089e+003,1.411810e-001
4.427946e+003,1.429362e-001
4.431804e+003,1.437749e-001
4.435661e+003,1.444944e-001
4.439518e+003,1.455899e-001
4.443375e+003,1.464212e-001
4.447232e+003,1.439960e-001
4.451089e+003,1.439742e-001
4.454946e+003,1.483031e-001
4.458803e+003,1.470212e-001
4.462660e+003,1.441341e-001
4.466518e+003,1.443920e-001
4.470375e+003,1.440633e-001
4.474231e+003,1.447002e-001
4.478089e+003,1.462824e-001
4.481946e+003,1.466878e-001
4.485803e+003,1.507086e-001
4.489660e+003,1.513475e-001
4.493517e+003,1.465526e-001
4.497375e+003,1.493464e-001
4.501231e+003,1.534446e-001
4.505088e+003,1.491178e-001
4.508946e+003,1.459780e-001
4.512803e+003,1.447678e-001
4.516660e+003,1.452556e-001
4.520517e+003,1.497501e-001
4.524374e+003,1.496385e-001
4.528231e+003,1.470331e-001
4.532088e+003,1.451452e-001
4.535945e+003,1.451423e-001
4.539802e+003,1.484046e-001
4.543660e+003,1.461279e-001
4.547517e+003,1.432667e-001
4.551374e+003,1.451067e-001
4.555231e+003,1.430341e-001
4.559088e+003,1.396705e-001
4.562945e+003,1.397923e-001
4.566802e+003,1.424949e-001
4.570659e+003,1.468768e-001
4.574516e+003,1.453658e-001
4.578374e+003,1.429110e-001
4.582230e+003,1.519741e-001
4.586087e+003,1.498478e-001
4.589945e+003,1.440925e-001
4.593802e+003,1.419238e-001
4.597659e+003,1.422162e-001
4.601516e+003,1.424243e-001
4.605373e+003,1.434194e-001
4.609230e+003,1.484077e-001
4.613087e+003,1.485739e-001
4.616944e+003,1.463266e-001
4.620801e+003,1.419019e-001
4.624659e+003,1.409600e-001
4.628516e+003,1.448789e-001
4.632373e+003,1.496382e-001
4.636230e+003,1.493560e-001
4.640087e+003,1.432718e-001
4.643944e+003,1.425638e-001
4.647801e+003,1.427844e-001
4.651658e+003,1.468903e-001
4.655515e+003,1.495229e-001
4.659373e+003,1.468768e-001
4.663229e+003,1.494479e-001
4.667086e+003,1.486348e-001
4.670944e+003,1.464368e-001
4.674801e+003,1.484919e-001
4.678658e+003,1.546949e-001
4.682515e+003,1.561837e-001
4.686372e+003,1.541552e-001
4.690229e+003,1.549132e-001
4.694086e+003,1.529827e-001
4.697943e+003,1.499393e-001
4.701800e+003,1.537613e-001
4.705658e+003,1.523162e-001
4.709515e+003,1.498654e-001
4.713372e+003,1.527940e-001
4.717229e+003,1.527592e-001
4.721086e+003,1.501788e-001
4.724943e+003,1.488208e-001
4.728800e+003,1.482932e-001
4.732657e+003,1.500404e-001
4.736514e+003,1.494585e-001
4.740372e+003,1.510827e-001
4.744229e+003,1.586182e-001
4.748085e+003,1.593274e-001
4.751943e+003,1.546810e-001
4.755800e+003,1.561618e-001
4.759657e+003,1.588206e-001
4.763514e+003,1.589878e-001
4.767371e+003,1.559197e-001
4.771228e+003,1.540933e-001
4.775085e+003,1.534472e-001
4.778942e+003,1.554109e-001
4.782799e+003,1.596756e-001
4.786657e+003,1.587475e-001
4.790514e+003,1.559997e-001
4.794371e+003,1.549399e-001
4.798228e+003,1.540659e-001
4.802085e+003,1.547754e-001
4.805942e+003,1.561118e-001
4.809799e+003,1.597754e-001
4.813656e+003,1.607859e-001
4.817513e+003,1.608520e-001
4.821371e+003,1.638286e-001
4.825228e+003,1.635219e-001
4.829084e+003,1.616123e-001
4.832942e+003,1.568123e-001
4.836799e+003,1.554271e-001
4.840656e+003,1.588722e-001
4.844513e+003,1.571397e-001
4.848370e+003,1.580957e-001
4.852227e+003,1.640629e-001
4.856084e+003,1.654822e-001
4.859941e+003,1.613651e-001
4.863798e+003,1.605157e-001
4.867656e+003,1.670882e-001
4.871513e+003,1.691198e-001
4.875370e+003,1.623202e-001
4.879227e+003,1.560266e-001
4.883084e+003,1.568303e-001
4.886941e+003,1.631488e-001
4.890798e+003,1.681197e-001
4.894655e+003,1.641522e-001
4.898512e+003,1.631020e-001
4.902370e+003,1.625746e-001
4.906227e+003,1.587467e-001
4.910083e+003,1.630991e-001
4.913941e+003,1.649539e-001
4.917798e+003,1.640045e-001
4.921655e+003,1.657938e-001
4.925512e+003,1.645070e-001
4.929369e+003,1.627271e-001
4.933226e+003,1.607960e-001
4.937083e+003,1.633256e-001
4.940940e+003,1.695233e-001
4.944797e+003,1.703728e-001
4.948655e+003,1.700114e-001
4.952512e+003,1.683981e-001
4.956369e+003,1.702037e-001
4.960226e+003,1.695911e-001
4.964083e+003,1.643763e-001
4.967940e+003,1.622202e-001
4.971797e+003,1.604985e-001
4.975654e+003,1.661414e-001
4.979511e+003,1.707773e-001
4.983369e+003,1.690494e-001
4.987226e+003,1.625304e-001
4.991083e+003,1.626356e-001
4.994940e+003,1.665505e-001
4.998797e+003,1.689505e-001
5.002654e+003,1.709402e-001
5.006511e+003,1.687707e-001
5.010368e+003,1.633620e-001
5.014225e+003,1.650180e-001
5.018083e+003,1.640362e-001
5.021939e+003,1.602522e-001
5.025796e+003,1.705720e-001
5.029654e+003,1.724951e-001
5.033511e+003,1.699740e-001
5.037368e+003,1.691502e-001
5.041225e+003,1.695044e-001
5.045082e+003,1.731317e-001
5.048939e+003,1.699264e-001
5.052796e+003,1.726070e-001
5.056653e+003,1.776992e-001
5.060510e+003,1.740616e-001
5.064368e+003,1.703775e-001
5.068225e+003,1.697330e-001
5.072082e+003,1.679839e-001
5.075939e+003,1.656752e-001
5.079796e+003,1.694175e-001
5.083653e+003,1.719150e-001
5.087510e+003,1.711607e-001
5.091367e+003,1.736208e-001
5.095224e+003,1.764769e-001
5.099082e+003,1.768753e-001
5.102938e+003,1.743765e-001
5.106795e+003,1.723976e-001
5.110653e+003,1.708371e-001
5.114510e+003,1.748756e-001
5.118367e+003,1.771114e-001
5.122224e+003,1.718063e-001
5.126081e+003,1.727057e-001
5.129938e+003,1.755802e-001
5.133795e+003,1.777314e-001
5.137652e+003,1.779442e-001
5.141509e+003,1.771224e-001
5.145367e+003,1.767199e-001
5.149224e+003,1.717065e-001
5.153081e+003,1.707847e-001
5.156938e+003,1.710168e-001
5.160795e+003,1.751584e-001
5.164652e+003,1.740747e-001
5.168509e+003,1.708090e-001
5.172366e+003,1.717435e-001
5.176223e+003,1.722293e-001
5.180081e+003,1.802609e-001
5.183938e+003,1.800566e-001
5.187794e+003,1.797057e-001
5.191652e+003,1.810974e-001
5.195509e+003,1.806394e-001
5.199366e+003,1.804878e-001
5.203223e+003,1.777897e-001
5.207080e+003,1.821253e-001
5.210937e+003,1.890372e-001
5.214794e+003,1.848493e-001
5.218651e+003,1.805265e-001
5.222508e+003,1.801788e-001
5.226366e+003,1.793178e-001
5.230223e+003,1.796097e-001
5.234080e+003,1.809936e-001
5.237937e+003,1.753153e-001
5.241794e+003,1.723250e-001
5.245651e+003,1.719954e-001
5.249508e+003,1.730333e-001
5.253365e+003,1.745522e-001
5.257222e+003,1.751779e-001
5.261080e+003,1.787440e-001
5.264937e+003,1.742886e-001
5.268793e+003,1.697851e-001
5.272651e+003,1.698935e-001
5.276508e+003,1.700178e-001
5.280365e+003,1.729920e-001
5.284222e+003,1.779177e-001
5.288079e+003,1.783596e-001
5.291936e+003,1.743930e-001
5.295793e+003,1.743601e-001
5.299650e+003,1.751423e-001
5.303507e+003,1.731154e-001
5.307365e+003,1.708862e-001
5.311222e+003,1.710496e-001
5.315079e+003,1.718531e-001
5.318936e+003,1.724107e-001
5.322793e+003,1.692083e-001
5.326650e+003,1.653900e-001
5.330507e+003,1.665252e-001
5.334364e+003,1.722099e-001
5.338221e+003,1.730853e-001
5.342079e+003,1.727235e-001
5.345936e+003,1.738462e-001
5.349792e+003,1.734742e-001
5.353650e+003,1.720167e-001
5.357507e+003,1.715635e-001
5.361364e+003,1.632253e-001
5.365221e+003,1.602032e-001
5.369078e+003,1.649891e-001
5.372935e+003,1.686064e-001
5.376792e+003,1.659117e-001
5.380649e+003,1.619831e-001
5.384506e+003,1.573656e-001
5.388364e+003,1.586276e-001
5.392221e+003,1.638473e-001
5.396078e+003,1.628848e-001
5.399935e+003,1.624949e-001
5.403792e+003,1.695133e-001
5.407649e+003,1.743708e-001
5.411506e+003,1.736857e-001
5.415363e+003,1.699074e-001
5.419220e+003,1.654142e-001
5.423078e+003,1.678268e-001
5.426935e+003,1.662427e-001
5.430792e+003,1.635451e-001
5.434649e+003,1.650526e-001
5.438506e+003,1.717417e-001
5.442363e+003,1.718058e-001
5.446220e+003,1.649556e-001
5.450077e+003,1.647039e-001
5.453934e+003,1.664936e-001
5.457792e+003,1.661908e-001
5.461648e+003,1.655565e-001
5.465505e+003,1.662137e-001
5.469363e+003,1.669359e-001
5.473220e+003,1.702200e-001
5.477077e+003,1.688029e-001
5.480934e+003,1.688175e-001
5.484791e+003,1.745329e-001
5.488648e+003,1.708083e-001
5.492505e+003,1.674454e-001
5.496362e+003,1.665060e-001
5.500219e+003,1.656578e-001
5.504077e+003,1.658568e-001
5.507934e+003,1.652397e-001
5.511791e+003,1.661345e-001
5.515648e+003,1.692439e-001
5.519505e+003,1.718909e-001
5.523362e+003,1.711792e-001
5.527219e+003,1.672057e-001
5.531076e+003,1.658962e-001
5.534933e+003,1.609155e-001
5.538791e+003,1.588802e-001
5.542647e+003,1.584468e-001
5.546504e+003,1.630685e-001
5.550362e+003,1.666890e-001
5.554219e+003,1.643653e-001
5.558076e+003,1.631622e-001
5.561933e+003,1.626100e-001
5.565790e+003,1.585288e-001
5.569647e+003,1.606423e-001
5.573504e+003,1.628215e-001
5.577361e+003,1.652526e-001
5.581218e+003,1.672941e-001
5.585076e+003,1.626136e-001
5.588933e+003,1.604649e-001
5.592790e+003,1.600045e-001
5.596647e+003,1.579167e-001
5.600504e+003,1.602125e-001
5.604361e+003,1.619017e-001
5.608218e+003,1.558328e-001
5.612075e+003,1.577192e-001
5.615932e+003,1.651052e-001
5.619790e+003,1.647035e-001
5.623646e+003,1.612559e-001
5.627503e+003,1.610688e-001
5.631361e+003,1.634316e-001
5.635218e+003,1.630222e-001
5.639075e+003,1.621793e-001
5.642932e+003,1.574725e-001
5.646789e+003,1.544163e-001
5.650646e+003,1.541777e-001
5.654503e+003,1.578027e-001
5.658360e+003,1.623884e-001
5.662217e+003,1.624111e-001
5.666075e+003,1.537311e-001
5.669932e+003,1.544687e-001
5.673789e+003,1.594894e-001
5.677646e+003,1.566811e-001
5.681503e+003,1.566770e-001
5.685360e+003,1.555013e-001
5.689217e+003,1.528220e-001
5.693074e+003,1.493767e-001
5.696931e+003,1.561254e-001
5.700789e+003,1.647971e-001
5.704646e+003,1.600062e-001
5.708502e+003,1.576478e-001
5.712360e+003,1.541864e-001
5.716217e+003,1.526143e-001
5.720074e+003,1.527560e-001
5.723931e+003,1.510493e-001
5.727788e+003,1.542619e-001
5.731645e+003,1.581854e-001
5.735502e+003,1.572966e-001
5.739359e+003,1.549400e-001
5.743216e+003,1.518207e-001
5.747074e+003,1.507488e-001
5.750931e+003,1.540912e-001
5.754788e+003,1.584308e-001
5.758645e+003,1.567354e-001
5.762502e+003,1.527004e-001
5.766359e+003,1.530535e-001
5.770216e+003,1.558028e-001
5.774073e+003,1.587793e-001
5.777930e+003,1.580967e-001
5.781788e+003,1.536075e-001
5.785645e+003,1.542315e-001
5.789501e+003,1.584845e-001
5.793359e+003,1.588165e-001
5.797216e+003,1.613200e-001
5.801073e+003,1.610314e-001
5.804930e+003,1.548027e-001
5.808787e+003,1.570521e-001
5.812644e+003,1.568091e-001
5.816501e+003,1.542187e-001
5.820358e+003,1.600090e-001
5.824215e+003,1.578191e-001
5.828073e+003,1.440095e-001
5.831930e+003,1.480098e-001
5.835787e+003,1.519803e-001
5.839644e+003,1.512122e-001
5.843501e+003,1.590195e-001
5.847358e+003,1.551737e-001
5.851215e+003,1.469271e-001
5.855072e+003,1.419711e-001
5.858929e+003,1.433278e-001
5.862787e+003,1.419823e-001
5.866644e+003,1.406637e-001
5.870500e+003,1.389540e-001
5.874358e+003,1.432713e-001
5.878215e+003,1.486295e-001
5.882072e+003,1.537087e-001
5.885929e+003,1.576945e-001
5.889786e+003,1.503364e-001
5.893643e+003,1.432225e-001
5.897500e+003,1.453936e-001
5.901357e+003,1.461935e-001
5.905214e+003,1.482211e-001
5.909072e+003,1.504630e-001
5.912929e+003,1.491875e-001
5.916786e+003,1.441347e-001
5.920643e+003,1.448893e-001
5.924500e+003,1.467134e-001
5.928357e+003,1.457349e-001
5.932214e+003,1.462689e-001
5.936071e+003,1.457891e-001
5.939928e+003,1.433147e-001
5.943786e+003,1.419676e-001
5.947643e+003,1.409360e-001
5.951500e+003,1.426482e-001
5.955357e+003,1.415903e-001
5.959214e+003,1.419015e-001
5.963071e+003,1.361341e-001
5.966928e+003,1.329987e-001
5.970785e+003,1.376504e-001
5.974642e+003,1.427267e-001
5.978500e+003,1.417337e-001
5.982356e+003,1.400904e-001
5.986213e+003,1.416026e-001
5.990071e+003,1.431437e-001
5.993928e+003,1.441524e-001
5.997785e+003,1.397064e-001
6.001642e+003,1.368709e-001
6.005499e+003,1.380941e-001
6.009356e+003,1.458163e-001
6.013213e+003,1.460238e-001
6.017070e+003,1.400307e-001
6.020927e+003,1.407927e-001
6.024785e+003,1.498785e-001
6.028642e+003,1.549416e-001
6.032499e+003,1.475894e-001
6.036356e+003,1.437776e-001
6.040213e+003,1.403866e-001
6.044070e+003,1.322318e-001
6.047927e+003,1.353036e-001
6.051784e+003,1.383095e-001
6.055641e+003,1.331891e-001
6.059499e+003,1.339146e-001
6.063355e+003,1.357517e-001
6.067212e+003,1.413054e-001
6.071070e+003,1.416511e-001
6.074927e+003,1.402860e-001
6.078784e+003,1.494814e-001
6.082641e+003,1.450971e-001
6.086498e+003,1.348580e-001
6.090355e+003,1.333553e-001
6.094212e+003,1.335021e-001
6.098069e+003,1.306622e-001
6.101926e+003,1.385157e-001
6.105784e+003,1.423760e-001
6.109641e+003,1.396650e-001
6.113498e+003,1.409518e-001
6.117355e+003,1.375507e-001
6.121212e+003,1.384889e-001
6.125069e+003,1.492960e-001
6.128926e+003,1.411589e-001
6.132783e+003,1.379410e-001
6.136640e+003,1.456650e-001
6.140498e+003,1.386319e-001
6.144354e+003,1.296171e-001
6.148211e+003,1.300435e-001
6.152069e+003,1.368602e-001
6.155926e+003,1.440147e-001
6.159783e+003,1.382415e-001
6.163640e+003,1.340243e-001
6.167497e+003,1.435403e-001
6.171354e+003,1.462427e-001
6.175211e+003,1.365760e-001
6.179068e+003,1.341951e-001
6.182925e+003,1.304456e-001
6.186783e+003,1.364958e-001
6.190640e+003,1.428464e-001
6.194497e+003,1.420460e-001
6.198354e+003,1.304392e-001
6.202211e+003,1.245419e-001
6.206068e+003,1.248395e-001
6.209925e+003,1.273563e-001
6.213782e+003,1.346876e-001
6.217639e+003,1.246710e-001
6.221497e+003,1.235216e-001
6.225354e+003,1.280849e-001
6.229210e+003,1.273104e-001
6.233068e+003,1.299377e-001
6.236925e+003,1.298179e-001
6.240782e+003,1.241634e-001
6.244639e+003,1.240378e-001
6.248496e+003,1.348928e-001
6.252353e+003,1.407485e-001
6.256210e+003,1.414887e-001
6.260067e+003,1.326884e-001
6.263924e+003,1.259254e-001
6.267782e+003,1.277266e-001
6.271639e+003,1.337594e-001
6.275496e+003,1.379759e-001
6.279353e+003,1.346106e-001
6.283210e+003,1.256509e-001
6.287067e+003,1.223917e-001
6.290924e+003,1.256546e-001
6.294781e+003,1.316704e-001
6.298638e+003,1.354610e-001
6.302496e+003,1.343697e-001
6.306353e+003,1.331152e-001
6.310209e+003,1.286292e-001
6.314067e+003,1.285137e-001
6.317924e+003,1.314206e-001
6.321781e+003,1.363955e-001
6.325638e+003,1.372857e-001
6.329495e+003,1.361754e-001
6.333352e+003,1.248077e-001
6.337209e+003,1.182608e-001
6.341066e+003,1.206215e-001
6.344923e+003,1.279197e-001
6.348780e+003,1.384494e-001
6.352638e+003,1.345655e-001
6.356495e+003,1.295532e-001
6.360352e+003,1.291038e-001
6.364209e+003,1.370369e-001
6.368066e+003,1.414981e-001
6.371923e+003,1.276104e-001
6.375780e+003,1.222326e-001
6.379637e+003,1.372863e-001
6.383494e+003,1.368154e-001
6.387352e+003,1.239671e-001
6.391208e+003,1.282944e-001
6.395065e+003,1.382425e-001
6.398923e+003,1.249292e-001
6.402780e+003,1.120557e-001
6.406637e+003,1.230903e-001
6.410494e+003,1.290707e-001
6.414351e+003,1.240068e-001
6.418208e+003,1.183040e-001
6.422065e+003,1.192550e-001
6.425922e+003,1.231021e-001
6.429779e+003,1.198492e-001
6.433637e+003,1.174230e-001
6.437494e+003,1.216500e-001
6.441351e+003,1.258594e-001
6.445208e+003,1.221395e-001
6.449065e+003,1.183406e-001
6.452922e+003,1.152657e-001
6.456779e+003,1.234131e-001
6.460636e+003,1.290361e-001
6.464493e+003,1.293616e-001
6.468351e+003,1.245719e-001
6.472208e+003,1.169741e-001
6.476064e+003,1.204792e-001
6.479922e+003,1.237959e-001
6.483779e+003,1.230344e-001
6.487636e+003,1.239305e-001
6.491493e+003,1.287134e-001
6.495350e+003,1.294543e-001
6.499207e+003,1.242828e-001
6.503064e+003,1.207965e-001
6.506921e+003,1.177957e-001
6.510778e+003,1.091117e-001
6.514636e+003,1.083372e-001
6.518493e+003,1.108570e-001
6.522350e+003,1.133925e-001
6.526207e+003,1.172092e-001
6.530064e+003,1.156336e-001
6.533921e+003,1.180485e-001
6.537778e+003,1.218097e-001
6.541635e+003,1.259037e-001
6.545492e+003,1.232091e-001
6.549350e+003,1.162678e-001
6.553207e+003,1.147439e-001
6.557063e+003,1.198327e-001
6.560921e+003,1.190351e-001
6.564778e+003,1.162985e-001
6.568635e+003,1.146273e-001
6.572492e+003,1.038706e-001
6.576349e+003,1.003200e-001
6.580206e+003,1.161919e-001
6.584063e+003,1.304650e-001
6.587920e+003,1.206613e-001
6.591777e+003,1.074643e-001
6.595635e+003,1.069373e-001
6.599492e+003,1.170411e-001
6.603349e+003,1.296467e-001
6.607206e+003,1.170025e-001
6.611063e+003,1.055271e-001
6.614920e+003,1.162075e-001
6.618777e+003,1.312931e-001
6.622634e+003,1.201040e-001
6.626491e+003,1.057504e-001
6.630349e+003,1.042286e-001
6.634206e+003,1.116822e-001
6.638063e+003,1.190449e-001
6.641920e+003,1.256709e-001
6.645777e+003,1.228768e-001
6.649634e+003,1.196468e-001
6.653491e+003,1.176656e-001
6.657348e+003,1.106082e-001
6.661205e+003,1.013708e-001
6.665063e+003,1.070627e-001
6.668919e+003,1.172441e-001
6.672776e+003,1.193542e-001
6.676634e+003,1.133775e-001
6.680491e+003,1.154937e-001
6.684348e+003,1.137845e-001
6.688205e+003,1.062620e-001
6.692062e+003,1.143635e-001
6.695919e+003,1.197845e-001
6.699776e+003,1.197884e-001
6.703633e+003,1.094928e-001
6.707490e+003,1.022495e-001
6.711348e+003,1.141900e-001
6.715205e+003,1.150746e-001
6.719062e+003,1.093875e-001
6.722919e+003,1.119960e-001
6.726776e+003,1.166854e-001
6.730633e+003,1.093161e-001
6.734490e+003,1.075348e-001
6.738347e+003,1.074024e-001
6.742204e+003,1.195338e-001
6.746062e+003,1.250086e-001
6.749918e+003,1.200404e-001
6.753775e+003,1.181702e-001
6.757633e+003,1.214584e-001
6.761490e+003,1.220028e-001
6.765347e+003,1.156307e-001
6.769204e+003,1.105774e-001
6.773061e+003,1.026995e-001
6.776918e+003,1.093948e-001
6.780775e+003,1.183118e-001
6.784632e+003,1.114009e-001
6.788489e+003,9.905206e-002
6.792347e+003,1.105596e-001
6.796204e+003,1.264331e-001
6.800061e+003,1.353093e-001
6.803918e+003,1.312363e-001
6.807775e+003,1.239343e-001
6.811632e+003,1.225158e-001
6.815489e+003,1.296200e-001
6.819346e+003,1.235337e-001
6.823203e+003,1.197666e-001
6.827061e+003,1.195716e-001
6.830917e+003,1.308621e-001
6.834774e+003,1.476119e-001
6.838632e+003,1.354907e-001
6.842489e+003,1.318593e-001
6.846346e+003,1.395439e-001
6.850203e+003,1.256034e-001
6.854060e+003,1.098489e-001
6.857917e+003,1.098195e-001
6.861774e+003,1.159211e-001
6.865631e+003,1.065852e-001
6.869488e+003,1.175798e-001
6.873346e+003,1.371640e-001
6.877203e+003,1.306546e-001
6.881060e+003,1.349388e-001
6.884917e+003,1.262897e-001
6.888774e+003,1.216435e-001
6.892631e+003,1.334076e-001
6.896488e+003,1.290375e-001
6.900345e+003,1.197860e-001
6.904202e+003,1.210451e-001
6.908060e+003,1.172610e-001
6.911917e+003,1.179781e-001
6.915773e+003,1.410290e-001
6.919631e+003,1.385159e-001
6.923488e+003,1.171201e-001
6.927345e+003,1.221664e-001
6.931202e+003,1.295948e-001
6.935059e+003,1.238327e-001
6.938916e+003,1.229846e-001
6.942773e+003,1.211852e-001
6.946630e+003,1.270524e-001
6.950487e+003,1.309876e-001
6.954345e+003,1.216503e-001
6.958202e+003,1.246512e-001
6.962059e+003,1.255800e-001
6.965916e+003,1.139016e-001
6.969773e+003,1.131520e-001
6.973630e+003,1.235568e-001
6.977487e+003,1.337583e-001
6.981344e+003,1.286472e-001
6.985201e+003,1.313370e-001
6.989059e+003,1.372616e-001
6.992916e+003,1.214905e-001
6.996772e+003,1.154397e-001
7.000630e+003,1.175947e-001
7.004487e+003,1.209977e-001
7.008344e+003,1.404060e-001
7.012201e+003,1.454551e-001
7.016058e+003,1.316207e-001
7.019915e+003,1.358487e-001
7.023772e+003,1.346628e-001
7.027629e+003,1.349562e-001
7.031486e+003,1.253319e-001
7.035344e+003,1.261694e-001
7.039201e+003,1.500128e-001
7.043058e+003,1.560688e-001
7.046915e+003,1.586054e-001
7.050772e+003,1.523257e-001
7.054629e+003,1.378090e-001
7.058486e+003,1.468555e-001
7.062343e+003,1.482747e-001
7.066200e+003,1.511951e-001
7.070058e+003,1.538432e-001
7.073915e+003,1.328540e-001
7.077771e+003,1.144778e-001
7.081629e+003,1.220143e-001
7.085486e+003,1.478984e-001
7.089343e+003,1.450473e-001
7.093200e+003,1.261719e-001
7.097057e+003,1.157252e-001
7.100914e+003,1.145345e-001
7.104771e+003,1.064092e-001
7.108628e+003,1.123077e-001
7.112485e+003,1.259636e-001
7.116343e+003,1.325021e-001
7.120200e+003,1.446314e-001
7.124057e+003,1.354506e-001
7.127914e+003,1.398159e-001
7.131771e+003,1.593880e-001
7.135628e+003,1.468023e-001
7.139485e+003,1.495422e-001
7.143342e+003,1.801877e-001
7.147199e+003,1.832450e-001
7.151057e+003,1.546030e-001
7.154914e+003,1.413331e-001
7.158771e+003,1.310676e-001
7.162628e+003,1.226352e-001
7.166485e+003,1.264259e-001
7.170342e+003,1.299034e-001
7.174199e+003,1.234178e-001
7.178056e+003,1.319972e-001
7.181913e+003,1.568673e-001
7.185771e+003,1.681713e-001
7.189627e+003,1.651747e-001
7.193484e+003,1.627653e-001
7.197342e+003,1.614459e-001
7.201199e+003,1.457636e-001
7.205056e+003,1.316934e-001
7.208913e+003,1.232455e-001
7.212770e+003,1.310798e-001
7.216627e+003,1.365429e-001
7.220484e+003,1.320408e-001
7.224341e+003,1.319591e-001
7.228198e+003,1.391115e-001
7.232056e+003,1.514250e-001
7.235913e+003,1.432442e-001
7.239770e+003,1.204105e-001
7.243627e+003,1.343626e-001
7.247484e+003,1.492378e-001
7.251341e+003,1.451185e-001
7.255198e+003,1.369944e-001
7.259055e+003,1.425329e-001
7.262912e+003,1.399259e-001
7.266770e+003,1.273671e-001
7.270626e+003,1.257506e-001
7.274483e+003,1.344929e-001
7.278341e+003,1.316745e-001
7.282198e+003,1.344457e-001
7.286055e+003,1.439248e-001
7.289912e+003,1.443343e-001
7.293769e+003,1.346569e-001
7.297626e+003,1.376544e-001
7.301483e+003,1.500802e-001
7.305340e+003,1.546136e-001
7.309197e+003,1.636273e-001
7.313055e+003,1.750606e-001
7.316912e+003,1.532487e-001
7.320769e+003,1.693436e-001
7.324626e+003,1.771929e-001
7.328483e+003,1.839263e-001
7.332340e+003,1.890025e-001
7.336197e+003,1.592256e-001
7.340054e+003,1.372043e-001
7.343911e+003,1.504504e-001
7.347769e+003,1.529891e-001
7.351625e+003,1.515032e-001
7.355482e+003,1.612390e-001
7.359340e+003,1.786643e-001
7.363197e+003,1.654599e-001
7.367054e+003,1.438066e-001
7.370911e+003,1.591379e-001
7.374768e+003,1.600450e-001
7.378625e+003,1.412263e-001
7.382482e+003,1.265787e-001
7.386339e+003,1.259802e-001
7.390196e+003,1.455693e-001
7.394054e+003,1.574346e-001
7.397911e+003,1.660730e-001
7.401768e+003,1.875670e-001
7.405625e+003,1.830140e-001
7.409482e+003,1.842509e-001
7.413339e+003,1.745010e-001
7.417196e+003,1.509742e-001
7.421053e+003,1.492194e-001
7.424910e+003,1.259006e-001
7.428768e+003,1.236283e-001
7.432625e+003,1.368346e-001
7.436481e+003,1.414688e-001
7.440339e+003,1.496947e-001
7.444196e+003,1.465841e-001
7.448053e+003,1.520036e-001
7.451910e+003,1.494334e-001
7.455767e+003,1.365303e-001
7.459624e+003,1.279736e-001
7.463481e+003,1.396786e-001
7.467338e+003,1.621771e-001
7.471195e+003,1.568260e-001
7.475053e+003,1.307640e-001
7.478910e+003,1.313041e-001
7.482767e+003,1.312195e-001
7.486624e+003,1.298134e-001
7.490481e+003,1.444650e-001
7.494338e+003,1.698099e-001
7.498195e+003,1.704324e-001
7.502052e+003,1.375998e-001
7.505909e+003,9.320992e-002
7.509767e+003,1.010123e-001
7.513624e+003,1.235708e-001
7.517480e+003,1.484834e-001
7.521338e+003,1.654309e-001
7.525195e+003,1.680560e-001
7.529052e+003,1.495887e-001
7.532909e+003,1.692599e-001
7.536766e+003,2.105653e-001
7.540623e+003,2.355077e-001
7.544480e+003,1.881438e-001
7.548337e+003,1.510057e-001
7.552194e+003,1.609433e-001
7.556052e+003,1.679455e-001
7.559909e+003,1.665863e-001
7.563766e+003,1.820432e-001
7.567623e+003,1.664912e-001
7.571480e+003,1.639732e-001
7.575337e+003,1.598570e-001
7.579194e+003,1.465556e-001
7.583051e+003,1.660768e-001
7.586908e+003,2.079232e-001
7.590766e+003,1.834578e-001
7.594623e+003,1.549461e-001
7.598479e+003,1.308634e-001
7.602337e+003,1.616918e-001
7.606194e+003,1.332968e-001
7.610051e+003,1.250798e-001
7.613908e+003,1.142320e-001
7.617765e+003,1.371261e-001
7.621622e+003,1.813303e-001
7.625479e+003,1.890824e-001
7.629336e+003,1.753259e-001
7.633193e+003,1.330480e-001
7.637051e+003,1.237313e-001
7.640908e+003,1.455503e-001
7.644765e+003,1.418030e-001
7.648622e+003,1.728846e-001
7.652479e+003,1.782973e-001
7.656336e+003,1.726433e-001
7.660193e+003,2.174958e-001
7.664050e+003,1.876591e-001
7.667907e+003,1.274382e-001
7.671765e+003,1.201330e-001
7.675622e+003,1.484095e-001
7.679479e+003,1.795702e-001
7.683336e+003,1.961646e-001
7.687193e+003,1.810604e-001
7.691050e+003,2.231037e-001
7.694907e+003,2.045709e-001
7.698764e+003,1.583606e-001
7.702621e+003,1.789494e-001
7.706479e+003,1.315543e-001
7.710335e+003,1.306108e-001
7.714192e+003,1.976061e-001
7.718050e+003,2.005137e-001
7.721907e+003,1.507853e-001
7.725764e+003,1.446014e-001
7.729621e+003,1.429099e-001
7.733478e+003,1.476746e-001
7.737335e+003,1.652620e-001
7.741192e+003,1.790056e-001
7.745049e+003,2.089891e-001
7.748906e+003,2.194978e-001
7.752764e+003,2.093106e-001
7.756621e+003,1.826032e-001
7.760478e+003,1.656462e-001
7.764335e+003,1.722101e-001
7.768192e+003,1.882493e-001
7.772049e+003,2.165341e-001
7.775906e+003,2.700027e-001
7.779763e+003,2.720180e-001
7.783620e+003,1.845779e-001
7.787478e+003,1.393503e-001
7.791334e+003,1.433796e-001
7.795191e+003,1.252175e-001
7.799049e+003,1.503268e-001
7.802906e+003,1.402295e-001
7.806763e+003,1.471743e-001
7.810620e+003,2.093694e-001
7.814477e+003,2.347271e-001
7.818334e+003,2.112369e-001
7.822191e+003,2.158239e-001
7.826048e+003,1.990640e-001
7.829905e+003,1.575634e-001
7.833763e+003,1.821543e-001
7.837620e+003,1.741326e-001
7.841477e+003,1.418167e-001
7.845334e+003,1.505738e-001
7.849191e+003,2.166660e-001
7.853048e+003,2.699624e-001
7.856905e+003,1.937904e-001
7.860762e+003,1.423455e-001
7.864619e+003,1.379053e-001
7.868477e+003,1.462136e-001
7.872333e+003,2.287003e-001
7.876190e+003,2.492900e-001
7.880048e+003,1.961692e-001
7.883905e+003,1.555769e-001
7.887762e+003,1.755812e-001
7.891619e+003,1.966846e-001
7.895476e+003,2.465147e-001
7.899333e+003,2.292618e-001
7.903190e+003,2.296218e-001
7.907047e+003,2.197991e-001
7.910904e+003,1.591582e-001
7.914762e+003,1.633316e-001
7.918619e+003,2.116471e-001
7.922476e+003,1.964036e-001
7.926333e+003,1.428942e-001
7.930190e+003,2.309711e-001
7.934047e+003,2.205061e-001
7.937904e+003,1.313213e-001
7.941761e+003,1.262853e-001
7.945618e+003,1.482629e-001
7.949476e+003,1.663549e-001
7.953333e+003,1.884873e-001
7.957189e+003,1.927324e-001
7.961047e+003,2.364114e-001
7.964904e+003,2.560025e-001
7.968761e+003,1.934671e-001
7.972618e+003,1.596949e-001
7.976475e+003,1.367051e-001
7.980332e+003,1.330827e-001
7.984189e+003,1.040552e-001
7.988046e+003,1.206696e-001
7.991903e+003,1.796210e-001
7.995761e+003,2.220096e-001
7.999618e+003,1.990972e-001
